neutron_powder_diffraction_0223
R_wp: 3.888
Temperature (K): 1074.000
Counts: 83968.00
Wavelength (Ã…): 2.52098
COMMENTS
Test file for demonstrating the .xyy file format in Reel1.0
END OF HEADER
   tth       Y_obs     Y_calc      Y_res    Background    Phase_1_Nuc    Phase_1_Mag    Phase_2_Nuc    Phase_2_Mag
  9.970    615.385    574.728     40.657    574.087    574.714    574.087    574.102    574.087
 10.070    532.584    574.726    -42.142    574.031    574.711    574.031    574.045    574.031
 10.170    563.197    574.726    -11.529    573.970    574.711    573.970    573.985    573.970
 10.270    621.000    574.732     46.268    573.906    574.717    573.906    573.920    573.906
 10.370    612.000    574.746     37.254    573.837    574.731    573.837    573.851    573.837
 10.470    564.100    574.769    -10.669    573.764    574.754    573.764    573.778    573.764
 10.570    636.000    574.806     61.194    573.687    574.791    573.687    573.702    573.687
 10.670    580.000    574.861      5.139    573.606    574.845    573.606    573.621    573.606
 10.770    555.553    574.940    -19.387    573.521    574.924    573.521    573.536    573.521
 10.870    582.000    575.052      6.948    573.432    575.036    573.432    573.447    573.432
 10.970    604.000    575.208     28.792    573.339    575.192    573.339    573.354    573.339
 11.070    623.000    575.425     47.575    573.242    575.408    573.242    573.258    573.242
 11.170    575.647    575.729     -0.082    573.142    575.710    573.142    573.160    573.142
 11.270    617.000    576.156     40.844    573.038    576.135    573.038    573.057    573.038
 11.370    586.000    576.768      9.232    572.930    576.746    572.930    572.949    572.930
 11.470    588.000    577.705     10.295    572.818    577.683    572.818    572.837    572.818
 11.570    551.657    579.358    -27.701    572.703    579.335    572.703    572.722    572.703
 11.670    619.000    582.872     36.128    572.584    582.847    572.584    572.604    572.584
 11.770    549.551    590.996    -41.445    572.462    590.966    572.462    572.481    572.462
 11.870    613.213    608.318      4.896    572.336    608.277    572.336    572.356    572.336
 11.970    647.000    638.571      8.429    572.206    638.513    572.206    572.226    572.206
 12.070    675.000    677.976     -2.976    572.074    677.896    572.074    572.094    572.074
 12.170    653.000    709.122    -56.122    571.937    709.024    571.937    571.958    571.937
 12.270    663.000    710.007    -47.007    571.798    709.908    571.798    571.818    571.798
 12.370    631.000    679.698    -48.698    571.655    679.616    571.655    571.676    571.655
 12.470    636.000    639.819     -3.819    571.509    639.759    571.509    571.530    571.509
 12.570    637.000    608.572     28.428    571.360    608.531    571.360    571.380    571.360
 12.670    577.000    590.358    -13.358    571.207    590.326    571.207    571.228    571.207
 12.770    552.000    581.617    -29.617    571.052    581.590    571.052    571.073    571.052
 12.870    617.000    577.685     39.315    570.893    577.660    570.893    570.914    570.893
 12.970    532.000    575.703    -43.703    570.731    575.679    570.731    570.752    570.731
 13.070    560.000    574.469    -14.469    570.566    574.446    570.566    570.587    570.566
 13.170    553.000    573.572    -20.572    570.398    573.549    570.398    570.420    570.398
 13.270    571.491    572.867     -1.376    570.227    572.843    570.227    570.249    570.227
 13.370    591.743    572.287     19.456    570.053    572.264    570.053    570.075    570.053
 13.470    615.040    571.795     43.245    569.877    571.772    569.877    569.899    569.877
 13.570    555.000    571.366    -16.366    569.697    571.343    569.697    569.719    569.697
 13.670    560.000    570.983    -10.983    569.515    570.960    569.515    569.537    569.515
 13.770    543.000    570.635    -27.635    569.330    570.612    569.330    569.352    569.330
 13.870    524.792    570.312    -45.520    569.142    570.289    569.142    569.164    569.142
 13.970    520.000    570.009    -50.009    568.951    569.985    568.951    568.974    568.951
 14.070    538.515    569.721    -31.205    568.758    569.697    568.758    568.781    568.758
 14.170    568.303    569.444     -1.141    568.562    569.421    568.562    568.585    568.562
 14.270    568.000    569.177     -1.177    568.363    569.153    568.363    568.387    568.363
 14.370    573.864    568.916      4.948    568.162    568.893    568.162    568.186    568.162
 14.470    519.000    568.662    -49.662    567.959    568.638    567.959    567.982    567.959
 14.570    549.000    568.415    -19.415    567.753    568.390    567.753    567.778    567.753
 14.670    537.000    568.169    -31.169    567.544    568.143    567.544    567.570    567.544
 14.770    526.000    567.924    -41.924    567.333    567.898    567.333    567.359    567.333
 14.870    522.601    567.682    -45.081    567.120    567.654    567.120    567.147    567.120
 14.970    520.772    567.441    -46.669    566.904    567.411    566.904    566.934    566.904
 15.070    540.000    567.200    -27.200    566.686    567.169    566.686    566.717    566.686
 15.170    570.000    566.958      3.042    566.466    566.927    566.466    566.497    566.466
 15.270    596.739    566.717     30.022    566.243    566.686    566.243    566.274    566.243
 15.370    575.000    566.475      8.525    566.019    566.444    566.019    566.050    566.019
 15.470    567.513    566.233      1.281    565.792    566.201    565.792    565.823    565.792
 15.570    558.087    565.990     -7.903    565.563    565.958    565.563    565.594    565.563
 15.670    534.000    565.747    -31.747    565.331    565.715    565.331    565.363    565.331
 15.770    562.000    565.502     -3.502    565.098    565.470    565.098    565.130    565.098
 15.870    567.308    565.258      2.050    564.863    565.226    564.863    564.895    564.863
 15.970    497.000    565.014    -68.014    564.625    564.981    564.625    564.658    564.625
 16.070    560.000    564.767     -4.767    564.386    564.734    564.386    564.419    564.386
 16.170    556.000    564.519     -8.519    564.145    564.485    564.145    564.179    564.145
 16.270    566.951    564.280      2.671    563.901    564.236    563.901    563.946    563.901
 16.370    575.000    564.031     10.969    563.656    563.985    563.656    563.703    563.656
 16.470    594.631    563.779     30.852    563.409    563.733    563.409    563.456    563.409
 16.570    551.000    563.526    -12.526    563.161    563.479    563.161    563.207    563.161
 16.670    608.422    563.272     45.150    562.910    563.224    562.910    562.957    562.910
 16.770    556.000    563.016     -7.016    562.658    562.969    562.658    562.705    562.658
 16.870    559.093    562.759     -3.667    562.404    562.711    562.404    562.451    562.404
 16.970    532.767    562.502    -29.735    562.148    562.453    562.148    562.197    562.148
 17.070    515.000    562.248    -47.248    561.890    562.193    561.890    561.945    561.890
 17.170    522.000    561.988    -39.988    561.631    561.933    561.631    561.686    561.631
 17.270    646.000    561.728     84.272    561.371    561.673    561.371    561.426    561.371
 17.370    574.000    561.466     12.534    561.108    561.410    561.108    561.164    561.108
 17.470    605.719    561.202     44.517    560.844    561.145    560.844    560.901    560.844
 17.570    582.936    560.937     21.999    560.579    560.880    560.579    560.636    560.579
 17.670    521.829    560.670    -38.842    560.312    560.613    560.312    560.370    560.312
 17.770    527.000    560.403    -33.403    560.044    560.345    560.044    560.102    560.044
 17.870    584.000    560.134     23.866    559.774    560.076    559.774    559.832    559.774
 17.970    536.000    559.864    -23.864    559.503    559.805    559.503    559.562    559.503
 18.070    576.000    559.593     16.407    559.231    559.534    559.231    559.290    559.231
 18.170    586.000    559.322     26.678    558.957    559.261    558.957    559.017    558.957
 18.270    574.000    559.049     14.951    558.682    558.988    558.682    558.742    558.682
 18.370    542.000    558.775    -16.775    558.405    558.713    558.405    558.467    558.405
 18.470    541.000    558.500    -17.500    558.127    558.438    558.127    558.189    558.127
 18.570    557.000    558.224     -1.224    557.849    558.161    557.849    557.911    557.849
 18.670    561.000    557.947      3.053    557.568    557.884    557.568    557.631    557.568
 18.770    556.985    557.669     -0.684    557.287    557.605    557.287    557.350    557.287
 18.870    559.000    557.390      1.610    557.005    557.326    557.005    557.069    557.005
 18.970    537.000    557.111    -20.111    556.721    557.046    556.721    556.786    556.721
 19.070    596.000    556.830     39.170    556.436    556.765    556.436    556.501    556.436
 19.170    535.000    556.549    -21.549    556.151    556.484    556.151    556.216    556.151
 19.270    517.000    556.268    -39.268    555.864    556.201    555.864    555.930    555.864
 19.370    563.000    555.986      7.014    555.576    555.919    555.576    555.643    555.576
 19.470    558.592    555.703      2.889    555.287    555.635    555.287    555.355    555.287
 19.570    571.000    555.420     15.580    554.998    555.352    554.998    555.066    554.998
 19.670    548.000    555.137     -7.137    554.707    555.068    554.707    554.776    554.707
 19.770    528.000    554.852    -26.852    554.416    554.783    554.416    554.485    554.416
 19.870    570.000    554.568     15.432    554.123    554.498    554.123    554.193    554.123
 19.970    570.000    554.296     15.704    553.830    554.225    553.830    553.901    553.830
 20.070    577.000    554.019     22.981    553.536    553.948    553.536    553.607    553.536
 20.170    541.000    553.734    -12.734    553.241    553.662    553.241    553.313    553.241
 20.270    503.000    553.447    -50.447    552.945    553.375    552.945    553.018    552.945
 20.370    535.353    553.160    -17.807    552.649    553.087    552.649    552.722    552.649
 20.470    565.000    552.874     12.126    552.352    552.799    552.352    552.427    552.352
 20.570    554.629    552.589      2.040    552.054    552.511    552.054    552.132    552.054
 20.670    555.000    552.302      2.698    551.755    552.223    551.755    551.834    551.755
 20.770    539.000    552.015    -13.015    551.456    551.935    551.456    551.536    551.456
 20.870    587.000    551.729     35.271    551.156    551.647    551.156    551.238    551.156
 20.970    573.000    551.442     21.558    550.856    551.359    550.856    550.939    550.856
 21.070    506.719    551.155    -44.436    550.555    551.071    550.555    550.639    550.555
 21.170    562.000    550.869     11.131    550.253    550.784    550.253    550.339    550.253
 21.270    550.000    550.583     -0.583    549.951    550.497    549.951    550.037    549.951
 21.370    545.570    550.298     -4.728    549.649    550.211    549.649    549.736    549.649
 21.470    580.462    550.013     30.448    549.346    549.925    549.346    549.434    549.346
 21.570    551.000    549.730      1.270    549.042    549.641    549.042    549.131    549.042
 21.670    532.000    549.447    -17.447    548.738    549.357    548.738    548.829    548.738
 21.770    539.000    549.168    -10.168    548.434    549.076    548.434    548.525    548.434
 21.870    574.239    548.910     25.329    548.129    548.817    548.129    548.222    548.129
 21.970    529.000    548.661    -19.661    547.824    548.567    547.824    547.918    547.824
 22.070    574.000    548.387     25.613    547.519    548.293    547.519    547.614    547.519
 22.170    572.000    548.122     23.878    547.213    548.026    547.213    547.309    547.213
 22.270    569.795    547.936     21.859    546.907    547.838    546.907    547.004    546.907
 22.370    518.174    547.695    -29.521    546.600    547.596    546.600    546.700    546.600
 22.470    511.240    547.482    -36.242    546.294    547.380    546.294    546.395    546.294
 22.570    575.636    547.245     28.391    545.987    547.142    545.987    546.090    545.987
 22.670    543.000    546.993     -3.993    545.680    546.888    545.680    545.785    545.680
 22.770    562.000    546.745     15.255    545.372    546.639    545.372    545.479    545.372
 22.870    560.355    546.505     13.850    545.065    546.397    545.065    545.173    545.065
 22.970    529.000    546.274    -17.274    544.757    546.164    544.757    544.867    544.757
 23.070    552.000    546.054      5.946    544.450    545.942    544.450    544.561    544.450
 23.170    518.000    545.848    -27.848    544.142    545.734    544.142    544.256    544.142
 23.270    567.006    545.663     21.344    543.834    545.543    543.834    543.954    543.834
 23.370    527.000    545.498    -18.498    543.526    545.375    543.526    543.649    543.526
 23.470    543.381    545.361     -1.980    543.218    545.236    543.218    543.344    543.218
 23.570    563.000    545.259     17.741    542.910    545.132    542.910    543.038    542.910
 23.670    561.000    545.206     15.794    542.602    545.077    542.602    542.732    542.602
 23.770    589.004    545.221     43.783    542.294    545.089    542.294    542.426    542.294
 23.870    559.767    545.333     14.434    541.986    545.199    541.986    542.121    541.986
 23.970    548.528    545.594      2.934    541.678    545.458    541.678    541.815    541.678
 24.070    541.000    546.128     -5.128    541.370    545.990    541.370    541.510    541.370
 24.170    538.939    547.293     -8.353    541.062    547.153    541.062    541.205    541.062
 24.270    595.000    550.063     44.937    540.754    549.922    540.754    540.901    540.754
 24.370    615.000    556.536     58.464    540.447    556.397    540.447    540.596    540.447
 24.470    566.000    569.693     -3.693    540.139    569.560    540.139    540.292    540.139
 24.570    598.776    591.095      7.681    539.832    590.973    539.832    539.989    539.832
 24.670    581.000    616.577    -35.577    539.525    616.470    539.525    539.685    539.525
 24.770    627.000    633.510     -6.510    539.218    633.412    539.218    539.382    539.218
 24.870    598.000    629.371    -31.371    538.911    629.266    538.911    539.080    538.911
 24.970    578.018    607.573    -29.555    538.605    607.448    538.605    538.778    538.605
 25.070    599.381    582.152     17.229    538.299    582.004    538.299    538.476    538.299
 25.170    519.226    562.926    -43.700    537.993    562.760    537.993    538.175    537.993
 25.270    510.000    551.716    -41.716    537.687    551.537    537.687    537.875    537.687
 25.370    547.000    546.179      0.821    537.382    545.991    537.382    537.575    537.382
 25.470    504.376    543.551    -39.175    537.077    543.355    537.077    537.277    537.077
 25.570    545.000    542.145      2.855    536.773    541.941    536.773    536.978    536.773
 25.670    581.945    541.238     40.707    536.468    541.027    536.468    536.681    536.468
 25.770    560.000    540.562     19.438    536.165    540.344    536.165    536.385    536.165
 25.870    524.000    540.022    -16.022    535.861    539.795    535.861    536.089    535.861
 25.970    506.655    539.581    -32.926    535.558    539.345    535.558    535.795    535.558
 26.070    579.000    539.216     39.784    535.256    538.970    535.256    535.501    535.256
 26.170    509.808    538.914    -29.106    534.953    538.658    534.953    535.209    534.953
 26.270    529.000    538.672     -9.672    534.652    538.404    534.652    534.920    534.652
 26.370    583.469    538.507     44.963    534.351    538.225    534.351    534.632    534.351
 26.470    548.764    538.389     10.375    534.050    538.094    534.050    534.344    534.050
 26.570    540.000    538.303      1.697    533.750    537.995    533.750    534.058    533.750
 26.670    518.608    538.276    -19.668    533.450    537.952    533.450    533.774    533.450
 26.770    566.000    538.319     27.681    533.151    537.977    533.151    533.492    533.151
 26.870    513.000    538.445    -25.445    532.852    538.085    532.852    533.212    532.852
 26.970    540.567    538.675      1.892    532.554    538.294    532.554    532.935    532.554
 27.070    561.000    539.047     21.953    532.257    538.642    532.257    532.661    532.257
 27.170    549.000    539.603      9.397    531.960    539.173    531.960    532.390    531.960
 27.270    514.000    540.386    -26.386    531.664    539.926    531.664    532.123    531.664
 27.370    560.027    541.509     18.518    531.368    541.016    531.368    531.860    531.368
 27.470    511.374    543.112    -31.738    531.073    542.581    531.073    531.602    531.073
 27.570    503.362    545.657    -42.296    530.779    545.083    530.779    531.351    530.779
 27.670    618.000    550.643     67.357    530.486    550.019    530.486    531.106    530.486
 27.770    596.000    562.858     33.142    530.193    562.173    530.193    530.869    530.193
 27.870    627.000    593.794     33.206    529.901    593.033    529.901    530.643    529.901
 27.970    672.000    660.419     11.581    529.609    659.560    529.609    530.428    529.609
 28.070    776.000    769.317      6.683    529.318    768.336    529.318    530.228    529.318
 28.170    902.373    890.003     12.370    529.028    888.886    529.028    530.047    529.028
 28.270    946.296    949.661     -3.365    528.739    948.415    528.739    529.888    528.739
 28.370    891.000    899.863     -8.863    528.451    898.492    528.451    529.760    528.451
 28.470    763.241    792.417    -29.176    528.163    790.883    528.163    529.671    528.163
 28.570    740.032    709.041     30.991    527.876    707.270    527.876    529.635    527.876
 28.670    662.361    691.802    -29.441    527.590    689.702    527.590    529.674    527.590
 28.770    735.000    736.431     -1.431    527.305    733.884    527.305    529.832    527.305
 28.870    827.000    804.038     22.962    527.021    800.848    527.021    530.197    527.021
 28.970    804.000    835.829    -31.829    526.737    831.623    526.737    530.944    526.737
 29.070    782.000    796.753    -14.753    526.455    790.821    526.455    532.397    526.455
 29.170    685.000    717.592    -32.592    526.173    708.737    526.173    535.040    526.173
 29.270    657.371    645.596     11.774    525.892    632.082    525.892    539.413    525.892
 29.370    596.000    602.154     -6.154    525.612    581.954    525.612    545.813    525.612
 29.470    546.208    584.746    -38.538    525.333    556.308    525.333    553.769    525.333
 29.570    589.098    581.188      7.909    525.055    544.939    525.055    561.301    525.055
 29.670    586.000    579.803      6.197    524.778    539.798    524.778    564.779    524.778
 29.770    530.721    574.280    -43.560    524.501    537.011    524.501    561.767    524.501
 29.870    586.000    565.120     20.880    524.226    535.199    524.226    554.143    524.226
 29.970    522.989    555.534    -32.545    523.952    533.930    523.952    545.554    523.952
 30.070    551.000    547.658      3.342    523.679    533.059    523.679    538.276    523.679
 30.170    513.625    542.149    -28.524    523.406    532.554    523.406    532.999    523.406
 30.270    549.000    538.922     10.078    523.135    532.526    523.135    529.528    523.135
 30.370    569.000    537.897     31.103    522.865    533.415    522.865    527.343    522.865
 30.470    562.013    539.717     22.296    522.595    536.365    522.595    525.940    522.595
 30.570    555.000    546.130      8.870    522.327    543.476    522.327    524.968    522.327
 30.670    526.019    559.198    -33.179    522.060    557.007    522.060    524.228    522.060
 30.770    588.000    578.712      9.288    521.794    576.850    521.794    523.619    521.794
 30.870    572.000    598.927    -26.927    521.529    597.312    521.529    523.093    521.529
 30.970    596.000    608.170    -12.170    521.265    606.756    521.265    522.623    521.265
 31.070    615.000    598.677     16.323    521.002    597.439    521.002    522.195    521.002
 31.170    536.000    577.657    -41.657    520.740    576.569    520.740    521.798    520.740
 31.270    542.000    556.788    -14.788    520.479    555.824    520.479    521.427    520.479
 31.370    564.493    542.070     22.423    520.220    541.207    520.220    521.075    520.220
 31.470    554.632    533.815     20.817    519.961    533.034    519.961    520.738    519.961
 31.570    504.000    529.807    -25.807    519.704    529.093    519.704    520.415    519.704
 31.670    527.000    527.897     -0.897    519.448    527.240    519.448    520.102    519.448
 31.770    555.000    526.867     28.133    519.193    526.260    519.193    519.798    519.193
 31.870    557.030    526.215     30.816    518.939    525.650    518.939    519.502    518.939
 31.970    508.000    525.765    -17.765    518.686    525.238    518.686    519.212    518.686
 32.070    517.000    525.458     -8.458    518.435    524.963    518.435    518.929    518.435
 32.170    523.000    525.270     -2.270    518.185    524.804    518.185    518.650    518.185
 32.270    537.000    525.196     11.804    517.936    524.755    517.936    518.376    517.936
 32.370    493.879    525.233    -31.354    517.688    524.815    517.688    518.105    517.688
 32.470    568.000    525.388     42.612    517.441    524.990    517.441    517.839    517.441
 32.570    538.000    525.681     12.319    517.196    525.300    517.196    517.575    517.196
 32.670    536.000    526.136      9.864    516.951    525.771    516.951    517.315    516.951
 32.770    524.692    526.794     -2.103    516.708    526.444    516.708    517.058    516.708
 32.870    555.000    527.713     27.287    516.467    527.375    516.467    516.803    516.467
 32.970    536.000    528.975      7.025    516.226    528.649    516.226    516.551    516.226
 33.070    524.289    530.713     -6.423    515.987    530.398    515.987    516.301    515.987
 33.170    523.000    533.164    -10.164    515.749    532.858    515.749    516.053    515.749
 33.270    565.000    536.875     28.125    515.513    536.577    515.513    515.808    515.513
 33.370    523.738    543.317    -19.579    515.277    543.026    515.277    515.564    515.277
 33.470    553.237    556.323     -3.087    515.043    556.038    515.043    515.323    515.043
 33.570    599.781    584.122     15.659    514.810    583.838    514.810    515.083    514.810
 33.670    686.010    639.626     46.384    514.579    639.337    514.579    514.846    514.579
 33.770    822.000    734.435     87.565    514.349    734.136    514.349    514.610    514.349
 33.870    889.000    864.737     24.263    514.120    864.426    514.120    514.376    514.120
 33.970   1017.000    995.331     21.669    513.893    995.014    513.893    514.144    513.893
 34.070   1009.095   1059.350    -50.254    513.667   1059.046    513.667    513.914    513.667
 34.170   1004.000   1011.278     -7.278    513.442   1011.005    513.442    513.685    513.442
 34.270    927.000    886.794     40.206    513.218    886.549    513.218    513.458    513.218
 34.370    738.000    753.214    -15.214    512.996    752.984    512.996    513.232    512.996
 34.470    660.000    651.347      8.653    512.776    651.121    512.776    513.009    512.776
 34.570    627.000    589.319     37.681    512.556    589.093    512.556    512.787    512.556
 34.670    532.893    557.152    -24.259    512.338    556.926    512.338    512.566    512.338
 34.770    498.748    541.691    -42.942    512.122    541.465    512.122    512.347    512.122
 34.870    573.363    533.896     39.467    511.906    533.672    511.906    512.130    511.906
 34.970    515.891    529.318    -13.427    511.693    529.096    511.693    511.914    511.693
 35.070    513.000    526.181    -13.181    511.480    525.960    511.480    511.700    511.480
 35.170    538.000    523.822     14.178    511.269    523.603    511.269    511.488    511.269
 35.270    534.000    521.965     12.035    511.060    521.747    511.060    511.277    511.060
 35.370    512.000    520.463     -8.463    510.851    520.247    510.851    511.067    510.851
 35.470    490.451    519.223    -28.772    510.645    519.008    510.645    510.859    510.645
 35.570    495.811    518.181    -22.370    510.439    517.966    510.439    510.653    510.439
 35.670    531.000    517.292     13.708    510.235    517.078    510.235    510.448    510.235
 35.770    524.814    516.523      8.291    510.033    516.310    510.033    510.245    510.033
 35.870    482.674    515.850    -33.176    509.832    515.638    509.832    510.044    509.832
 35.970    547.433    515.256     32.177    509.632    515.044    509.632    509.844    509.632
 36.070    496.000    514.726    -18.726    509.434    514.515    509.434    509.645    509.434
 36.170    498.000    514.251    -16.251    509.237    514.040    509.237    509.448    509.237
 36.270    494.000    513.824    -19.824    509.042    513.613    509.042    509.253    509.042
 36.370    478.000    513.438    -35.438    508.848    513.227    508.848    509.059    508.848
 36.470    472.000    513.090    -41.090    508.656    512.879    508.656    508.866    508.656
 36.570    488.884    512.779    -23.896    508.465    512.568    508.465    508.676    508.465
 36.670    525.056    512.506     12.550    508.275    512.295    508.275    508.486    508.275
 36.770    507.000    512.276     -5.276    508.087    512.065    508.087    508.299    508.087
 36.870    528.000    512.107     15.893    507.901    511.895    507.901    508.113    507.901
 36.970    504.088    512.047     -7.959    507.716    511.835    507.716    507.928    507.716
 37.070    507.133    512.219     -5.086    507.532    512.006    507.532    507.745    507.532
 37.170    487.000    512.862    -25.862    507.350    512.649    507.350    507.564    507.350
 37.270    509.000    514.330     -5.330    507.170    514.116    507.170    507.384    507.170
 37.370    534.000    516.924     17.076    506.991    516.710    506.991    507.206    506.991
 37.470    527.114    520.564      6.549    506.813    520.350    506.813    507.029    506.813
 37.570    560.412    524.414     35.998    506.637    524.200    506.637    506.854    506.637
 37.670    550.630    526.844     23.786    506.463    526.631    506.463    506.680    506.463
 37.770    529.000    526.490      2.510    506.290    526.278    506.290    506.508    506.290
 37.870    550.071    523.704     26.367    506.118    523.493    506.118    506.338    506.118
 37.970    532.000    519.978     12.022    505.948    519.767    505.948    506.169    505.948
 38.070    526.000    516.474      9.526    505.780    516.263    505.780    506.001    505.780
 38.170    518.853    513.649      5.203    505.613    513.435    505.613    505.836    505.613
 38.270    510.000    511.584     -1.584    505.447    511.367    505.447    505.672    505.447
 38.370    519.373    510.178      9.195    505.283    509.957    505.283    505.509    505.283
 38.470    532.000    509.255     22.745    505.121    509.030    505.121    505.348    505.121
 38.570    478.763    508.649    -29.886    504.960    508.421    504.960    505.189    504.960
 38.670    498.000    508.236    -10.236    504.800    508.006    504.800    505.031    504.800
 38.770    545.783    507.931     37.852    504.643    507.700    504.643    504.875    504.643
 38.870    494.000    507.685    -13.685    504.486    507.451    504.486    504.720    504.486
 38.970    465.000    507.471    -42.471    504.331    507.235    504.331    504.567    504.331
 39.070    522.000    507.277     14.723    504.178    507.040    504.178    504.416    504.178
 39.170    474.000    507.099    -33.099    504.026    506.860    504.026    504.266    504.026
 39.270    502.000    506.933     -4.933    503.876    506.692    503.876    504.118    503.876
 39.370    514.000    506.778      7.222    503.728    506.534    503.728    503.971    503.728
 39.470    532.000    506.632     25.368    503.580    506.386    503.580    503.826    503.580
 39.570    522.822    506.494     16.328    503.435    506.246    503.435    503.683    503.435
 39.670    500.606    506.364     -5.758    503.291    506.114    503.291    503.541    503.291
 39.770    491.000    506.243    -15.243    503.148    505.990    503.148    503.401    503.148
 39.870    485.000    506.129    -21.129    503.007    505.874    503.007    503.263    503.007
 39.970    479.000    506.023    -27.023    502.868    505.765    502.868    503.126    502.868
 40.070    495.000    505.925    -10.925    502.730    505.665    502.730    502.991    502.730
 40.170    516.000    505.836     10.164    502.594    505.573    502.594    502.857    502.594
 40.270    501.530    505.756     -4.226    502.459    505.490    502.459    502.725    502.459
 40.370    488.000    505.686    -17.686    502.326    505.417    502.326    502.595    502.326
 40.470    498.000    505.627     -7.627    502.194    505.356    502.194    502.466    502.194
 40.570    503.000    505.580     -2.580    502.064    505.306    502.064    502.339    502.064
 40.670    495.000    505.548    -10.548    501.935    505.270    501.935    502.214    501.935
 40.770    481.000    505.531    -24.531    501.808    505.250    501.808    502.090    501.808
 40.870    475.000    505.534    -30.534    501.683    505.249    501.683    501.968    501.683
 40.970    498.709    505.559     -6.850    501.559    505.271    501.559    501.847    501.559
 41.070    477.070    505.611    -28.541    501.436    505.320    501.436    501.728    501.436
 41.170    503.000    505.697     -2.697    501.315    505.402    501.315    501.611    501.315
 41.270    550.000    505.824     44.176    501.196    505.525    501.196    501.496    501.196
 41.370    481.528    506.004    -24.476    501.078    505.701    501.078    501.382    501.078
 41.470    498.297    506.253     -7.955    500.962    505.946    500.962    501.270    500.962
 41.570    518.000    506.595     11.405    500.847    506.284    500.847    501.160    500.847
 41.670    505.000    507.077     -2.077    500.734    506.762    500.734    501.051    500.734
 41.770    522.826    507.799     15.027    500.623    507.480    500.623    500.944    500.623
 41.870    489.000    509.003    -20.003    500.513    508.680    500.513    500.838    500.513
 41.970    518.000    511.246      6.754    500.404    510.919    500.404    500.735    500.404
 42.070    478.000    515.634    -37.634    500.297    515.304    500.297    500.633    500.297
 42.170    482.000    523.928    -41.928    500.191    523.596    500.191    500.533    500.191
 42.270    532.000    538.141     -6.141    500.088    537.810    500.088    500.434    500.088
 42.370    574.000    559.312     14.688    499.985    558.986    499.985    500.337    499.985
 42.470    606.014    585.693     20.321    499.884    585.374    499.884    500.242    499.884
 42.570    653.484    611.156     42.329    499.785    610.845    499.785    500.149    499.785
 42.670    595.000    625.727    -30.727    499.687    625.420    499.687    500.058    499.687
 42.770    631.245    621.788      9.457    499.591    621.476    499.591    499.968    499.591
 42.870    601.059    601.660     -0.601    499.496    601.333    499.496    499.880    499.496
 42.970    508.000    574.844    -66.844    499.403    574.496    499.403    499.794    499.403
 43.070    535.595    550.013    -14.418    499.311    549.644    499.311    499.709    499.311
 43.170    490.000    531.459    -41.459    499.221    531.072    499.221    499.627    499.221
 43.270    517.650    519.638     -1.988    499.132    519.235    499.132    499.546    499.132
 43.370    496.000    512.961    -16.961    499.045    512.546    499.045    499.467    499.045
 43.470    544.000    509.442     34.558    498.960    509.016    498.960    499.390    498.960
 43.570    511.000    507.574      3.426    498.876    507.137    498.876    499.315    498.876
 43.670    527.902    506.489     21.413    498.793    506.043    498.793    499.242    498.793
 43.770    493.000    505.775    -12.775    498.712    505.319    498.712    499.171    498.712
 43.870    486.000    505.257    -19.257    498.632    504.789    498.632    499.101    498.632
 43.970    516.879    504.859     12.019    498.554    504.381    498.554    499.034    498.554
 44.070    539.016    504.547     34.469    498.478    504.057    498.478    498.969    498.478
 44.170    514.000    504.299      9.701    498.403    503.797    498.403    498.905    498.403
 44.270    508.000    504.102      3.898    498.329    503.588    498.329    498.844    498.329
 44.370    512.000    503.946      8.054    498.257    503.419    498.257    498.785    498.257
 44.470    516.002    503.825     12.177    498.186    503.283    498.186    498.728    498.186
 44.570    500.000    503.732     -3.732    498.117    503.176    498.117    498.673    498.117
 44.670    524.000    503.664     20.336    498.050    503.093    498.050    498.621    498.050
 44.770    481.000    503.618    -22.618    497.983    503.031    497.983    498.571    497.983
 44.870    536.000    503.593     32.407    497.919    502.989    497.919    498.523    497.919
 44.970    529.000    503.586     25.414    497.856    502.964    497.856    498.478    497.856
 45.070    517.000    503.597     13.403    497.794    502.956    497.794    498.435    497.794
 45.170    482.146    503.625    -21.479    497.734    502.964    497.734    498.395    497.734
 45.270    509.544    503.670      5.874    497.675    502.987    497.675    498.358    497.675
 45.370    497.000    503.732     -6.732    497.618    503.026    497.618    498.324    497.618
 45.470    503.557    503.811     -0.254    497.562    503.081    497.562    498.292    497.562
 45.570    486.000    503.908    -17.908    497.507    503.152    497.507    498.264    497.507
 45.670    508.000    504.025      3.975    497.454    503.240    497.454    498.239    497.454
 45.770    527.000    504.161     22.839    497.403    503.347    497.403    498.217    497.403
 45.870    505.000    504.320      0.680    497.353    503.473    497.353    498.199    497.353
 45.970    521.648    504.503     17.145    497.304    503.622    497.304    498.185    497.304
 46.070    491.000    504.713    -13.713    497.257    503.795    497.257    498.175    497.257
 46.170    503.000    504.955     -1.955    497.211    503.996    497.211    498.170    497.211
 46.270    465.000    505.231    -40.231    497.167    504.228    497.167    498.169    497.167
 46.370    481.000    505.549    -24.549    497.124    504.499    497.124    498.174    497.124
 46.470    504.000    505.916     -1.916    497.083    504.814    497.083    498.184    497.083
 46.570    524.907    506.342     18.565    497.042    505.183    497.042    498.200    497.042
 46.670    526.000    506.843     19.157    497.004    505.622    497.004    498.224    497.004
 46.770    494.961    507.446    -12.485    496.967    506.156    496.967    498.255    496.967
 46.870    493.487    508.207    -14.720    496.931    506.841    496.931    498.295    496.931
 46.970    496.000    509.246    -13.246    496.896    507.796    496.896    498.344    496.896
 47.070    493.000    510.835    -17.835    496.863    509.291    496.863    498.404    496.863
 47.170    549.565    513.489     36.076    496.832    511.839    496.832    498.476    496.832
 47.270    536.775    518.041     18.734    496.801    516.271    496.801    498.562    496.801
 47.370    529.000    525.539      3.461    496.772    523.633    496.772    498.665    496.772
 47.470    546.284    536.827      9.457    496.745    534.762    496.745    498.787    496.745
 47.570    548.000    551.814     -3.814    496.719    549.568    496.719    498.932    496.719
 47.670    593.121    568.698     24.423    496.694    566.244    496.694    499.103    496.694
 47.770    562.000    583.517    -21.517    496.670    580.827    496.670    499.306    496.670
 47.870    578.000    590.980    -12.980    496.648    588.023    496.648    499.547    496.648
 47.970    579.000    587.952     -8.952    496.628    584.689    496.628    499.837    496.628
 48.070    531.041    576.567    -45.526    496.608    572.947    496.608    500.185    496.608
 48.170    581.926    561.989     19.937    496.590    557.939    496.590    500.610    496.590
 48.270    568.000    548.674     19.326    496.574    544.091    496.574    501.135    496.574
 48.370    536.000    539.011     -3.011    496.558    533.750    496.558    501.806    496.558
 48.470    468.000    533.596    -65.596    496.544    527.430    496.544    502.702    496.544
 48.570    533.000    531.956      1.044    496.531    524.504    496.531    503.977    496.531
 48.670    534.140    533.400      0.740    496.520    524.003    496.520    505.912    496.520
 48.770    574.136    537.598     36.538    496.510    525.118    496.510    508.985    496.510
 48.870    568.805    544.797     24.007    496.501    527.386    496.501    513.908    496.501
 48.970    543.000    555.766    -12.766    496.494    530.670    496.494    521.584    496.494
 49.070    553.294    571.558    -18.264    496.487    535.146    496.487    532.892    496.487
 49.170    586.000    593.275     -7.275    496.482    541.460    496.482    548.288    496.482
 49.270    630.516    622.151      8.365    496.479    551.356    496.479    567.261    496.479
 49.370    673.317    660.459     12.858    496.476    569.194    496.476    587.721    496.476
 49.470    706.000    713.730     -7.730    496.475    604.652    496.475    605.522    496.475
 49.570    831.395    794.542     36.853    496.475    675.853    496.475    615.113    496.475
 49.670    877.950    926.155    -48.205    496.477    809.895    496.477    612.654    496.477
 49.770   1129.000   1138.595     -9.595    496.479   1035.688    496.479    599.261    496.479
 49.870   1507.119   1449.607     57.512    496.483   1366.027    496.483    579.897    496.483
 49.970   1900.000   1837.110     62.890    496.488   1773.704    496.488    559.713    496.488
 50.070   2193.765   2221.252    -27.487    496.495   2175.578    496.495    542.020    496.495
 50.170   2563.015   2476.003     87.013    496.502   2444.215    496.502    528.235    496.502
 50.270   2529.000   2490.154     38.846    496.511   2468.301    496.511    518.431    496.511
 50.370   2347.000   2252.121     94.879    496.521   2236.864    496.521    511.937    496.521
 50.470   1777.000   1861.511    -84.511    496.532   1850.402    496.532    507.833    496.532
 50.570   1350.000   1449.510    -99.510    496.545   1440.951    496.545    505.278    496.545
 50.670   1094.199   1108.764    -14.564    496.558   1101.803    496.558    503.653    496.558
 50.770    786.000    874.781    -88.781    496.573    868.883    496.573    502.564    496.573
 50.870    714.347    738.466    -24.119    496.589    733.333    496.589    501.786    496.589
 50.970    664.000    669.566     -5.566    496.606    665.023    496.606    501.197    496.606
 51.070    634.141    636.577     -2.435    496.625    632.507    496.625    500.734    496.625
 51.170    622.000    617.123      4.877    496.644    613.440    496.644    500.362    496.644
 51.270    646.000    600.286     45.714    496.665    596.921    496.665    500.059    496.665
 51.370    559.709    583.608    -23.900    496.687    580.508    496.687    499.811    496.687
 51.470    562.000    568.219     -6.219    496.710    565.339    496.710    499.606    496.710
 51.570    571.000    555.551     15.449    496.734    552.858    496.734    499.438    496.734
 51.670    588.000    546.235     41.765    496.759    543.701    496.759    499.300    496.759
 51.770    550.382    540.076     10.306    496.785    537.679    496.785    499.188    496.785
 51.870    552.315    536.422     15.893    496.812    534.141    496.812    499.097    496.812
 51.970    540.000    534.551      5.449    496.841    532.371    496.841    499.024    496.841
 52.070    565.000    533.919     31.081    496.871    531.825    496.871    498.967    496.871
 52.170    541.986    534.231      7.755    496.901    532.210    496.901    498.924    496.901
 52.270    541.206    535.434      5.772    496.933    533.475    496.933    498.893    496.933
 52.370    540.321    537.746      2.575    496.966    535.840    496.966    498.874    496.966
 52.470    575.876    541.808     34.068    497.000    539.945    497.000    498.864    497.000
 52.570    572.769    549.037     23.732    497.035    547.209    497.035    498.863    497.035
 52.670    549.972    562.166    -12.194    497.071    560.367    497.071    498.870    497.071
 52.770    554.441    585.757    -31.316    497.108    583.979    497.108    498.884    497.108
 52.870    601.000    626.152    -25.152    497.146    624.389    497.146    498.905    497.146
 52.970    714.000    690.156     23.844    497.185    688.402    497.185    498.933    497.185
 53.070    810.323    782.004     28.319    497.225    780.255    497.225    498.967    497.225
 53.170    845.811    899.131    -53.320    497.267    897.384    497.267    499.007    497.267
 53.270   1072.000   1028.128     43.872    497.309   1026.381    497.309    499.053    497.309
 53.370   1157.670   1142.889     14.781    497.352   1141.142    497.352    499.103    497.352
 53.470   1147.000   1209.284    -62.284    497.396   1207.537    497.396    499.160    497.396
 53.570   1171.000   1202.276    -31.276    497.441   1200.525    497.441    499.221    497.441
 53.670   1173.152   1125.018     48.134    497.488   1123.254    497.488    499.288    497.488
 53.770   1006.632   1005.917      0.715    497.535   1004.129    497.535    499.360    497.535
 53.870    804.000    878.269    -74.269    497.583    876.447    497.583    499.437    497.583
 53.970    761.739    765.839     -4.100    497.632    763.976    497.632    499.519    497.632
 54.070    707.000    679.807     27.193    497.682    677.899    497.682    499.607    497.682
 54.170    632.000    621.169     10.831    497.733    619.213    497.733    499.700    497.733
 54.270    574.004    584.949    -10.945    497.785    582.941    497.785    499.799    497.785
 54.370    545.444    564.279    -18.834    497.838    562.216    497.838    499.905    497.838
 54.470    579.359    553.110     26.249    497.891    550.988    497.891    500.016    497.891
 54.570    561.000    547.245     13.755    497.946    545.059    497.946    500.134    497.946
 54.670    590.000    544.228     45.772    498.001    541.972    498.001    500.258    498.001
 54.770    529.397    542.807    -13.409    498.058    540.475    498.058    500.391    498.058
 54.870    583.418    542.404     41.014    498.115    539.989    498.115    500.531    498.115
 54.970    545.000    542.776      2.224    498.173    540.272    498.173    500.679    498.173
 55.070    594.000    543.837     50.163    498.232    541.233    498.232    500.836    498.232
 55.170    544.000    545.575     -1.575    498.292    542.864    498.292    501.004    498.292
 55.270    557.000    548.032      8.968    498.353    545.203    498.353    501.182    498.353
 55.370    549.000    551.299     -2.299    498.415    548.343    498.415    501.371    498.415
 55.470    574.000    555.546     18.454    498.477    552.449    498.477    501.574    498.477
 55.570    548.516    561.088    -12.572    498.540    557.838    498.540    501.790    498.540
 55.670    592.000    568.580     23.420    498.604    565.162    498.604    502.022    498.604
 55.770    570.000    579.431     -9.431    498.669    575.827    498.669    502.272    498.669
 55.870    618.897    596.628     22.269    498.735    592.819    498.735    502.541    498.735
 55.970    596.000    626.041    -30.041    498.801    622.005    498.801    502.831    498.801
 56.070    647.000    677.965    -30.965    498.869    673.675    498.869    503.146    498.869
 56.170    765.000    767.957     -2.957    498.937    763.382    498.937    503.489    498.937
 56.270    848.000    915.284    -67.284    499.005    910.390    499.005    503.863    499.005
 56.370   1092.598   1137.329    -44.732    499.075   1132.078    499.075    504.273    499.075
 56.470   1387.201   1439.824    -52.624    499.145   1434.180    499.145    504.724    499.145
 56.570   1776.609   1805.547    -28.938    499.216   1799.475    499.216    505.224    499.216
 56.670   2186.000   2185.899      0.101    499.288   2179.370    499.288    505.779    499.288
 56.770   2476.000   2500.712    -24.712    499.360   2493.689    499.360    506.400    499.360
 56.870   2714.000   2657.508     56.492    499.434   2649.943    499.434    507.098    499.434
 56.970   2631.000   2600.503     30.497    499.508   2592.307    499.508    507.887    499.508
 57.070   2333.203   2352.510    -19.307    499.582   2343.545    499.582    508.786    499.582
 57.170   2006.000   1995.551     10.449    499.657   1985.640    499.657    509.818    499.657
 57.270   1612.000   1618.852     -6.852    499.733   1607.795    499.733    511.014    499.733
 57.370   1371.000   1286.507     84.493    499.810   1274.077    499.810    512.418    499.810
 57.470    970.018   1029.998    -59.980    499.887   1015.914    499.887    514.099    499.887
 57.570    951.000    853.423     97.577    499.965    837.300    499.965    516.171    499.965
 57.670    716.573    744.137    -27.564    500.044    725.390    500.044    518.840    500.044
 57.770    672.265    683.889    -11.623    500.123    661.563    500.123    522.474    500.123
 57.870    668.632    656.786     11.846    500.203    629.286    500.203    527.715    500.203
 57.970    634.800    652.964    -18.163    500.284    617.641    500.284    535.606    500.284
 58.070    688.000    668.884     19.116    500.365    621.537    500.365    547.701    500.365
 58.170    693.000    705.787    -12.787    500.446    640.165    500.446    566.047    500.446
 58.270    775.790    767.301      8.489    500.529    674.858    500.529    592.938    500.529
 58.370    856.000    856.724     -0.724    500.611    726.926    500.611    630.361    500.611
 58.470    871.000    974.272   -103.272    500.695    795.753    500.695    679.153    500.695
 58.570   1093.000   1114.668    -21.668    500.779    877.373    500.779    738.006    500.779
 58.670   1216.000   1265.842    -49.842    500.863    964.166    500.863    802.471    500.863
 58.770   1438.000   1409.780     28.220    500.949   1046.569    500.949    864.099    500.949
 58.870   1591.000   1525.786     65.214    501.034   1116.297    501.034    910.476    501.034
 58.970   1531.053   1594.316    -63.263    501.120   1166.842    501.120    928.567    501.120
 59.070   1557.940   1602.507    -44.568    501.207   1191.448    501.207    912.262    501.207
 59.170   1563.000   1551.197     11.803    501.294   1185.318    501.294    867.188    501.294
 59.270   1481.000   1456.635     24.365    501.382   1151.823    501.382    806.216    501.382
 59.370   1337.000   1343.764     -6.764    501.470   1103.376    501.470    741.871    501.470
 59.470   1287.507   1236.772     50.735    501.559   1055.514    501.559    682.807    501.559
 59.570   1147.000   1154.810     -7.810    501.648   1022.760    501.648    633.655    501.648
 59.670   1092.036   1112.919    -20.883    501.738   1018.713    501.738    595.858    501.738
 59.770   1140.290   1121.749     18.541    501.828   1054.773    501.828    568.665    501.828
 59.870   1210.633   1183.361     27.272    501.918   1134.958    501.918    550.127    501.918
 59.970   1360.000   1286.887     73.113    502.009   1250.695    502.009    537.952    502.009
 60.070   1387.000   1407.172    -20.172    502.100   1378.909    502.100    530.074    502.100
 60.170   1508.000   1507.319      0.681    502.192   1484.292    502.192    524.917    502.192
 60.270   1596.000   1548.156     47.844    502.284   1528.749    502.284    521.412    502.284
 60.370   1552.981   1506.859     46.122    502.377   1490.109    502.377    518.903    502.377
 60.470   1520.000   1391.082    128.918    502.470   1376.383    502.470    517.012    502.470
 60.570   1353.000   1231.375    121.625    502.563   1218.310    502.563    515.532    502.563
 60.670   1091.094   1062.483     28.611    502.657   1050.738    502.657    514.351    502.657
 60.770    916.000    910.994      5.006    502.751    900.314    502.751    513.407    502.751
 60.870    787.000    791.483     -4.483    502.846    781.643    502.846    512.677    502.846
 60.970    707.000    707.631     -0.631    502.940    698.419    502.940    512.147    502.940
 61.070    676.000    656.030     19.970    503.035    647.236    503.035    511.822    503.035
 61.170    592.274    630.795    -38.521    503.131    622.203    503.131    511.710    503.131
 61.270    610.000    627.335    -17.335    503.227    618.725    503.227    511.816    503.227
 61.370    640.000    644.391     -4.391    503.323    635.549    503.323    512.133    503.323
 61.470    644.186    684.175    -39.989    503.419    674.917    503.419    512.627    503.419
 61.570    741.888    750.808     -8.920    503.516    741.020    503.516    513.230    503.516
 61.670    806.000    847.397    -41.397    503.613    837.077    503.613    513.829    503.613
 61.770    947.000    972.396    -25.396    503.710    961.703    503.710    514.267    503.710
 61.870   1133.622   1116.347     17.275    503.807   1105.608    503.807    514.381    503.807
 61.970   1222.433   1260.169    -37.736    503.905   1249.808    503.905    514.081    503.905
 62.070   1293.000   1376.246    -83.246    504.003   1366.655    504.003    513.409    504.003
 62.170   1501.525   1434.934     66.591    504.101   1426.368    504.101    512.507    504.101
 62.270   1369.000   1418.153    -49.153    504.199   1410.705    504.199    511.529    504.199
 62.370   1320.544   1330.927    -10.383    504.298   1324.555    504.298    510.598    504.298
 62.470   1156.000   1197.748    -41.748    504.397   1192.325    504.397    509.787    504.397
 62.570   1094.238   1048.574     45.664    504.496   1043.933    504.496    509.130    504.496
 62.670    898.000    907.943     -9.943    504.595    903.916    504.595    508.629    504.595
 62.770    818.205    790.865     27.340    504.694    787.304    504.694    508.267    504.694
 62.870    612.000    702.930    -90.930    504.794    699.715    504.794    508.019    504.794
 62.970    649.000    642.609      6.391    504.894    639.653    504.894    507.856    504.894
 63.070    611.000    604.456      6.544    504.993    601.699    504.993    507.753    504.993
 63.170    608.720    582.041     26.680    505.093    579.441    505.093    507.691    505.093
 63.270    535.306    569.854    -34.548    505.193    567.386    505.193    507.658    505.193
 63.370    606.995    564.114     42.881    505.294    561.758    505.294    507.644    505.294
 63.470    558.187    562.827     -4.640    505.394    560.570    505.394    507.644    505.394
 63.570    609.000    565.538     43.462    505.494    563.368    505.494    507.654    505.494
 63.670    573.000    573.050     -0.050    505.595    570.957    505.595    507.674    505.595
 63.770    584.890    587.174     -2.284    505.695    585.148    505.695    507.701    505.695
 63.870    589.436    610.366    -20.930    505.796    608.398    505.796    507.734    505.796
 63.970    622.717    645.136    -22.419    505.897    643.216    505.897    507.773    505.897
 64.070    701.301    693.131      8.170    505.998    691.250    505.998    507.817    505.998
 64.170    721.115    754.021    -32.905    506.098    752.171    506.098    507.865    506.098
 64.270    885.000    824.424     60.576    506.199    822.601    506.199    507.918    506.199
 64.370    911.000    897.210     13.790    506.300    895.414    506.300    507.974    506.300
 64.470    970.289    961.688      8.601    506.401    959.922    506.401    508.034    506.401
 64.570    969.385   1005.844    -36.459    506.502   1004.118    506.502    508.097    506.502
 64.670   1060.000   1021.034     38.966    506.603   1019.357    506.603    508.163    506.603
 64.770   1040.635   1005.859     34.776    506.704   1004.238    506.704    508.232    506.704
 64.870    993.000    965.724     27.276    506.804    964.161    506.804    508.303    506.804
 64.970    922.000    909.905     12.095    506.905    908.398    506.905    508.377    506.905
 65.070    902.000    848.484     53.516    507.006    847.026    507.006    508.452    507.006
 65.170    751.000    789.572    -38.572    507.107    788.156    507.107    508.530    507.107
 65.270    744.000    737.759      6.241    507.207    736.376    507.207    508.610    507.207
 65.370    714.000    694.393     19.607    507.308    693.034    507.308    508.692    507.308
 65.470    680.647    659.028     21.619    507.408    657.687    507.408    508.775    507.408
 65.570    645.000    630.746     14.254    507.509    629.417    507.509    508.860    507.509
 65.670    639.000    608.636     30.364    507.609    607.316    507.609    508.947    507.609
 65.770    617.000    591.811     25.189    507.709    590.497    507.709    509.035    507.709
 65.870    529.000    579.433    -50.433    507.809    578.124    507.809    509.125    507.809
 65.970    550.000    570.751    -20.751    507.909    569.447    507.909    509.216    507.909
 66.070    522.000    565.100    -43.100    508.009    563.801    508.009    509.309    508.009
 66.170    564.000    561.902      2.098    508.109    560.608    508.109    509.403    508.109
 66.270    558.000    560.674     -2.674    508.208    559.384    508.208    509.498    508.208
 66.370    542.000    561.053    -19.053    508.308    559.766    508.308    509.594    508.308
 66.470    623.000    562.837     60.163    508.407    561.552    508.407    509.692    508.407
 66.570    563.000    566.050     -3.050    508.506    564.764    508.506    509.791    508.506
 66.670    532.000    571.041    -39.041    508.605    569.755    508.605    509.892    508.605
 66.770    543.780    578.692    -34.912    508.704    577.402    508.704    509.994    508.704
 66.870    595.000    590.743      4.257    508.802    589.448    508.802    510.097    508.802
 66.970    613.167    610.278      2.888    508.900    608.975    508.900    510.201    508.900
 67.070    672.000    642.244     29.756    508.998    640.930    508.998    510.307    508.998
 67.170    661.000    693.789    -32.789    509.096    692.461    509.096    510.414    509.096
 67.270    766.273    774.025     -7.752    509.193    772.681    509.193    510.523    509.193
 67.370    839.047    892.771    -53.724    509.291    891.409    509.291    510.633    509.291
 67.470    974.000   1058.020    -84.020    509.388   1056.641    509.388    510.745    509.388
 67.570   1257.000   1272.346    -15.346    509.484   1270.954    509.484    510.858    509.484
 67.670   1558.560   1529.033     29.527    509.581   1527.638    509.581    510.974    509.581
 67.770   1862.868   1809.080     53.788    509.677   1807.693    509.677    511.091    509.677
 67.870   2018.000   2080.144    -62.144    509.773   2078.781    509.773    511.209    509.773
 67.970   2347.000   2298.977     48.023    509.868   2297.652    509.868    511.330    509.868
 68.070   2430.813   2420.504     10.310    509.963   2419.223    509.963    511.454    509.963
 68.170   2503.059   2415.055     88.005    510.058   2413.809    510.058    511.579    510.058
 68.270   2321.000   2284.147     36.853    510.153   2282.908    510.153    511.707    510.153
 68.370   2124.000   2059.524     64.476    510.247   2058.255    510.247    511.838    510.247
 68.470   1771.000   1786.606    -15.606    510.341   1785.275    510.341    511.971    510.341
 68.570   1522.212   1507.904     14.308    510.434   1506.489    510.434    512.108    510.434
 68.670   1300.000   1254.653     45.347    510.528   1253.140    510.528    512.249    510.528
 68.770   1056.000   1044.746     11.254    510.620   1043.131    510.620    512.393    510.620
 68.870    849.000    883.981    -34.981    510.713    882.265    510.713    512.541    510.713
 68.970    783.000    769.182     13.818    510.805    767.369    510.805    512.695    510.805
 69.070    674.000    692.084    -18.084    510.896    690.178    510.896    512.853    510.896
 69.170    670.000    642.853     27.147    510.987    640.856    510.987    513.016    510.987
 69.270    568.995    612.512    -43.518    511.078    610.425    511.078    513.186    511.078
 69.370    622.000    594.091     27.909    511.168    591.909    511.168    513.363    511.168
 69.470    603.000    582.797     20.203    511.258    580.516    511.258    513.548    511.258
 69.570    602.496    575.647     26.849    511.348    573.260    511.348    513.741    511.348
 69.670    530.421    570.929    -40.508    511.437    568.426    511.437    513.944    511.437
 69.770    574.000    567.723      6.277    511.525    565.093    511.525    514.158    511.525
 69.870    572.000    565.556      6.444    511.613    562.787    511.613    514.385    511.613
 69.970    589.000    564.194     24.806    511.701    561.271    511.701    514.625    511.701
 70.070    613.000    563.528     49.472    511.788    560.434    511.788    514.881    511.788
 70.170    536.991    563.523    -26.532    511.874    560.241    511.874    515.156    511.874
 70.270    565.000    564.207      0.793    511.960    560.715    511.960    515.452    511.960
 70.370    597.000    565.690     31.310    512.046    561.962    512.046    515.772    512.046
 70.470    586.000    568.216     17.784    512.131    564.224    512.131    516.120    512.131
 70.570    606.224    572.266     33.958    512.215    567.976    512.215    516.500    512.215
 70.670    565.000    578.721    -13.721    512.299    574.093    512.299    516.919    512.299
 70.770    593.561    589.093      4.468    512.382    584.080    512.382    517.384    512.382
 70.870    584.000    605.793    -21.793    512.465    600.335    512.465    517.905    512.465
 70.970    602.000    632.369    -30.369    512.547    626.393    512.547    518.495    512.547
 71.070    627.000    673.539    -46.539    512.629    666.949    512.629    519.177    512.629
 71.170    746.000    734.862     11.138    512.710    727.525    512.710    519.986    512.710
 71.270    822.000    821.859      0.141    512.790    813.582    512.790    520.982    512.790
 71.370    946.000    938.547      7.453    512.870    929.033    512.870    522.268    512.870
 71.470   1041.000   1085.570    -44.570    512.950   1074.353    512.950    524.018    512.950
 71.570   1210.000   1258.351    -48.351    513.028   1244.690    513.028    526.509    513.028
 71.670   1409.037   1445.764    -36.727    513.106   1428.501    513.106    530.165    513.106
 71.770   1572.652   1629.776    -57.124    513.184   1607.160    513.184    535.582    513.184
 71.870   1740.000   1786.658    -46.658    513.260   1756.168    513.260    543.535    513.260
 71.970   1880.000   1891.091    -11.091    513.337   1849.308    513.337    554.925    513.337
 72.070   1936.000   1924.237     11.763    513.412   1866.835    513.412    570.655    513.412
 72.170   1852.717   1882.630    -29.913    513.487   1804.578    513.487    591.420    513.487
 72.270   1715.687   1780.273    -64.586    513.561   1676.310    513.561    617.442    513.561
 72.370   1636.000   1641.370     -5.370    513.634   1506.765    513.634    648.187    513.634
 72.470   1501.000   1490.493     10.507    513.707   1322.048    513.707    682.119    513.707
 72.570   1335.658   1346.419    -10.761    513.779   1143.623    513.779    716.554    513.779
 72.670   1226.000   1219.913      6.087    513.851    986.090    513.851    747.657    513.851
 72.770   1088.000   1113.935    -25.935    513.921    857.039    513.921    770.802    513.921
 72.870    983.195   1025.741    -42.546    513.991    758.061    513.991    781.657    513.991
 72.970    924.000    950.326    -26.326    514.060    686.474    514.060    777.898    514.060
 73.070    920.224    883.562     36.662    514.129    637.277    514.129    760.400    514.129
 73.170    781.000    823.403    -42.403    514.197    604.847    514.197    732.742    514.197
 73.270    759.545    769.395     -9.850    514.264    584.085    514.264    699.564    514.264
 73.370    634.000    721.815    -87.815    514.330    570.990    514.330    665.148    514.330
 73.470    690.402    681.108      9.293    514.395    562.750    514.395    632.749    514.395
 73.570    618.000    647.570    -29.570    514.460    557.578    514.460    604.450    514.460
 73.670    608.000    621.161    -13.161    514.524    554.437    514.524    581.249    514.524
 73.770    592.000    601.445     -9.445    514.587    552.776    514.587    563.261    514.587
 73.870    527.000    587.646    -60.646    514.649    552.318    514.649    549.986    514.649
 73.970    563.000    578.767    -15.767    514.711    552.896    514.711    540.595    514.711
 74.070    575.000    573.732      1.268    514.772    554.352    514.772    534.169    514.772
 74.170    561.369    571.473    -10.104    514.832    556.466    514.832    529.863    514.832
 74.270    603.196    570.990     32.206    514.891    558.920    514.891    526.991    514.891
 74.370    543.352    571.354    -28.002    514.949    561.291    514.949    525.049    514.949
 74.470    524.273    571.727    -47.454    515.007    563.082    515.007    523.692    515.007
 74.570    606.334    571.412     34.922    515.063    563.818    515.063    522.700    515.063
 74.670    626.000    569.977     56.023    515.119    563.199    515.119    521.941    515.119
 74.770    612.000    567.355     44.645    515.174    561.237    515.174    521.334    515.174
 74.870    624.000    563.824     60.176    515.228    558.256    515.228    520.833    515.228
 74.970    596.077    559.862     36.215    515.281    554.764    515.281    520.412    515.281
 75.070    631.000    556.007     74.993    515.333    551.314    515.333    520.052    515.333
 75.170    620.000    552.772     67.228    515.385    548.434    515.385    519.742    515.385
 75.270    553.000    550.644      2.356    515.435    546.619    515.435    519.474    515.435
 75.370    553.000    550.096      2.904    515.485    546.348    515.485    519.240    515.485
 75.470    534.000    551.620    -17.620    515.534    548.118    515.534    519.036    515.534
 75.570    571.261    555.735     15.525    515.582    552.454    515.582    518.858    515.582
 75.670    580.000    562.967     17.033    515.629    559.883    515.629    518.702    515.629
 75.770    603.000    573.761     29.239    515.675    570.853    515.675    518.565    515.675
 75.870    626.000    588.351     37.649    515.720    585.602    515.720    518.444    515.720
 75.970    646.557    606.589     39.968    515.764    603.981    515.764    518.338    515.764
 76.070    605.342    627.776    -22.435    515.807    625.296    515.807    518.245    515.807
 76.170    669.064    650.556     18.508    515.849    648.192    515.849    518.162    515.849
 76.270    706.874    672.880     33.994    515.891    670.623    515.891    518.089    515.891
 76.370    671.000    692.106    -21.106    515.931    689.948    515.931    518.025    515.931
 76.470    674.706    705.329    -30.623    515.970    703.266    515.970    517.968    515.970
 76.570    692.000    710.110    -18.110    516.009    708.138    516.009    517.918    516.009
 76.670    700.285    705.428     -5.142    516.046    703.542    516.046    517.874    516.046
 76.770    675.661    692.180    -16.519    516.083    690.379    516.083    517.834    516.083
 76.870    666.000    672.735     -6.735    516.118    671.014    516.118    517.800    516.118
 76.970    654.761    649.975      4.786    516.153    648.327    516.153    517.770    516.153
 77.070    644.000    626.550     17.450    516.186    624.971    516.186    517.743    516.186
 77.170    608.000    604.523      3.477    516.219    603.006    516.219    517.719    516.219
 77.270    584.677    585.251     -0.574    516.250    583.792    516.250    517.698    516.250
 77.370    585.322    569.410     15.912    516.281    568.003    516.281    517.680    516.281
 77.470    594.857    557.095     37.761    516.310    555.736    516.310    517.664    516.310
 77.570    504.852    547.991    -43.139    516.338    546.677    516.338    517.650    516.338
 77.670    544.797    541.553      3.244    516.366    540.279    516.366    517.638    516.366
 77.770    562.424    537.164     25.260    516.392    535.927    516.392    517.627    516.392
 77.870    543.000    534.251      8.749    516.417    533.049    516.417    517.618    516.417
 77.970    532.516    532.345      0.171    516.442    531.176    516.442    517.609    516.442
 78.070    499.854    531.097    -31.243    516.465    529.958    516.465    517.602    516.465
 78.170    510.000    530.266    -20.266    516.487    529.157    516.487    517.595    516.487
 78.270    486.531    529.702    -43.171    516.508    528.619    516.508    517.590    516.508
 78.370    524.000    529.313     -5.313    516.528    528.255    516.528    517.585    516.528
 78.470    538.000    529.049      8.951    516.547    528.015    516.547    517.580    516.547
 78.570    552.958    528.867     24.090    516.565    527.855    516.565    517.577    516.565
 78.670    495.988    528.782    -32.794    516.582    527.790    516.582    517.573    516.582
 78.770    562.000    528.832     33.168    516.597    527.858    516.597    517.571    516.597
 78.870    501.000    529.012    -28.012    516.612    528.054    516.612    517.569    516.612
 78.970    570.397    529.342     41.055    516.625    528.399    516.625    517.567    516.625
 79.070    502.000    529.853    -27.853    516.638    528.922    516.638    517.568    516.638
 79.170    534.000    530.575      3.425    516.649    529.653    516.649    517.570    516.649
 79.270    536.000    531.539      4.461    516.659    530.621    516.659    517.574    516.659
 79.370    546.000    532.770     13.230    516.668    531.853    516.668    517.583    516.668
 79.470    509.000    534.295    -25.295    516.676    533.371    516.676    517.596    516.676
 79.570    560.000    536.146     23.854    516.683    535.208    516.683    517.617    516.683
 79.670    494.000    538.371    -44.371    516.689    537.410    516.689    517.645    516.689
 79.770    560.000    541.056     18.944    516.693    540.061    516.693    517.683    516.693
 79.870    526.000    544.343    -18.343    516.697    543.302    516.697    517.732    516.697
 79.970    542.842    548.460     -5.618    516.699    547.362    516.699    517.792    516.699
 80.070    536.000    553.745    -17.745    516.700    552.579    516.700    517.861    516.700
 80.170    526.000    560.647    -34.647    516.700    559.406    516.700    517.938    516.700
 80.270    576.000    569.676      6.324    516.699    568.356    516.699    518.018    516.699
 80.370    575.000    581.304     -6.304    516.697    579.907    516.697    518.095    516.697
 80.470    614.728    595.840     18.889    516.693    594.376    516.693    518.161    516.693
 80.570    636.000    613.316     22.684    516.689    611.805    516.689    518.208    516.689
 80.670    639.000    633.398      5.602    516.683    631.867    516.683    518.227    516.683
 80.770    631.000    655.331    -24.331    516.676    653.812    516.676    518.213    516.676
 80.870    664.000    677.963    -13.963    516.668    676.490    516.668    518.166    516.668
 80.970    700.000    699.869      0.131    516.659    698.469    516.659    518.090    516.659
 81.070    767.296    719.562     47.735    516.648    718.253    516.648    517.995    516.648
 81.170    697.989    735.694    -37.706    516.636    734.487    516.636    517.889    516.636
 81.270    703.419    747.187    -43.768    516.623    746.083    516.623    517.780    516.623
 81.370    769.000    753.314     15.686    516.609    752.308    516.609    517.673    516.609
 81.470    772.000    753.791     18.209    516.594    752.874    516.594    517.573    516.594
 81.570    727.000    748.792    -21.792    516.578    747.952    516.578    517.483    516.578
 81.670    731.144    738.881     -7.737    516.560    738.105    516.560    517.404    516.560
 81.770    762.097    724.966     37.131    516.541    724.242    516.541    517.334    516.541
 81.870    739.000    708.258     30.742    516.521    707.573    516.521    517.274    516.521
 81.970    729.691    690.101     39.590    516.500    689.445    516.500    517.221    516.500
 82.070    623.023    671.695    -48.672    516.477    671.060    516.477    517.175    516.477
 82.170    650.000    653.878     -3.878    516.454    653.258    516.454    517.133    516.454
 82.270    628.000    637.085     -9.085    516.429    636.474    516.429    517.095    516.429
 82.370    578.754    621.469    -42.715    516.403    620.864    516.403    517.058    516.403
 82.470    605.621    607.095     -1.474    516.376    606.493    516.376    517.022    516.376
 82.570    582.499    594.071    -11.572    516.347    593.470    516.347    516.987    516.347
 82.670    561.938    582.571    -20.634    516.317    581.970    516.317    516.952    516.317
 82.770    586.000    572.793     13.207    516.286    572.189    516.286    516.916    516.286
 82.870    553.000    564.910    -11.910    516.254    564.303    516.254    516.880    516.254
 82.970    555.692    559.054     -3.362    516.221    558.443    516.221    516.843    516.221
 83.070    540.000    555.299    -15.299    516.186    554.684    516.186    516.805    516.186
 83.170    533.525    553.647    -20.122    516.150    553.027    516.150    516.767    516.150
 83.270    536.000    554.004    -18.004    516.113    553.378    516.113    516.727    516.113
 83.370    552.000    556.162     -4.162    516.074    555.531    516.074    516.687    516.074
 83.470    553.000    559.787     -6.787    516.035    559.151    516.035    516.646    516.035
 83.570    526.000    564.421    -38.421    515.994    563.779    515.994    516.604    515.994
 83.670    544.000    569.488    -25.488    515.952    568.841    515.952    516.561    515.952
 83.770    559.222    574.325    -15.103    515.908    573.674    515.908    516.517    515.908
 83.870    574.069    578.235     -4.166    515.864    577.581    515.864    516.472    515.864
 83.970    549.000    580.572    -31.572    515.818    579.918    515.818    516.426    515.818
 84.070    554.000    580.884    -26.884    515.771    580.230    515.771    516.379    515.771
 84.170    610.000    579.033     30.967    515.723    578.382    515.723    516.331    515.723
 84.270    544.862    575.239    -30.377    515.673    574.591    515.673    516.282    515.673
 84.370    569.000    569.979     -0.979    515.622    569.336    515.622    516.232    515.622
 84.470    553.000    563.845    -10.845    515.570    563.206    515.570    516.181    515.570
 84.570    565.000    557.413      7.587    515.517    556.778    515.517    516.128    515.517
 84.670    527.000    551.169    -24.169    515.462    550.538    515.462    516.074    515.462
 84.770    541.603    545.477     -3.874    515.406    544.849    515.406    516.019    515.406
 84.870    567.225    540.566     26.659    515.349    539.940    515.349    515.964    515.349
 84.970    537.552    536.538      1.014    515.291    535.913    515.291    515.908    515.291
 85.070    552.920    533.394     19.526    515.231    532.768    515.231    515.851    515.231
 85.170    574.321    531.061     43.261    515.171    530.433    515.171    515.792    515.171
 85.270    514.000    529.425    -15.425    515.109    528.795    515.109    515.733    515.109
 85.370    518.444    528.364     -9.920    515.045    527.732    515.045    515.673    515.045
 85.470    555.630    527.769     27.861    514.981    527.134    514.981    515.611    514.981
 85.570    506.954    527.557    -20.603    514.915    526.918    514.915    515.549    514.915
 85.670    513.000    527.682    -14.682    514.848    527.039    514.848    515.486    514.848
 85.770    492.000    528.142    -36.142    514.779    527.494    514.779    515.421    514.779
 85.870    505.000    528.975    -23.975    514.710    528.321    514.710    515.356    514.710
 85.970    486.576    530.265    -43.688    514.639    529.605    514.639    515.290    514.639
 86.070    510.000    532.136    -22.136    514.567    531.469    514.567    515.222    514.567
 86.170    501.000    534.751    -33.751    514.494    534.075    514.494    515.154    514.494
 86.270    531.000    538.296     -7.296    514.419    537.610    514.419    515.085    514.419
 86.370    520.000    542.962    -22.962    514.343    542.265    514.343    515.014    514.343
 86.470    534.000    548.918    -14.918    514.266    548.207    514.266    514.943    514.266
 86.570    544.284    556.272    -11.988    514.188    555.546    514.188    514.871    514.188
 86.670    567.000    565.033      1.967    514.108    564.290    514.108    514.798    514.108
 86.770    560.000    575.065    -15.065    514.027    574.304    514.027    514.724    514.027
 86.870    544.667    586.058    -41.392    513.945    585.278    513.945    514.649    513.945
 86.970    599.000    597.510      1.490    513.862    596.709    513.862    514.573    513.862
 87.070    611.000    608.716      2.284    513.777    607.897    513.777    514.497    513.777
 87.170    598.090    618.842    -20.752    513.692    618.006    513.692    514.419    513.692
 87.270    622.000    626.963     -4.963    513.605    626.112    513.605    514.341    513.605
 87.370    685.000    632.203     52.797    513.516    631.341    513.516    514.262    513.516
 87.470    678.000    633.961     44.039    513.427    633.093    513.427    514.182    513.427
 87.570    610.000    632.083    -22.083    513.336    631.211    513.336    514.101    513.336
 87.670    679.000    626.904     52.096    513.244    626.032    513.244    514.020    513.244
 87.770    662.000    619.147     42.853    513.151    618.277    513.151    513.938    513.151
 87.870    630.000    609.741     20.259    513.057    608.872    513.057    513.855    513.057
 87.970    584.000    599.662    -15.662    512.961    598.794    512.961    513.772    512.961
 88.070    614.000    589.831     24.169    512.864    588.966    512.864    513.686    512.864
 88.170    545.081    581.049    -35.968    512.766    580.183    512.766    513.600    512.766
 88.270    606.000    573.946     32.054    512.667    573.076    512.667    513.515    512.667
 88.370    631.000    568.955     62.045    512.566    568.080    512.566    513.430    512.566
 88.470    592.000    566.311     25.689    512.465    565.428    512.465    513.344    512.465
 88.570    591.000    566.049     24.951    512.362    565.158    512.362    513.258    512.362
 88.670    652.000    568.020     83.980    512.258    567.119    512.258    513.172    512.258
 88.770    576.000    571.904      4.096    512.152    570.991    512.152    513.085    512.152
 88.870    553.493    577.232    -23.738    512.046    576.307    512.046    512.999    512.046
 88.970    596.390    583.408     12.982    511.938    582.470    511.938    512.912    511.938
 89.070    639.000    589.741     49.259    511.829    588.788    511.829    512.826    511.829
 89.170    594.000    595.481     -1.481    511.719    594.511    511.719    512.739    511.719
 89.270    582.267    599.882    -17.614    511.608    598.893    511.608    512.653    511.608
 89.370    600.000    602.303     -2.303    511.495    601.292    511.495    512.568    511.495
 89.470    623.000    602.334     20.666    511.382    601.296    511.382    512.483    511.382
 89.570    582.686    599.889    -17.202    511.267    598.821    511.267    512.398    511.267
 89.670    570.000    595.219    -25.219    511.151    594.117    511.151    512.315    511.151
 89.770    536.000    588.823    -52.823    511.034    587.682    511.034    512.233    511.034
 89.870    559.143    581.313    -22.170    510.916    580.129    510.916    512.152    510.916
 89.970    602.000    573.300     28.700    510.796    572.069    510.796    512.072    510.796
 90.070    568.000    565.326      2.674    510.676    564.045    510.676    511.995    510.676
 90.170    602.131    557.822     44.309    510.554    556.487    510.554    511.920    510.554
 90.270    545.000    551.095     -6.095    510.431    549.703    510.431    511.848    510.431
 90.370    521.000    545.328    -24.328    510.307    543.876    510.307    511.779    510.307
 90.470    543.000    540.592      2.408    510.182    539.075    510.182    511.713    510.182
 90.570    509.000    536.866    -27.866    510.055    535.280    510.055    511.653    510.055
 90.670    496.000    534.070    -38.070    509.928    532.407    509.928    511.598    509.928
 90.770    519.000    532.085    -13.085    509.800    530.339    509.800    511.550    509.800
 90.870    527.437    530.785     -3.348    509.670    528.946    509.670    511.511    509.670
 90.970    516.000    530.054    -14.054    509.539    528.110    509.539    511.485    509.539
 91.070    473.000    529.803    -56.803    509.407    527.736    509.407    511.475    509.407
 91.170    561.000    529.977     31.023    509.274    527.764    509.274    511.487    509.274
 91.270    527.790    530.560     -2.771    509.140    528.169    509.140    511.530    509.140
 91.370    530.000    531.550     -1.550    509.005    528.936    509.005    511.616    509.005
 91.470    520.640    533.097    -12.456    508.869    530.201    508.869    511.761    508.869
 91.570    527.000    535.322     -8.322    508.732    532.062    508.732    511.986    508.732
 91.670    571.956    538.391     33.565    508.593    534.656    508.593    512.320    508.593
 91.770    534.000    542.522     -8.522    508.454    538.171    508.454    512.796    508.454
 91.870    531.000    547.975    -16.975    508.313    542.822    508.313    513.453    508.313
 91.970    515.518    555.030    -39.512    508.172    548.846    508.172    514.339    508.172
 92.070    539.000    563.954    -24.954    508.029    556.462    508.029    515.500    508.029
 92.170    570.000    574.984     -4.984    507.886    565.858    507.886    516.984    507.886
 92.270    597.000    588.288      8.712    507.741    577.162    507.741    518.835    507.741
 92.370    619.000    603.934     15.066    507.596    590.409    507.596    521.081    507.596
 92.470    658.000    621.854     36.146    507.449    605.521    507.449    523.734    507.449
 92.570    692.060    641.817     50.243    507.301    622.281    507.301    526.783    507.301
 92.670    640.000    663.413    -23.413    507.153    640.322    507.153    530.181    507.153
 92.770    638.667    686.043    -47.376    507.003    659.127    507.003    533.850    507.003
 92.870    690.000    708.941    -18.941    506.852    678.051    506.852    537.668    506.852
 92.970    703.502    731.224    -27.721    506.701    696.372    506.701    541.473    506.701
 93.070    787.489    751.999     35.490    506.548    713.403    506.548    545.062    506.548
 93.170    797.000    770.505     26.495    506.394    728.621    506.394    548.196    506.394
 93.270    762.000    786.248    -24.248    506.240    741.785    506.240    550.620    506.240
 93.370    813.000    799.050     13.950    506.084    752.955    506.084    552.099    506.084
 93.470    805.000    809.009     -4.009    505.928    762.396    505.928    552.463    505.928
 93.570    831.000    816.443     14.557    505.771    770.481    505.771    551.656    505.771
 93.670    814.000    821.828     -7.828    505.612    777.615    505.612    549.752    505.612
 93.770    894.000    825.773     68.227    505.453    784.223    505.453    546.932    505.453
 93.870    818.243    829.011    -10.767    505.293    790.796    505.293    543.439    505.293
 93.970    836.785    832.364      4.421    505.132    797.903    505.132    539.527    505.132
 94.070    823.000    836.634    -13.634    504.970    806.110    504.970    535.430    504.970
 94.170    840.982    842.419     -1.437    504.808    815.818    504.808    531.347    504.808
 94.270    887.000    849.937     37.063    504.644    827.088    504.644    527.434    504.644
 94.370    874.000    858.901     15.099    504.479    839.518    504.479    523.805    504.479
 94.470    821.172    868.494    -47.322    504.314    852.218    504.314    520.536    504.314
 94.570    926.157    877.435     48.722    504.148    863.867    504.148    517.666    504.148
 94.670    917.000    884.121     32.879    503.981    872.853    503.981    515.205    503.981
 94.770    909.000    886.860     22.140    503.813    877.499    503.813    513.137    503.813
 94.870    920.000    884.198     35.802    503.644    876.383    503.644    511.431    503.644
 94.970    843.751    875.260    -31.509    503.475    868.673    503.475    510.043    503.475
 95.070    886.000    859.989     26.011    503.305    854.358    503.305    508.925    503.305
 95.170    838.482    839.165     -0.683    503.134    834.267    503.134    508.029    503.134
 95.270    870.000    814.222     55.778    502.962    809.875    502.962    507.311    502.962
 95.370    830.804    786.970     43.834    502.789    783.034    502.789    506.732    502.789
 95.470    812.000    759.358     52.642    502.616    755.725    502.616    506.258    502.616
 95.570    762.000    733.301     28.699    502.442    729.889    502.442    505.863    502.442
 95.670    733.000    710.565     22.435    502.267    707.312    502.267    505.527    502.267
 95.770    737.298    692.775     44.523    502.091    689.636    502.091    505.234    502.091
 95.870    689.000    681.307      7.693    501.915    678.247    501.915    504.973    501.915
 95.970    657.000    677.329    -20.329    501.738    674.323    501.738    504.736    501.738
 96.070    706.732    681.818     24.915    501.560    678.844    501.560    504.518    501.560
 96.170    716.575    695.559     21.016    501.382    692.601    501.382    504.315    501.382
 96.270    751.650    719.138     32.512    501.203    716.182    501.203    504.123    501.203
 96.370    796.383    752.904     43.479    501.023    749.937    501.023    503.943    501.023
 96.470    797.000    796.888      0.112    500.843    793.899    500.843    503.772    500.843
 96.570    819.000    850.709    -31.709    500.662    847.690    500.662    503.610    500.662
 96.670    978.000    913.466     64.534    500.481    910.407    500.481    503.457    500.481
 96.770    924.000    983.643    -59.643    500.299    980.537    500.299    503.311    500.299
 96.870   1094.000   1059.029     34.971    500.116   1055.870    500.116    503.174    500.116
 96.970   1121.000   1136.708    -15.708    499.932   1133.489    499.932    503.046    499.932
 97.070   1178.000   1213.090    -35.090    499.749   1209.807    499.749    502.925    499.749
 97.170   1342.254   1284.031     58.223    499.564   1280.678    499.564    502.814    499.564
 97.270   1375.000   1345.075     29.925    499.379   1341.648    499.379    502.712    499.379
 97.370   1381.000   1391.881    -10.881    499.194   1388.374    499.194    502.620    499.194
 97.470   1370.000   1420.834    -50.834    499.007   1417.242    499.007    502.538    499.007
 97.570   1473.000   1429.712     43.288    498.821   1426.024    498.821    502.467    498.821
 97.670   1372.302   1418.136    -45.834    498.634   1414.342    498.634    502.409    498.634
 97.770   1411.000   1387.597     23.403    498.446   1383.680    498.446    502.365    498.446
 97.870   1356.000   1341.047     14.953    498.258   1336.990    498.258    502.336    498.258
 97.970   1374.000   1282.318     91.682    498.070   1278.098    498.070    502.325    498.070
 98.070   1221.212   1215.580      5.632    497.881   1211.171    497.881    502.336    497.881
 98.170   1174.000   1144.959     29.041    497.692   1140.331    497.692    502.372    497.692
 98.270   1022.828   1074.292    -51.464    497.502   1069.408    497.502    502.440    497.502
 98.370   1067.000   1006.978     60.022    497.312   1001.794    497.312    502.548    497.312
 98.470    974.701    945.903     28.798    497.121    940.363    497.121    502.710    497.121
 98.570    842.000    893.422    -51.422    496.930    887.453    496.930    502.940    496.930
 98.670    850.000    851.386     -1.386    496.739    844.894    496.739    503.264    496.739
 98.770    801.000    821.199    -20.199    496.548    814.059    496.548    503.711    496.548
 98.870    753.000    803.899    -50.899    496.356    795.944    496.356    504.325    496.356
 98.970    789.000    800.236    -11.236    496.163    791.247    496.163    505.157    496.163
 99.070    805.000    810.741     -5.741    495.971    800.429    495.971    506.277    495.971
 99.170    809.000    835.756    -26.756    495.778    823.751    495.778    507.769    495.778
 99.270    846.000    875.423    -29.423    495.585    861.256    495.585    509.731    495.585
 99.370    892.000    929.684    -37.684    495.392    912.770    495.392    512.280    495.392
 99.470   1016.802    998.142     18.659    495.198    977.770    495.198    515.541    495.198
 99.570   1056.000   1079.980    -23.980    495.004   1055.305    495.004    519.649    495.004
 99.670   1224.559   1173.865     50.694    494.810   1143.912    494.810    524.736    494.810
 99.770   1263.000   1277.846    -14.846    494.616   1241.518    494.616    530.922    494.616
 99.870   1393.454   1389.279      4.175    494.422   1345.388    494.422    538.301    494.422
 99.970   1535.000   1504.809     30.191    494.228   1452.109    494.228    546.930    494.228
100.070   1651.000   1620.433     30.567    494.033   1557.679    494.033    556.807    494.033
100.170   1705.343   1731.698    -26.355    493.838   1657.712    493.838    567.866    493.838
100.270   1880.241   1834.038     46.202    493.643   1747.792    493.643    579.956    493.643
100.370   1865.000   1923.193    -58.193    493.449   1823.898    493.449    592.835    493.449
100.470   2058.595   1995.566     63.030    493.254   1882.769    493.254    606.168    493.254
100.570   2132.000   2048.393     83.607    493.059   1922.075    493.059    619.518    493.059
100.670   2172.000   2079.717     92.283    492.863   1940.387    492.863    632.356    492.863
100.770   2054.000   2088.328    -34.328    492.668   1937.109    492.668    644.068    492.668
100.870   2082.000   2073.856      8.144    492.473   1912.532    492.473    653.991    492.473
100.970   2056.000   2037.019     18.981    492.278   1868.038    492.278    661.461    492.278
101.070   1989.000   1979.910      9.090    492.083   1806.280    492.083    665.917    492.083
101.170   1935.000   1906.011     28.989    491.888   1731.124    491.888    666.977    491.888
101.270   1779.126   1819.917    -40.791    491.693   1647.273    491.693    664.534    491.693
101.370   1791.668   1726.787     64.880    491.499   1559.695    491.499    658.776    491.499
101.470   1660.104   1631.742     28.362    491.304   1473.068    491.304    650.149    491.304
101.570   1580.809   1539.364     41.446    491.109   1391.371    491.109    639.258    491.109
101.670   1434.000   1453.364    -19.364    490.915   1317.647    490.915    626.772    490.915
101.770   1394.000   1376.402     17.598    490.721   1253.911    490.721    613.336    490.721
101.870   1247.000   1310.062    -63.062    490.526   1201.138    490.526    599.561    490.526
101.970   1226.000   1254.832    -28.832    490.333   1159.321    490.333    585.942    490.333
102.070   1207.064   1210.220     -3.156    490.139   1127.563    490.139    572.885    490.139
102.170   1220.523   1174.888     45.635    489.946   1104.216    489.946    560.698    489.946
102.270   1144.833   1146.820     -1.987    489.752   1087.053    489.752    549.596    489.752
102.370   1125.000   1123.557      1.443    489.560   1073.487    489.560    539.704    489.560
102.470   1052.000   1102.466    -50.466    489.367   1060.840    489.367    531.068    489.367
102.570   1069.000   1081.074    -12.074    489.175   1046.654    489.175    523.670    489.175
102.670   1042.601   1057.386    -14.785    488.983   1029.003    488.983    517.443    488.983
102.770   1089.004   1030.130     58.874    488.791   1006.717    488.791    512.283    488.791
102.870    996.230    998.842     -2.611    488.600    979.456    488.600    508.065    488.600
102.970    930.000    963.779    -33.779    488.409    947.612    488.409    504.655    488.409
103.070    973.000    925.719     47.281    488.219    912.095    488.219    501.920    488.219
103.170    958.000    885.739     72.261    488.029    874.104    488.029    499.737    488.029
103.270    847.000    845.024      1.976    487.840    834.936    487.840    497.996    487.840
103.370    795.714    804.732     -9.018    487.651    795.846    487.651    496.600    487.651
103.470    802.000    765.910     36.090    487.462    757.959    487.462    495.470    487.462
103.570    746.000    729.432     16.568    487.275    722.213    487.275    494.544    487.275
103.670    648.384    695.966    -47.582    487.087    689.326    487.087    493.771    487.087
103.770    668.000    665.958      2.042    486.900    659.784    486.900    493.112    486.900
103.870    660.000    639.640     20.360    486.714    633.846    486.714    492.539    486.714
103.970    598.000    617.042    -19.042    486.529    611.565    486.529    492.031    486.529
104.070    589.367    598.035     -8.669    486.344    592.827    486.344    491.572    486.344
104.170    567.269    582.367    -15.098    486.160    577.391    486.160    491.152    486.160
104.270    579.000    569.698      9.302    485.976    564.923    485.976    490.762    485.976
104.370    579.000    559.641     19.359    485.793    555.046    485.793    490.398    485.793
104.470    548.000    551.823     -3.823    485.611    547.387    485.611    490.054    485.611
104.570    574.000    545.873     28.127    485.430    541.579    485.430    489.727    485.430
104.670    516.507    541.457    -24.950    485.249    537.292    485.249    489.417    485.249
104.770    537.000    538.296     -1.296    485.069    534.245    485.069    489.120    485.069
104.870    552.000    536.163     15.837    484.891    532.216    484.891    488.836    484.891
104.970    576.000    534.889     41.111    484.712    531.036    484.712    488.563    484.712
105.070    537.000    534.359      2.641    484.535    530.589    484.535    488.301    484.535
105.170    540.615    534.508      6.107    484.359    530.813    484.359    488.048    484.359
105.270    568.000    535.316     32.684    484.184    531.688    484.184    487.805    484.184
105.370    538.000    536.805      1.195    484.009    533.235    484.009    487.570    484.009
105.470    526.000    539.030    -13.030    483.836    535.512    483.836    487.343    483.836
105.570    575.821    542.076     33.745    483.663    538.604    483.663    487.124    483.663
105.670    557.000    546.045     10.955    483.492    542.611    483.492    486.912    483.492
105.770    546.725    551.043     -4.318    483.321    547.641    483.321    486.706    483.321
105.870    535.062    557.168    -22.106    483.152    553.792    483.152    486.508    483.152
105.970    590.000    564.492     25.508    482.984    561.138    482.984    486.315    482.984
106.070    580.000    573.051      6.949    482.816    569.712    482.816    486.129    482.816
106.170    609.000    582.825     26.175    482.650    579.497    482.650    485.949    482.650
106.270    628.000    593.734     34.266    482.486    590.413    482.486    485.775    482.486
106.370    597.000    605.629     -8.629    482.322    602.309    482.322    485.606    482.322
106.470    588.000    618.285    -30.285    482.160    614.963    482.160    485.443    482.160
106.570    585.290    631.412    -46.122    481.999    628.083    481.999    485.285    481.999
106.670    673.662    644.652     29.010    481.839    641.314    481.839    485.133    481.839
106.770    638.305    657.597    -19.293    481.680    654.246    481.680    484.986    481.680
106.870    629.000    669.807    -40.807    481.523    666.439    481.523    484.844    481.523
106.970    663.000    680.831    -17.831    481.367    677.444    481.367    484.708    481.367
107.070    665.000    690.257    -25.257    481.213    686.847    481.213    484.577    481.213
107.170    669.000    697.755    -28.755    481.060    694.320    481.060    484.451    481.060
107.270    696.000    703.138     -7.138    480.908    699.673    480.908    484.331    480.908
107.370    682.122    706.398    -24.276    480.758    702.901    480.758    484.217    480.758
107.470    704.000    707.720     -3.720    480.609    704.188    480.609    484.108    480.609
107.570    727.021    707.453     19.568    480.462    703.881    480.462    484.004    480.462
107.670    731.376    706.048     25.327    480.316    702.433    480.316    483.907    480.316
107.770    664.000    703.991    -39.991    480.172    700.327    480.172    483.815    480.172
107.870    649.000    701.738    -52.738    480.030    698.022    480.030    483.730    480.030
107.970    686.106    699.675    -13.569    479.889    695.901    479.889    483.651    479.889
108.070    655.297    698.080    -42.783    479.750    694.243    479.750    483.578    479.750
108.170    690.000    697.105     -7.105    479.613    693.201    479.613    483.512    479.613
108.270    696.000    696.775     -0.775    479.477    692.798    479.477    483.453    479.477
108.370    679.000    696.977    -17.977    479.343    692.922    479.343    483.400    479.343
108.470    684.000    697.481    -13.481    479.211    693.342    479.211    483.356    479.211
108.570    742.750    697.950     44.800    479.081    693.721    479.081    483.319    479.081
108.670    663.584    697.981    -34.397    478.953    693.656    478.953    483.289    478.953
108.770    696.418    697.145     -0.727    478.826    692.717    478.826    483.269    478.826
108.870    718.000    695.047     22.953    478.701    690.509    478.701    483.257    478.701
108.970    679.000    691.385    -12.385    478.579    686.728    478.579    483.254    478.579
109.070    679.414    685.995     -6.581    478.458    681.213    478.458    483.260    478.458
109.170    663.000    678.875    -15.875    478.339    673.958    478.339    483.277    478.339
109.270    673.000    670.172      2.828    478.222    665.111    478.222    483.305    478.222
109.370    585.000    660.146    -75.146    478.108    654.932    478.108    483.344    478.108
109.470    723.000    649.131     73.869    477.995    643.753    477.995    483.394    477.995
109.570    597.000    637.491    -40.491    477.884    631.938    477.884    483.458    477.884
109.670    618.000    625.587     -7.587    477.776    619.847    477.776    483.534    477.776
109.770    568.971    613.757    -44.786    477.670    607.818    477.670    483.626    477.670
109.870    608.924    602.282      6.642    477.566    596.131    477.566    483.732    477.566
109.970    627.000    591.447     35.553    477.464    585.069    477.464    483.856    477.464
110.070    611.927    581.475     30.452    477.365    574.854    477.365    483.997    477.365
110.170    582.000    572.495      9.505    477.268    565.614    477.268    484.158    477.268
110.270    531.071    564.602    -33.531    477.173    557.442    477.173    484.341    477.173
110.370    569.000    557.841     11.159    477.081    550.380    477.081    484.547    477.081
110.470    582.620    552.213     30.408    476.991    544.426    476.991    484.781    476.991
110.570    586.253    547.683     38.570    476.903    539.542    476.903    485.047    476.903
110.670    517.342    544.188    -26.846    476.818    535.659    476.818    485.348    476.818
110.770    582.585    541.648     40.937    476.736    532.691    476.736    485.691    476.736
110.870    566.000    539.970     26.030    476.656    530.538    476.656    486.086    476.656
110.970    545.000    539.061      5.939    476.579    529.095    476.579    486.542    476.579
111.070    513.699    538.832    -25.133    476.504    528.258    476.504    487.073    476.504
111.170    508.549    539.202    -30.653    476.432    527.929    476.432    487.699    476.432
111.270    567.000    540.103     26.897    476.362    528.018    476.362    488.441    476.362
111.370    556.000    541.485     14.515    476.296    528.443    476.296    489.330    476.296
111.470    545.000    543.314      1.686    476.232    529.136    476.232    490.402    476.232
111.570    574.000    545.578     28.422    476.171    530.037    476.171    491.703    476.171
111.670    528.825    548.285    -19.461    476.112    531.099    476.112    493.289    476.112
111.770    547.396    551.466     -4.070    476.057    532.284    476.057    495.229    476.057
111.870    550.000    555.176     -5.176    476.004    533.568    476.004    497.602    476.004
111.970    566.000    559.493      6.507    475.955    534.936    475.955    500.501    475.955
112.070    554.000    564.522    -10.522    475.908    536.384    475.908    504.035    475.908
112.170    569.000    570.388     -1.388    475.864    537.917    475.864    508.323    475.864
112.270    572.000    577.238     -5.238    475.824    539.553    475.824    513.497    475.824
112.370    541.551    585.235    -43.685    475.786    541.313    475.786    519.696    475.786
112.470    588.693    594.555     -5.862    475.752    543.228    475.752    527.065    475.752
112.570    640.000    605.377     34.623    475.720    545.338    475.720    535.746    475.720
112.670    647.054    617.887     29.168    475.692    547.688    475.692    545.876    475.692
112.770    621.000    632.262    -11.262    475.667    550.340    475.667    557.573    475.667
112.870    655.000    648.673      6.327    475.646    553.368    475.646    570.934    475.646
112.970    712.000    667.277     44.723    475.627    556.868    475.627    586.017    475.627
113.070    730.916    688.217     42.699    475.612    560.968    475.612    602.841    475.612
113.170    683.406    711.623    -28.217    475.601    565.836    475.601    621.366    475.601
113.270    708.000    737.615    -29.615    475.593    571.690    475.593    641.493    475.593
113.370    765.000    766.313     -1.313    475.588    578.822    475.588    663.051    475.588
113.470    819.000    797.855     21.145    475.587    587.614    475.587    685.796    475.587
113.570    821.000    832.409    -11.409    475.589    598.559    475.589    709.404    475.589
113.670    891.000    870.206     20.794    475.595    612.294    475.595    733.467    475.595
113.770    889.447    911.564    -22.117    475.604    629.621    475.604    757.501    475.604
113.870    950.000    956.922     -6.922    475.617    651.543    475.617    780.943    475.617
113.970   1028.147   1006.881     21.266    475.634    679.291    475.634    803.161    475.634
114.070   1063.000   1062.237      0.763    475.654    714.346    475.654    823.471    475.654
114.170   1100.524   1124.030    -23.506    475.679    758.457    475.679    841.162    475.679
114.270   1140.372   1193.587    -53.215    475.707    813.650    475.707    855.538    475.707
114.370   1293.125   1272.569     20.555    475.739    882.212    475.739    865.970    475.739
114.470   1375.758   1363.001     12.757    475.775    966.660    475.775    871.965    475.775
114.570   1509.159   1467.275     41.884    475.814   1069.686    475.814    873.224    475.814
114.670   1578.296   1588.105     -9.808    475.858   1194.067    475.858    869.682    475.858
114.770   1728.459   1728.419      0.040    475.906   1342.549    475.906    861.524    475.906
114.870   1915.000   1891.185     23.815    475.958   1517.697    475.958    849.150    475.958
114.970   2139.659   2079.183     60.476    476.013   1721.724    476.013    833.129    476.013
115.070   2287.242   2294.741     -7.499    476.073   1956.289    476.073    814.130    476.073
115.170   2593.000   2539.467     53.533    476.138   2222.291    476.138    792.865    476.138
115.270   2848.000   2813.999     34.001    476.206   2519.664    476.206    770.036    476.206
115.370   3207.566   3117.772     89.794    476.279   2847.188    476.279    746.304    476.279
115.470   3448.000   3448.845     -0.845    476.356   3202.322    476.356    722.267    476.356
115.570   3607.000   3803.770   -196.770    476.437   3581.096    476.437    698.452    476.437
115.670   4058.000   4177.529   -119.529    476.523   3978.047    476.523    675.305    476.523
115.770   4587.044   4563.540     23.503    476.613   4386.231    476.613    653.192    476.613
115.870   4704.000   4953.732   -249.732    476.707   4797.293    476.707    632.397    476.707
115.970   5382.736   5338.699     44.037    476.806   5201.624    476.806    613.129    476.806
116.070   5677.764   5707.941    -30.178    476.910   5588.589    476.910    595.522    476.910
116.170   5978.000   6050.189    -72.189    477.018   5946.853    477.018    579.643    477.018
116.270   6437.674   6353.854     83.821    477.131   6264.817    477.131    565.505    477.131
116.370   6652.000   6607.610     44.390    477.249   6531.197    477.249    553.066    477.249
116.470   6775.000   6801.135    -26.135    477.371   6735.745    477.371    542.248    477.371
116.570   7002.000   6925.944     76.056    477.499   6870.083    477.499    532.944    477.499
116.670   7084.000   6976.223    107.777    477.631   6928.523    477.631    525.024    477.631
116.770   6825.456   6949.468   -124.012    477.768   6908.694    477.768    518.349    477.768
116.870   6751.104   6846.784    -95.680    477.909   6811.842    477.909    512.773    477.909
116.970   6640.000   6672.757    -32.757    478.056   6642.689    478.056    508.155    478.056
117.070   6452.000   6434.808     17.192    478.208   6408.788    478.208    504.358    478.208
117.170   6007.191   6142.476   -135.285    478.365   6119.800    478.365    501.257    478.365
117.270   5718.000   5806.563    -88.563    478.527   5786.640    478.527    498.737    478.527
117.370   5357.000   5438.376    -81.376    478.694   5420.713    478.694    496.698    478.694
117.470   4874.000   5049.107   -175.107    478.866   5033.299    478.866    495.054    478.866
117.570   4740.124   4649.363     90.761    479.044   4635.078    479.044    493.730    479.044
117.670   4324.000   4248.814     75.186    479.226   4235.786    479.226    492.664    479.226
117.770   3966.685   3855.945    110.740    479.414   3843.959    479.414    491.807    479.414
117.870   3444.247   3477.890    -33.643    479.608   3466.773    479.608    491.116    479.608
117.970   3333.000   3120.342    212.658    479.807   3109.958    479.807    490.558    479.807
118.070   2876.000   2787.551     88.449    480.011   2777.791    480.011    490.108    480.011
118.170   2546.000   2482.372     63.628    480.221   2473.151    480.221    489.745    480.221
118.270   2226.000   2206.383     19.617    480.437   2197.633    480.437    489.454    480.437
118.370   1961.000   1960.035      0.965    480.658   1951.702    480.658    489.221    480.658
118.470   1738.000   1742.830     -4.830    480.885   1734.871    480.885    489.038    480.885
118.570   1496.000   1553.509    -57.509    481.118   1545.889    481.118    488.898    481.118
118.670   1447.000   1390.245     56.755    481.356   1382.936    481.356    488.794    481.356
118.770   1246.000   1250.823     -4.823    481.600   1243.801    481.600    488.723    481.600
118.870   1058.000   1132.804    -74.804    481.850   1126.051    481.850    488.682    481.850
118.970    983.000   1033.674    -50.674    482.106   1027.172    482.106    488.668    482.106
119.070    914.000    950.957    -36.957    482.368    944.689    482.368    488.678    482.368
119.170    841.286    882.303    -41.017    482.636    876.257    482.636    488.712    482.636
119.270    874.000    825.555     48.445    482.910    819.718    482.910    488.767    482.910
119.370    829.000    778.781     50.219    483.190    773.140    483.190    488.844    483.190
119.470    722.000    740.292    -18.292    483.477    734.834    483.477    488.942    483.477
119.570    686.682    708.637    -21.955    483.769    703.353    483.769    489.057    483.769
119.670    651.000    682.599    -31.599    484.068    677.476    484.068    489.193    484.068
119.770    626.000    661.166    -35.166    484.373    656.190    484.373    489.350    484.373
119.870    692.477    643.510     48.967    484.685    638.669    484.685    489.526    484.685
119.970    599.000    628.960    -29.960    485.003    624.240    485.003    489.722    485.003
120.070    574.468    616.980    -42.512    485.327    612.369    485.327    489.939    485.327
120.170    587.218    607.144    -19.927    485.658    602.626    485.658    490.176    485.658
120.270    590.000    599.115     -9.115    485.995    594.676    485.995    490.435    485.995
120.370    588.000    592.628     -4.628    486.340    588.253    486.340    490.716    486.340
120.470    543.000    587.479    -44.479    486.691    583.149    486.691    491.022    486.691
120.570    587.000    583.505      3.495    487.048    579.204    487.048    491.352    487.048
120.670    580.797    580.583      0.213    487.413    576.290    487.413    491.708    487.413
120.770    559.075    578.616    -19.541    487.784    574.311    487.784    492.092    487.784
120.870    586.000    577.527      8.473    488.162    573.188    488.162    492.505    488.162
120.970    566.000    577.256    -11.256    488.547    572.860    488.547    492.949    488.547
121.070    594.000    577.752     16.248    488.939    573.274    488.939    493.424    488.939
121.170    566.000    578.970    -12.970    489.339    574.385    489.339    493.931    489.339
121.270    551.000    580.867    -29.867    489.745    576.149    489.745    494.473    489.745
121.370    610.081    583.399     26.682    490.158    578.521    490.158    495.048    490.158
121.470    593.693    586.517      7.176    490.579    581.452    490.579    495.657    490.579
121.570    581.000    590.167     -9.167    491.007    584.889    491.007    496.300    491.007
121.670    600.307    594.285      6.022    491.443    588.769    491.443    496.976    491.443
121.770    601.000    598.799      2.201    491.885    593.021    491.885    497.682    491.885
121.870    598.000    603.627     -5.627    492.336    597.566    492.336    498.418    492.336
121.970    615.176    608.677      6.500    492.793    602.314    492.793    499.180    492.793
122.070    608.000    613.846     -5.846    493.259    607.167    493.259    499.964    493.259
122.170    651.000    619.023     31.977    493.732    612.018    493.732    500.766    493.732
122.270    596.000    624.091    -28.091    494.212    616.755    494.212    501.581    494.212
122.370    616.000    628.927    -12.927    494.701    621.261    494.701    502.403    494.701
122.470    620.000    633.409    -13.409    495.197    625.420    495.197    503.224    495.197
122.570    639.877    637.413      2.463    495.701    629.120    495.701    504.035    495.701
122.670    636.000    640.837     -4.837    496.213    632.260    496.213    504.833    496.213
122.770    645.000    643.586      1.414    496.733    634.753    496.733    505.610    496.733
122.870    635.940    645.587     -9.647    497.261    636.537    497.261    506.357    497.261
122.970    645.000    646.797     -1.797    497.797    637.575    497.797    507.065    497.797
123.070    622.000    647.200    -25.200    498.341    637.860    498.341    507.728    498.341
123.170    683.000    646.812     36.188    498.893    637.412    498.893    508.340    498.893
123.270    673.735    645.675     28.060    499.454    636.276    499.454    508.899    499.454
123.370    687.000    643.851     43.149    500.023    634.517    500.023    509.402    500.023
123.470    665.000    641.419     23.581    500.600    632.212    500.600    509.850    500.600
123.570    617.000    638.470    -21.470    501.186    629.449    501.186    510.248    501.186
123.670    616.000    635.096    -19.096    501.780    626.316    501.780    510.599    501.780
123.770    648.000    631.395     16.605    502.383    622.902    502.383    510.911    502.383
123.870    624.000    627.456     -3.456    502.994    619.292    502.994    511.192    502.994
123.970    679.000    623.367     55.633    503.614    615.563    503.614    511.448    503.614
124.070    634.000    619.204     14.796    504.243    611.786    504.243    511.689    504.243
124.170    634.459    615.034     19.425    504.881    608.018    504.881    511.921    504.881
124.270    606.350    610.912     -4.561    505.528    604.307    505.528    512.153    505.528
124.370    613.000    606.878      6.122    506.183    600.689    506.183    512.391    506.183
124.470    595.000    602.965     -7.965    506.847    597.187    506.847    512.640    506.847
124.570    600.000    599.189      0.811    507.521    593.816    507.521    512.907    507.521
124.670    621.000    595.560     25.440    508.204    590.580    508.204    513.195    508.204
124.770    630.897    592.080     38.817    508.895    587.476    508.895    513.508    508.895
124.870    543.000    588.744    -45.744    509.597    584.497    509.597    513.851    509.597
124.970    574.000    585.544    -11.544    510.307    581.633    510.307    514.223    510.307
