neutron_powder_diffraction_0111
R_wp: 3.834
Temperature (K): 941.996
Counts: 83586.00
Wavelength (Ã…): 2.52098
COMMENTS
Test file for demonstrating the .xyy file format in Reel1.0
END OF HEADER
   tth       Y_obs     Y_calc      Y_res    Background    Phase_1_Nuc    Phase_1_Mag    Phase_2_Nuc    Phase_2_Mag
  9.970    508.061    555.801    -47.740    554.673    555.680    554.673    554.794    554.673
 10.070    591.000    556.198     34.802    554.984    556.076    554.984    555.106    554.984
 10.170    577.548    556.599     20.948    555.287    556.477    555.287    555.409    555.287
 10.270    583.000    557.006     25.994    555.581    556.883    555.581    555.703    555.581
 10.370    572.000    557.423     14.577    555.866    557.299    555.866    555.989    555.866
 10.470    556.646    557.853     -1.207    556.143    557.729    556.143    556.267    556.143
 10.570    586.219    558.303     27.916    556.412    558.178    556.412    556.536    556.412
 10.670    616.000    558.778     57.222    556.673    558.653    556.673    556.797    556.673
 10.770    563.000    559.293      3.707    556.925    559.167    556.925    557.050    556.925
 10.870    564.000    559.852      4.148    557.169    559.724    557.169    557.295    557.169
 10.970    552.000    560.474     -8.474    557.406    560.346    557.406    557.532    557.406
 11.070    601.000    561.186     39.814    557.634    561.057    557.634    557.761    557.634
 11.170    575.677    562.021     13.655    557.855    561.892    557.855    557.982    557.855
 11.270    530.330    563.037    -32.707    558.067    562.907    558.067    558.195    558.067
 11.370    548.000    564.332    -16.332    558.272    564.201    558.272    558.401    558.272
 11.470    622.000    566.122     55.878    558.469    565.989    558.469    558.598    558.469
 11.570    593.000    568.914     24.086    558.659    568.779    558.659    558.789    558.659
 11.670    595.403    573.836     21.566    558.841    573.698    558.841    558.971    558.841
 11.770    602.000    582.967     19.033    559.016    582.824    559.016    559.146    559.016
 11.870    561.796    599.077    -37.281    559.183    598.924    559.183    559.314    559.183
 11.970    685.000    624.001     60.999    559.343    623.834    559.343    559.474    559.343
 12.070    636.004    655.336    -19.332    559.495    655.151    559.495    559.628    559.495
 12.170    686.000    682.704      3.296    559.640    682.504    559.640    559.774    559.640
 12.270    739.725    690.082     49.644    559.779    689.877    559.779    559.912    559.779
 12.370    710.476    671.549     38.926    559.910    671.354    559.910    560.044    559.910
 12.470    654.000    640.304     13.696    560.034    640.126    560.034    560.169    560.034
 12.570    589.687    611.435    -21.749    560.151    611.272    560.151    560.287    560.151
 12.670    629.708    591.113     38.595    560.261    590.960    560.261    560.397    560.261
 12.770    525.000    579.086    -54.086    560.365    578.939    560.365    560.502    560.365
 12.870    507.000    572.682    -65.682    560.462    572.539    560.462    560.599    560.462
 12.970    526.000    569.330    -43.330    560.552    569.187    560.552    560.690    560.552
 13.070    588.000    567.431     20.569    560.635    567.289    560.635    560.774    560.635
 13.170    593.000    566.219     26.781    560.712    566.077    560.712    560.851    560.712
 13.270    567.000    565.367      1.633    560.782    565.224    560.782    560.922    560.782
 13.370    573.000    564.735      8.265    560.846    564.593    560.846    560.987    560.846
 13.470    540.000    564.253    -24.253    560.904    564.110    560.904    561.045    560.904
 13.570    563.000    563.878     -0.878    560.955    563.734    560.955    561.097    560.955
 13.670    600.824    563.580     37.244    561.000    563.436    561.000    561.143    561.000
 13.770    592.158    563.339     28.820    561.039    563.194    561.039    561.182    561.039
 13.870    560.000    563.141     -3.141    561.072    562.996    561.072    561.216    561.072
 13.970    519.000    562.975    -43.975    561.098    562.830    561.098    561.243    561.098
 14.070    539.000    562.834    -23.834    561.119    562.688    561.119    561.264    561.119
 14.170    605.934    562.711     43.223    561.134    562.564    561.134    561.280    561.134
 14.270    553.385    562.603     -9.218    561.143    562.455    561.143    561.289    561.143
 14.370    547.123    562.505    -15.382    561.146    562.356    561.146    561.293    561.146
 14.470    555.000    562.415     -7.415    561.143    562.266    561.143    561.291    561.143
 14.570    564.000    562.332      1.668    561.134    562.182    561.134    561.284    561.134
 14.670    588.000    562.251     25.749    561.120    562.101    561.120    561.270    561.120
 14.770    533.000    562.173    -29.173    561.101    562.021    561.101    561.251    561.101
 14.870    568.000    562.096      5.904    561.076    561.944    561.076    561.227    561.076
 14.970    528.000    562.019    -34.019    561.045    561.866    561.045    561.197    561.045
 15.070    552.908    561.942     -9.035    561.009    561.789    561.009    561.162    561.009
 15.170    559.000    561.865     -2.865    560.967    561.710    560.967    561.121    560.967
 15.270    548.000    561.786    -13.786    560.921    561.631    560.921    561.076    560.921
 15.370    551.000    561.705    -10.705    560.869    561.549    560.869    561.025    560.869
 15.470    598.332    561.623     36.709    560.812    561.467    560.812    560.968    560.812
 15.570    581.253    561.555     19.698    560.750    561.398    560.750    560.907    560.750
 15.670    543.168    561.477    -18.309    560.682    561.319    560.682    560.841    560.682
 15.770    514.929    561.387    -46.458    560.610    561.228    560.610    560.769    560.610
 15.870    521.000    561.293    -40.293    560.533    561.133    560.533    560.693    560.533
 15.970    544.000    561.196    -17.196    560.451    561.035    560.451    560.612    560.451
 16.070    556.000    561.096     -5.096    560.364    560.934    560.364    560.526    560.364
 16.170    544.666    560.995    -16.329    560.272    560.832    560.272    560.435    560.272
 16.270    538.000    560.890    -22.890    560.176    560.726    560.176    560.339    560.176
 16.370    555.000    560.779     -5.779    560.075    560.615    560.075    560.239    560.075
 16.470    526.599    560.674    -34.074    559.969    560.508    559.969    560.134    559.969
 16.570    582.000    560.641     21.359    559.859    560.474    559.859    560.025    559.859
 16.670    538.351    560.557    -22.206    559.744    560.389    559.744    559.911    559.744
 16.770    541.000    560.435    -19.435    559.624    560.266    559.624    559.793    559.624
 16.870    529.000    560.307    -31.307    559.501    560.137    559.501    559.670    559.501
 16.970    523.000    560.175    -37.175    559.373    560.004    559.373    559.543    559.373
 17.070    564.000    560.039      3.961    559.240    559.868    559.240    559.412    559.240
 17.170    541.000    559.900    -18.900    559.104    559.727    559.104    559.277    559.104
 17.270    583.188    559.758     23.430    558.963    559.584    558.963    559.137    558.963
 17.370    550.290    559.611     -9.322    558.818    559.436    558.818    558.993    558.818
 17.470    584.827    559.462     25.365    558.669    559.285    558.669    558.845    558.669
 17.570    546.000    559.308    -13.308    558.516    559.131    558.516    558.693    558.516
 17.670    582.557    559.152     23.405    558.359    558.973    558.359    558.538    558.359
 17.770    546.000    558.992    -12.992    558.198    558.812    558.198    558.378    558.198
 17.870    525.827    558.830    -33.003    558.033    558.649    558.033    558.214    558.033
 17.970    529.000    558.668    -29.668    557.864    558.486    557.864    558.047    557.864
 18.070    590.982    558.498     32.483    557.692    558.315    557.692    557.875    557.692
 18.170    544.000    558.325    -14.325    557.516    558.140    557.516    557.700    557.516
 18.270    535.000    558.148    -23.148    557.336    557.962    557.336    557.522    557.336
 18.370    534.000    557.968    -23.968    557.152    557.781    557.152    557.340    557.152
 18.470    529.000    557.785    -28.785    556.965    557.596    556.965    557.154    556.965
 18.570    566.000    557.598      8.402    556.774    557.408    556.774    556.964    556.774
 18.670    540.000    557.409    -17.409    556.580    557.218    556.580    556.772    556.580
 18.770    553.000    557.217     -4.217    556.383    557.024    556.383    556.575    556.383
 18.870    529.211    557.021    -27.811    556.182    556.827    556.182    556.376    556.182
 18.970    515.846    556.830    -40.984    555.977    556.635    555.977    556.173    555.977
 19.070    552.463    556.697     -4.233    555.769    556.499    555.769    555.967    555.769
 19.170    534.000    556.502    -22.502    555.559    556.303    555.559    555.757    555.559
 19.270    538.000    556.296    -18.296    555.344    556.096    555.344    555.545    555.344
 19.370    535.000    556.087    -21.087    555.127    555.885    555.127    555.329    555.127
 19.470    559.000    555.876      3.124    554.907    555.672    554.907    555.110    554.907
 19.570    538.898    555.662    -16.764    554.683    555.456    554.683    554.888    554.683
 19.670    550.000    555.445     -5.445    554.457    555.238    554.457    554.663    554.457
 19.770    548.000    555.226     -7.226    554.227    555.018    554.227    554.436    554.227
 19.870    548.315    555.005     -6.690    553.995    554.795    553.995    554.205    553.995
 19.970    550.944    554.783     -3.839    553.759    554.571    553.759    553.972    553.759
 20.070    567.000    554.558     12.442    553.521    554.344    553.521    553.735    553.521
 20.170    543.000    554.330    -11.330    553.280    554.114    553.280    553.496    553.280
 20.270    560.000    554.100      5.900    553.036    553.883    553.036    553.254    553.036
 20.370    515.000    553.872    -38.872    552.790    553.653    552.790    553.010    552.790
 20.470    557.000    553.678      3.322    552.541    553.456    552.541    552.763    552.541
 20.570    512.000    553.466    -41.466    552.289    553.242    552.289    552.513    552.289
 20.670    548.079    553.260     -5.181    552.035    553.034    552.035    552.261    552.035
 20.770    537.275    553.034    -15.759    551.778    552.806    551.778    552.006    551.778
 20.870    552.000    552.797     -0.797    551.519    552.567    551.519    551.749    551.519
 20.970    551.000    552.556     -1.556    551.257    552.324    551.257    551.490    551.257
 21.070    588.943    552.315     36.629    550.993    552.080    550.993    551.228    550.993
 21.170    559.000    552.072      6.928    550.726    551.835    550.726    550.964    550.726
 21.270    507.290    551.829    -44.540    550.457    551.589    550.457    550.697    550.457
 21.370    543.000    551.585     -8.585    550.186    551.342    550.186    550.429    550.186
 21.470    564.427    551.340     13.087    549.912    551.095    549.912    550.158    549.912
 21.570    530.000    551.095    -21.095    549.637    550.848    549.637    549.885    549.637
 21.670    511.649    550.850    -39.202    549.359    550.600    549.359    549.610    549.359
 21.770    531.000    550.606    -19.606    549.079    550.353    549.079    549.333    549.079
 21.870    542.631    550.364     -7.733    548.797    550.108    548.797    549.054    548.797
 21.970    588.000    550.143     37.857    548.513    549.883    548.513    548.773    548.513
 22.070    551.475    549.910      1.565    548.227    549.647    548.227    548.490    548.227
 22.170    506.000    549.676    -43.676    547.939    549.411    547.939    548.205    547.939
 22.270    524.259    549.468    -25.208    547.649    549.199    547.649    547.918    547.649
 22.370    591.000    549.269     41.731    547.357    548.996    547.357    547.630    547.357
 22.470    502.450    549.068    -46.618    547.063    548.792    547.063    547.340    547.063
 22.570    601.000    548.847     52.153    546.768    548.567    546.768    547.048    546.768
 22.670    578.000    548.632     29.368    546.471    548.349    546.471    546.754    546.471
 22.770    540.000    548.444     -8.444    546.172    548.157    546.172    546.459    546.172
 22.870    538.019    548.269    -10.250    545.871    547.978    545.871    546.163    545.871
 22.970    541.000    548.119     -7.119    545.569    547.823    545.569    545.865    545.569
 23.070    585.511    547.949     37.562    545.265    547.649    545.265    545.565    545.265
 23.170    579.627    547.794     31.833    544.959    547.490    544.959    545.264    544.959
 23.270    507.000    547.663    -40.663    544.652    547.355    544.652    544.962    544.652
 23.370    549.208    547.567      1.641    544.343    547.253    544.343    544.658    544.343
 23.470    537.000    547.517    -10.517    544.033    547.198    544.033    544.353    544.033
 23.570    567.000    547.513     19.487    543.722    547.189    543.722    544.047    543.722
 23.670    530.000    547.571    -17.571    543.409    547.241    543.409    543.740    543.409
 23.770    558.137    547.720     10.416    543.095    547.385    543.095    543.431    543.095
 23.870    575.710    547.999     27.711    542.779    547.658    542.779    543.122    542.779
 23.970    547.000    548.483     -1.483    542.462    548.137    542.462    542.811    542.462
 24.070    564.000    549.324     14.676    542.144    548.972    542.144    542.500    542.144
 24.170    555.000    550.881      4.119    541.825    550.523    541.825    542.187    541.825
 24.270    547.446    553.913     -6.466    541.504    553.550    541.504    541.874    541.504
 24.370    612.000    559.760     52.240    541.182    559.395    541.182    541.560    541.182
 24.470    553.000    570.126    -17.126    540.860    569.760    540.860    541.245    540.860
 24.570    590.000    586.060      3.940    540.536    585.697    540.536    540.930    540.536
 24.670    569.000    606.006    -37.006    540.211    605.650    540.211    540.614    540.211
 24.770    630.000    623.606      6.394    539.885    623.253    539.885    540.297    539.885
 24.870    599.000    628.805    -29.805    539.558    628.446    539.558    539.980    539.558
 24.970    663.000    617.319     45.681    539.230    616.942    539.230    539.662    539.230
 25.070    612.000    596.979     15.021    538.901    596.576    538.901    539.344    538.901
 25.170    546.000    577.471    -31.471    538.571    577.043    538.571    539.026    538.571
 25.270    591.000    563.150     27.850    538.240    562.699    538.240    538.708    538.240
 25.370    573.000    554.237     18.763    537.909    553.766    537.909    538.390    537.909
 25.470    548.000    549.208     -1.208    537.577    548.719    537.577    538.071    537.577
 25.570    588.924    546.408     42.516    537.244    545.903    537.244    537.753    537.244
 25.670    540.000    544.722     -4.722    536.910    544.200    536.910    537.435    536.910
 25.770    564.629    543.576     21.053    536.576    543.036    536.576    537.118    536.576
 25.870    542.000    542.718     -0.718    536.241    542.160    536.241    536.801    536.241
 25.970    578.000    542.041     35.959    535.905    541.463    535.905    536.484    535.905
 26.070    580.000    541.493     38.507    535.569    540.894    535.569    536.169    535.569
 26.170    546.000    541.046      4.954    535.232    540.425    535.232    535.854    535.232
 26.270    567.000    540.682     26.318    534.894    540.036    534.894    535.541    534.894
 26.370    560.547    540.391     20.156    534.556    539.719    534.556    535.229    534.556
 26.470    583.529    540.169     43.360    534.218    539.469    534.218    534.918    534.218
 26.570    570.000    540.016     29.984    533.879    539.286    533.879    534.610    533.879
 26.670    555.000    539.934     15.066    533.540    539.170    533.540    534.303    533.540
 26.770    574.000    539.930     34.070    533.200    539.130    533.200    534.000    533.200
 26.870    563.282    540.017     23.265    532.860    539.178    532.860    533.699    532.860
 26.970    584.854    540.214     44.640    532.519    539.332    532.519    533.402    532.519
 27.070    580.000    540.548     39.452    532.178    539.617    532.178    533.108    532.178
 27.170    563.000    541.056     21.944    531.837    540.074    531.837    532.819    531.837
 27.270    564.000    541.799     22.201    531.496    540.758    531.496    532.536    531.496
 27.370    525.000    542.863    -17.863    531.155    541.758    531.155    532.258    531.155
 27.470    561.128    544.415     16.713    530.813    543.238    530.813    531.988    530.813
 27.570    553.000    546.876      6.124    530.471    545.618    530.471    531.726    530.471
 27.670    574.000    551.589     22.411    530.129    550.239    530.129    531.474    530.129
 27.770    567.000    562.596      4.404    529.787    561.142    529.787    531.233    529.787
 27.870    568.000    589.209    -21.209    529.444    587.631    529.444    531.005    529.444
 27.970    618.000    645.314    -27.314    529.102    643.588    529.102    530.792    529.102
 28.070    772.000    738.453     33.547    528.760    736.553    528.760    530.597    528.760
 28.170    845.448    849.789     -4.340    528.417    847.698    528.417    530.422    528.417
 28.270    914.478    925.163    -10.685    528.075    922.880    528.075    530.271    528.075
 28.370    926.000    914.081     11.919    527.732    911.606    527.732    530.146    527.732
 28.470    853.000    833.364     19.636    527.390    830.671    527.390    530.052    527.390
 28.570    797.978    748.457     49.521    527.048    745.499    527.048    529.991    527.048
 28.670    761.000    710.480     50.520    526.706    707.205    526.706    529.968    526.706
 28.770    726.000    729.939     -3.939    526.364    726.301    526.364    529.984    526.364
 28.870    755.000    781.932    -26.932    526.022    777.892    526.022    530.042    526.022
 28.970    819.954    819.791      0.164    525.680    815.320    525.680    530.139    525.680
 29.070    784.000    805.119    -21.119    525.339    800.190    525.339    530.271    525.339
 29.170    782.815    743.907     38.908    524.997    738.492    524.997    530.425    524.997
 29.270    666.000    671.128     -5.128    524.657    665.216    524.657    530.581    524.657
 29.370    572.000    613.470    -41.470    524.316    607.083    524.316    530.712    524.316
 29.470    575.000    577.995     -2.995    523.975    571.196    523.975    530.780    523.975
 29.570    603.000    559.685     43.315    523.635    552.577    523.635    530.746    523.635
 29.670    531.933    550.947    -19.013    523.296    543.668    523.296    530.576    523.296
 29.770    603.000    546.477     56.523    522.956    539.186    522.956    530.247    522.956
 29.870    530.396    543.713    -13.317    522.617    536.571    522.617    529.760    522.617
 29.970    579.000    541.691     37.309    522.279    534.837    522.279    529.132    522.279
 30.070    569.494    540.111     29.383    521.941    533.653    521.941    528.398    521.941
 30.170    586.467    538.929     47.538    521.603    532.934    521.603    527.597    521.603
 30.270    588.000    538.271     49.729    521.266    532.768    521.266    526.767    521.266
 30.370    548.000    538.537      9.463    520.929    533.526    520.929    525.937    520.929
 30.470    527.413    540.611    -13.198    520.593    536.072    520.593    525.127    520.593
 30.570    570.334    545.931     24.403    520.258    541.827    520.258    524.351    520.258
 30.670    544.000    555.979    -11.979    519.923    552.268    519.923    523.615    519.923
 30.770    597.000    570.891     26.109    519.588    567.530    519.588    522.921    519.588
 30.870    606.000    587.515     18.485    519.254    584.463    519.254    522.266    519.254
 30.970    603.000    598.509      4.491    518.921    595.735    518.921    521.651    518.921
 31.070    560.312    596.695    -36.383    518.588    594.174    518.588    521.069    518.588
 31.170    556.000    582.932    -26.932    518.257    580.638    518.257    520.520    518.257
 31.270    542.480    564.895    -22.415    517.925    562.803    517.925    519.998    517.925
 31.370    583.000    549.275     33.725    517.595    547.358    517.595    519.500    517.595
 31.470    551.000    538.582     12.418    517.265    536.817    517.265    519.024    517.265
 31.570    520.000    532.348    -12.348    516.936    530.714    516.936    518.566    516.936
 31.670    515.000    529.030    -14.030    516.608    527.510    516.608    518.125    516.608
 31.770    544.000    527.257     16.743    516.280    525.838    516.280    517.698    516.280
 31.870    564.000    526.221     37.779    515.954    524.890    515.954    517.284    515.954
 31.970    537.000    525.551     11.449    515.628    524.298    515.628    516.880    515.628
 32.070    575.000    525.102     49.898    515.303    523.918    515.303    516.485    515.303
 32.170    530.000    524.820      5.180    514.979    523.699    514.979    516.099    514.979
 32.270    561.094    524.688     36.406    514.655    523.622    514.655    515.721    514.655
 32.370    567.203    524.702     42.501    514.333    523.685    514.333    515.349    514.333
 32.470    547.000    524.871     22.129    514.011    523.899    514.011    514.982    514.011
 32.570    550.000    525.214     24.786    513.691    524.282    513.691    514.621    513.691
 32.670    539.000    525.761     13.239    513.371    524.866    513.371    514.265    513.371
 32.770    527.000    526.556      0.444    513.052    525.695    513.052    513.913    513.052
 32.870    557.128    527.668     29.460    512.735    526.836    512.735    513.566    512.735
 32.970    536.581    529.192      7.389    512.418    528.388    512.418    513.221    512.418
 33.070    549.000    531.286     17.714    512.102    530.506    512.102    512.881    512.102
 33.170    563.000    534.237     28.763    511.788    533.480    511.788    512.543    511.788
 33.270    545.000    538.673      6.327    511.474    537.937    511.474    512.209    511.474
 33.370    511.000    546.072    -35.072    511.161    545.353    511.161    511.877    511.161
 33.470    551.391    559.696     -8.306    510.850    558.993    510.850    511.548    510.850
 33.570    626.000    585.645     40.355    510.539    584.953    510.539    511.221    510.539
 33.670    673.000    632.688     40.312    510.230    632.004    510.230    510.897    510.230
 33.770    732.587    708.867     23.720    509.922    708.186    509.922    510.576    509.922
 33.870    855.362    813.901     41.461    509.615    813.223    509.615    510.256    509.615
 33.970    957.000    929.112     27.888    509.309    928.442    509.309    509.939    509.309
 34.070    970.500   1012.193    -41.693    509.004   1011.542    509.004    509.623    509.004
 34.170   1047.254   1017.651     29.603    508.701   1017.029    508.701    509.310    508.701
 34.270    961.000    941.490     19.510    508.398    940.892    508.398    508.999    508.398
 34.370    796.000    826.569    -30.569    508.097    825.986    508.097    508.690    508.097
 34.470    715.754    717.947     -2.192    507.797    717.371    507.797    508.382    507.797
 34.570    605.937    637.213    -31.276    507.499    636.642    507.499    508.077    507.499
 34.670    625.329    586.311     39.018    507.201    585.742    507.201    507.773    507.201
 34.770    564.122    557.677      6.445    506.905    557.113    506.905    507.471    506.905
 34.870    559.177    542.322     16.856    506.610    541.761    506.610    507.171    506.610
 34.970    551.000    533.745     17.255    506.316    533.189    506.316    506.873    506.316
 35.070    518.000    528.388    -10.388    506.024    527.836    506.024    506.576    506.024
 35.170    523.000    524.619     -1.619    505.733    524.071    505.733    506.281    505.733
 35.270    538.247    521.748     16.500    505.443    521.203    505.443    505.988    505.443
 35.370    502.000    519.459    -17.459    505.155    518.917    505.155    505.697    505.155
 35.470    495.000    517.586    -22.586    504.868    517.047    504.868    505.407    504.868
 35.570    504.522    516.023    -11.501    504.582    515.487    504.582    505.119    504.582
 35.670    492.000    514.697    -22.697    504.298    514.163    504.298    504.832    504.298
 35.770    506.000    513.557     -7.557    504.015    513.024    504.015    504.548    504.015
 35.870    522.000    512.563      9.437    503.733    512.032    503.733    504.265    503.733
 35.970    510.000    511.689     -1.689    503.453    511.159    503.453    503.983    503.453
 36.070    535.348    510.912     24.436    503.175    510.383    503.175    503.704    503.175
 36.170    528.000    510.217     17.783    502.897    509.689    502.897    503.426    502.897
 36.270    509.000    509.592     -0.592    502.622    509.064    502.622    503.150    502.622
 36.370    508.000    509.028     -1.028    502.347    508.500    502.347    502.875    502.347
 36.470    497.000    508.519    -11.519    502.074    507.991    502.074    502.602    502.074
 36.570    518.000    508.062      9.938    501.803    507.534    501.803    502.331    501.803
 36.670    481.800    507.656    -25.856    501.533    507.128    501.533    502.061    501.533
 36.770    460.000    507.307    -47.307    501.265    506.778    501.265    501.794    501.265
 36.870    515.000    507.029      7.971    500.998    506.499    500.998    501.528    500.998
 36.970    534.390    506.859     27.531    500.732    506.329    500.732    501.263    500.732
 37.070    468.000    506.879    -38.879    500.468    506.347    500.468    501.000    500.468
 37.170    533.000    507.232     25.768    500.206    506.699    500.206    500.739    500.206
 37.270    492.967    508.128    -15.161    499.945    507.594    499.945    500.480    499.945
 37.370    533.000    509.779     23.221    499.686    509.244    499.686    500.223    499.686
 37.470    534.000    512.267     21.733    499.428    511.730    499.428    499.967    499.428
 37.570    522.000    515.339      6.661    499.172    514.802    499.172    499.713    499.172
 37.670    488.000    518.202    -30.202    498.917    517.664    498.917    499.460    498.917
 37.770    494.000    519.567    -25.567    498.664    519.028    498.664    499.210    498.664
 37.870    458.000    518.632    -60.632    498.413    518.092    498.413    498.961    498.413
 37.970    554.880    516.004     38.876    498.163    515.464    498.163    498.714    498.163
 38.070    472.000    512.799    -40.799    497.915    512.256    497.915    498.469    497.915
 38.170    534.474    509.707     24.767    497.669    509.161    497.669    498.225    497.669
 38.270    496.410    507.061    -10.651    497.424    506.510    497.424    497.984    497.424
 38.370    478.000    505.005    -27.005    497.180    504.449    497.180    497.744    497.180
 38.470    464.000    503.514    -39.514    496.939    502.952    496.939    497.505    496.939
 38.570    485.257    502.467    -17.210    496.699    501.900    496.699    497.269    496.699
 38.670    462.375    501.727    -39.353    496.460    501.155    496.460    497.035    496.460
 38.770    486.000    501.184    -15.184    496.224    500.607    496.224    496.802    496.224
 38.870    491.000    500.758     -9.758    495.989    500.177    495.989    496.571    495.989
 38.970    496.000    500.403     -4.403    495.755    499.817    495.755    496.342    495.755
 39.070    479.829    500.090    -20.260    495.524    499.499    495.524    496.115    495.524
 39.170    478.000    499.805    -21.805    495.294    499.210    495.294    495.890    495.294
 39.270    502.000    499.541      2.459    495.065    498.941    495.065    495.666    495.065
 39.370    478.000    499.295    -21.295    494.839    498.689    494.839    495.445    494.839
 39.470    510.000    499.063     10.937    494.614    498.452    494.614    495.225    494.614
 39.570    492.000    498.844     -6.844    494.391    498.228    494.391    495.007    494.391
 39.670    524.000    498.637     25.363    494.169    498.015    494.169    494.792    494.169
 39.770    537.119    498.442     38.678    493.950    497.814    493.950    494.578    493.950
 39.870    506.000    498.257      7.743    493.732    497.624    493.732    494.366    493.732
 39.970    478.000    498.084    -20.084    493.515    497.445    493.515    494.156    493.515
 40.070    477.474    497.922    -20.449    493.301    497.276    493.301    493.947    493.301
 40.170    503.000    497.772      5.228    493.088    497.120    493.088    493.741    493.088
 40.270    505.000    497.635      7.365    492.877    496.976    492.877    493.537    492.877
 40.370    477.211    497.511    -20.300    492.668    496.845    492.668    493.335    492.668
 40.470    504.000    497.402      6.598    492.460    496.728    492.460    493.134    492.460
 40.570    528.889    497.309     31.580    492.254    496.628    492.254    492.936    492.254
 40.670    506.000    497.234      8.766    492.050    496.546    492.050    492.740    492.050
 40.770    456.604    497.181    -40.577    491.848    496.485    491.848    492.546    491.848
 40.870    485.000    497.153    -12.153    491.648    496.448    491.648    492.353    491.648
 40.970    503.000    497.153      5.847    491.449    496.440    491.449    492.163    491.449
 41.070    478.860    497.188    -18.328    491.252    496.467    491.252    491.975    491.252
 41.170    522.031    497.266     24.766    491.057    496.535    491.057    491.789    491.057
 41.270    481.000    497.395    -16.395    490.864    496.655    490.864    491.605    490.864
 41.370    502.092    497.589      4.503    490.672    496.840    490.672    491.423    490.672
 41.470    515.000    497.867     17.133    490.483    497.108    490.483    491.244    490.483
 41.570    494.000    498.256     -4.256    490.295    497.487    490.295    491.066    490.295
 41.670    501.327    498.805      2.522    490.109    498.026    490.109    490.890    490.109
 41.770    464.307    499.611    -35.304    489.924    498.821    489.924    490.717    489.924
 41.870    487.000    500.878    -13.878    489.742    500.077    489.742    490.546    489.742
 41.970    487.000    503.026    -16.026    489.561    502.215    489.561    490.377    489.561
 42.070    491.556    506.841    -15.285    489.382    506.020    489.382    490.210    489.382
 42.170    544.486    513.548     30.938    489.205    512.717    489.205    490.046    489.205
 42.270    492.211    524.643    -32.431    489.030    523.804    489.030    489.884    489.030
 42.370    539.938    541.289     -1.351    488.857    540.446    488.857    489.724    488.857
 42.470    548.000    563.293    -15.293    488.685    562.447    488.685    489.566    488.685
 42.570    581.000    587.883     -6.883    488.515    587.037    488.515    489.411    488.515
 42.670    612.000    608.704      3.296    488.347    607.857    488.347    489.258    488.347
 42.770    620.000    616.981      3.019    488.181    616.126    488.181    489.107    488.181
 42.870    585.000    608.074    -23.074    488.017    607.201    488.017    488.959    488.017
 42.970    553.000    586.817    -33.817    487.854    585.915    487.854    488.813    487.854
 43.070    556.000    562.009     -6.009    487.694    561.075    487.694    488.670    487.694
 43.170    573.891    539.915     33.975    487.535    538.951    487.535    488.529    487.535
 43.270    512.000    523.221    -11.221    487.378    522.228    487.378    488.391    487.378
 43.370    495.000    512.065    -17.065    487.223    511.045    487.223    488.255    487.223
 43.470    546.000    505.260     40.740    487.070    504.216    487.070    488.122    487.070
 43.570    509.000    501.310      7.690    486.918    500.242    486.918    487.992    486.918
 43.670    457.840    498.999    -41.159    486.769    497.908    486.769    487.864    486.769
 43.770    537.888    497.556     40.332    486.621    496.440    486.621    487.740    486.621
 43.870    458.000    496.567    -38.567    486.475    495.427    486.475    487.618    486.475
 43.970    461.002    495.832    -34.830    486.331    494.666    486.331    487.499    486.331
 44.070    493.000    495.259     -2.259    486.188    494.066    486.188    487.383    486.188
 44.170    470.864    494.799    -23.935    486.048    493.579    486.048    487.270    486.048
 44.270    493.000    494.426     -1.426    485.909    493.177    485.909    487.160    485.909
 44.370    478.000    494.121    -16.121    485.772    492.842    485.772    487.053    485.772
 44.470    503.319    493.873      9.446    485.637    492.562    485.637    486.950    485.637
 44.570    501.000    493.671      7.329    485.504    492.327    485.504    486.850    485.504
 44.670    523.040    493.509     29.531    485.373    492.130    485.373    486.753    485.373
 44.770    499.000    493.382      5.618    485.243    491.966    485.243    486.661    485.243
 44.870    507.000    493.286     13.714    485.116    491.831    485.116    486.572    485.116
 44.970    474.000    493.218    -19.218    484.990    491.722    484.990    486.487    484.990
 45.070    516.567    493.176     23.391    484.866    491.637    484.866    486.406    484.866
 45.170    531.310    493.159     38.151    484.744    491.575    484.744    486.329    484.744
 45.270    525.159    493.167     31.992    484.624    491.534    484.624    486.257    484.624
 45.370    461.220    493.199    -31.979    484.505    491.515    484.505    486.189    484.505
 45.470    466.000    493.254    -27.254    484.388    491.516    484.388    486.127    484.388
 45.570    546.000    493.335     52.665    484.273    491.539    484.273    486.070    484.273
 45.670    491.837    493.442     -1.605    484.160    491.585    484.160    486.018    484.160
 45.770    525.000    493.576     31.424    484.049    491.654    484.049    485.972    484.049
 45.870    524.615    493.740     30.875    483.940    491.748    483.940    485.932    483.940
 45.970    472.198    493.936    -21.738    483.832    491.869    483.832    485.899    483.832
 46.070    460.783    494.167    -33.385    483.726    492.021    483.726    485.873    483.726
 46.170    525.000    494.439     30.561    483.622    492.206    483.622    485.855    483.622
 46.270    515.052    494.756     20.296    483.520    492.431    483.520    485.845    483.520
 46.370    480.000    495.125    -15.125    483.420    492.700    483.420    485.844    483.420
 46.470    476.000    495.555    -19.555    483.321    493.023    483.321    485.853    483.321
 46.570    492.000    496.059     -4.059    483.224    493.410    483.224    485.872    483.224
 46.670    509.000    496.654     12.346    483.129    493.879    483.129    485.904    483.129
 46.770    520.000    497.369     22.631    483.036    494.456    483.036    485.948    483.036
 46.870    485.000    498.259    -13.259    482.944    495.195    482.944    486.007    482.944
 46.970    535.000    499.428     35.572    482.855    496.199    482.855    486.082    482.855
 47.070    485.000    501.079    -16.079    482.767    497.668    482.767    486.175    482.767
 47.170    474.000    503.576    -29.576    482.681    499.963    482.681    486.289    482.681
 47.270    517.000    507.482      9.518    482.596    503.645    482.596    486.427    482.596
 47.370    500.000    513.528    -13.528    482.514    509.439    482.514    486.591    482.514
 47.470    472.000    522.416    -50.416    482.433    518.046    482.433    486.786    482.433
 47.570    575.000    534.455     40.545    482.354    529.767    482.354    487.017    482.354
 47.670    547.000    549.075     -2.075    482.277    544.029    482.277    487.288    482.277
 47.770    556.000    564.337     -8.337    482.201    558.889    482.201    487.607    482.201
 47.870    592.000    576.692     15.308    482.127    570.790    482.127    487.979    482.127
 47.970    549.007    581.921    -32.913    482.055    575.511    482.055    488.415    482.055
 48.070    563.981    578.151    -14.170    481.985    571.168    481.985    488.922    481.985
 48.170    593.978    567.810     26.167    481.916    560.178    481.916    489.511    481.916
 48.270    584.079    555.265     28.815    481.850    546.893    481.850    490.193    481.850
 48.370    555.000    543.929     11.071    481.784    534.714    481.784    490.980    481.784
 48.470    580.294    535.575     44.719    481.721    525.401    481.721    491.883    481.721
 48.570    533.000    530.678      2.322    481.659    519.417    481.659    492.913    481.659
 48.670    564.000    528.918     35.082    481.599    516.435    481.599    494.078    481.599
 48.770    512.000    529.658    -17.658    481.541    515.812    481.541    495.384    481.541
 48.870    528.000    532.292     -4.292    481.485    516.948    481.485    496.828    481.485
 48.970    547.000    536.432     10.568    481.430    519.464    481.430    498.397    481.430
 49.070    504.374    542.001    -37.627    481.376    523.316    481.376    500.061    481.376
 49.170    525.000    549.333    -24.333    481.325    528.890    481.325    501.768    481.325
 49.270    584.000    559.588     24.412    481.275    537.426    481.275    503.437    481.275
 49.370    583.000    575.780      7.220    481.227    552.047    481.227    504.958    481.227
 49.470    604.590    604.669     -0.079    481.180    579.641    481.180    506.201    481.180
 49.570    649.000    659.191    -10.191    481.136    633.275    481.136    507.035    481.136
 49.670    765.000    759.672      5.328    481.093    733.373    481.093    507.357    481.093
 49.770    932.000    930.479      1.521    481.051    904.346    481.051    507.123    481.051
 49.870   1172.883   1189.144    -16.261    481.011   1163.704    481.011    506.361    481.011
 49.970   1488.519   1529.263    -40.745    480.973   1504.961    480.973    505.163    480.973
 50.070   1873.000   1904.656    -31.656    480.936   1881.827    480.936    503.655    480.936
 50.170   2225.000   2225.496     -0.496    480.901   2204.359    480.901    501.970    480.901
 50.270   2325.000   2381.575    -56.575    480.868   2362.235    480.868    500.224    480.868
 50.370   2364.247   2307.102     57.145    480.836   2289.551    480.836    498.504    480.836
 50.470   2002.000   2036.177    -34.177    480.806   2020.303    480.806    496.869    480.806
 50.570   1696.595   1671.292     25.303    480.778   1656.925    480.778    495.354    480.778
 50.670   1292.000   1314.207    -22.207    480.751   1301.172    480.751    493.975    480.751
 50.770   1021.000   1028.192     -7.192    480.725   1016.330    480.725    492.737    480.725
 50.870    830.000    833.114     -3.114    480.701    822.288    480.701    491.637    480.701
 50.970    726.866    717.717      9.149    480.679    707.807    480.679    490.666    480.679
 51.070    708.000    657.066     50.934    480.659    647.968    480.659    489.815    480.659
 51.170    600.505    626.304    -25.799    480.640    617.920    480.640    489.072    480.640
 51.270    625.277    607.695     17.581    480.622    599.934    480.622    488.425    480.622
 51.370    590.000    592.228     -2.228    480.606    585.006    480.606    487.864    480.606
 51.470    616.345    577.450     38.895    480.592    570.693    480.592    487.377    480.592
 51.570    556.357    563.853     -7.496    480.579    557.498    480.579    486.957    480.579
 51.670    586.304    552.378     33.927    480.567    546.369    480.567    486.593    480.567
 51.770    535.000    543.544     -8.544    480.557    537.835    480.557    486.280    480.557
 51.870    550.000    537.379     12.621    480.549    531.928    480.549    486.009    480.549
 51.970    495.000    533.563    -38.563    480.542    528.335    480.542    485.777    480.542
 52.070    491.438    531.651    -40.213    480.537    526.616    480.537    485.578    480.537
 52.170    553.000    531.269     21.731    480.533    526.400    480.533    485.408    480.533
 52.270    536.000    532.206      3.794    480.530    527.478    480.530    485.264    480.530
 52.370    497.476    534.498    -37.022    480.529    529.890    480.529    485.143    480.529
 52.470    580.000    538.548     41.452    480.530    534.040    480.530    485.042    480.530
 52.570    539.000    545.317     -6.317    480.532    540.894    480.532    484.960    480.532
 52.670    545.962    556.621    -10.659    480.535    552.266    480.535    484.895    480.535
 52.770    592.000    575.421     16.579    480.540    571.121    480.540    484.846    480.540
 52.870    622.000    605.892     16.108    480.546    601.634    480.546    484.811    480.546
 52.970    632.786    652.905    -20.119    480.554    648.677    480.554    484.790    480.554
 53.070    687.000    720.648    -33.648    480.563    716.440    480.563    484.781    480.563
 53.170    797.000    810.414    -13.414    480.574    806.218    480.574    484.785    480.574
 53.270    862.775    917.953    -55.177    480.585    913.761    480.585    484.800    480.585
 53.370   1075.157   1030.899     44.258    480.599   1026.704    480.599    484.827    480.599
 53.470   1134.788   1127.351      7.437    480.613   1123.146    480.613    484.865    480.613
 53.570   1232.961   1179.841     53.120    480.629   1175.617    480.629    484.914    480.629
 53.670   1121.000   1169.587    -48.587    480.647   1165.330    480.647    484.973    480.647
 53.770   1054.949   1100.921    -45.972    480.665   1096.615    480.665    485.043    480.665
 53.870    954.000    997.358    -43.358    480.685    992.986    480.685    485.124    480.685
 53.970    882.842    885.311     -2.469    480.707    880.858    480.707    485.216    480.707
 54.070    757.313    783.572    -26.259    480.729    779.027    480.729    485.318    480.729
 54.170    679.000    701.674    -22.674    480.753    697.028    480.753    485.432    480.753
 54.270    667.418    641.821     25.597    480.779    637.065    480.779    485.558    480.779
 54.370    594.000    601.541     -7.541    480.805    596.667    480.805    485.695    480.805
 54.470    584.000    576.251      7.749    480.833    571.251    480.833    485.845    480.833
 54.570    543.860    561.222    -17.362    480.862    556.085    480.862    486.009    480.862
 54.670    573.000    552.661     20.339    480.893    547.376    480.893    486.186    480.893
 54.770    539.000    547.994     -8.994    480.924    542.548    480.924    486.377    480.924
 54.870    560.000    545.690     14.310    480.957    540.070    480.957    486.584    480.957
 54.970    509.000    544.934    -35.934    480.991    539.124    480.991    486.807    480.991
 55.070    531.351    545.334    -13.982    481.027    539.318    481.027    487.048    481.027
 55.170    555.000    546.728      8.272    481.063    540.490    481.063    487.307    481.063
 55.270    604.000    549.085     54.915    481.101    542.605    481.101    487.587    481.101
 55.370    631.000    552.462     78.538    481.140    545.719    481.140    487.889    481.140
 55.470    540.000    557.006    -17.006    481.180    549.978    481.180    488.215    481.180
 55.570    551.000    563.017    -12.017    481.222    555.678    481.222    488.567    481.222
 55.670    581.000    571.084      9.916    481.264    563.407    481.264    488.948    481.264
 55.770    587.000    582.396      4.604    481.308    574.351    481.308    489.360    481.308
 55.870    639.000    599.287     39.713    481.353    590.839    481.353    489.808    481.353
 55.970    649.484    626.076     23.408    481.399    617.187    481.399    490.294    481.399
 56.070    677.000    670.040      6.960    481.446    660.667    481.446    490.825    481.446
 56.170    730.000    742.045    -12.045    481.494    732.138    481.494    491.405    481.494
 56.270    809.220    855.926    -46.705    481.543    845.430    481.543    492.041    481.543
 56.370    975.000   1025.685    -50.685    481.594   1014.541    481.594    492.741    481.594
 56.470   1173.000   1260.122    -87.122    481.645   1248.261    481.645    493.513    481.645
 56.570   1449.000   1555.768   -106.768    481.698   1543.118    481.698    494.370    481.698
 56.670   1919.191   1890.059     29.133    481.751   1876.538    481.751    495.323    481.751
 56.770   2260.334   2216.660     43.674    481.806   2202.176    481.806    496.387    481.806
 56.870   2397.633   2466.595    -68.962    481.862   2451.039    481.862    497.580    481.862
 56.970   2636.369   2566.699     69.670    481.919   2549.932    481.919    498.920    481.919
 57.070   2457.000   2482.069    -25.069    481.976   2463.912    481.976    500.431    481.976
 57.170   2254.803   2244.167     10.636    482.035   2224.392    482.035    502.137    482.035
 57.270   1921.000   1925.053     -4.053    482.095   1903.399    482.095    504.065    482.095
 57.370   1585.000   1594.659     -9.659    482.156   1570.844    482.156    506.247    482.156
 57.470   1332.000   1300.965     31.035    482.217   1274.691    482.217    508.713    482.217
 57.570   1030.451   1068.124    -37.673    482.280   1039.072    482.280    511.499    482.280
 57.670    872.109    900.922    -28.813    482.344    868.746    482.344    514.637    482.344
 57.770    817.661    791.631     26.030    482.408    755.958    482.408    518.161    482.408
 57.870    701.000    727.265    -26.265    482.474    687.689    482.474    522.101    482.474
 57.970    734.000    695.273     38.727    482.540    651.366    482.540    526.480    482.540
 58.070    732.000    686.646     45.354    482.608    637.963    482.608    531.310    482.608
 58.170    699.000    696.587      2.413    482.676    642.691    482.676    536.581    482.676
 58.270    725.298    723.591      1.707    482.745    664.078    482.745    542.258    482.745
 58.370    746.000    767.747    -21.747    482.815    702.293    482.815    548.260    482.815
 58.470    835.471    828.898      6.573    482.886    757.319    482.886    554.449    482.886
 58.570    957.755    904.991     52.764    482.958    827.314    482.958    560.614    482.958
 58.670   1004.051    990.909     13.142    483.030    907.451    483.030    566.467    483.030
 58.770   1126.800   1078.514     48.286    483.104    989.951    483.104    571.651    483.104
 58.870   1147.757   1158.741    -10.984    483.178   1066.140    483.178    575.775    483.178
 58.970   1163.423   1223.987    -60.564    483.253   1128.776    483.253    578.473    483.253
 59.070   1337.381   1267.767     69.614    483.329   1171.638    483.329    579.481    483.329
 59.170   1353.392   1284.048     69.344    483.406   1188.790    483.406    578.701    483.406
 59.270   1338.000   1270.962     67.038    483.483   1178.264    483.483    576.226    483.483
 59.370   1305.000   1235.364     69.636    483.561   1146.652    483.561    572.315    483.561
 59.470   1224.249   1190.891     33.359    483.640   1107.225    483.640    567.331    483.640
 59.570   1211.000   1151.918     59.082    483.720   1073.968    483.720    561.667    483.720
 59.670   1104.000   1130.390    -26.390    483.800   1058.468    483.800    555.681    483.800
 59.770   1156.000   1136.064     19.936    483.881   1070.195    483.881    549.665    483.881
 59.870   1191.000   1175.707     15.293    483.963   1115.709    483.963    543.832    483.963
 59.970   1241.739   1249.317     -7.578    484.046   1194.869    484.046    538.321    484.046
 60.070   1368.000   1346.512     21.488    484.129   1297.220    484.129    533.216    484.129
 60.170   1494.908   1445.766     49.142    484.213   1401.205    484.213    528.555    484.213
 60.270   1478.224   1517.153    -38.929    484.297   1476.894    484.297    524.347    484.297
 60.370   1535.000   1531.239      3.761    484.382   1494.860    484.382    520.582    484.382
 60.470   1510.000   1474.557     35.443    484.468   1441.651    484.468    517.237    484.468
 60.570   1380.000   1358.487     21.513    484.554   1328.662    484.554    514.283    484.554
 60.670   1151.514   1210.041    -58.527    484.641   1182.933    484.641    511.688    484.641
 60.770   1050.000   1056.856     -6.856    484.729   1032.132    484.729    509.417    484.729
 60.870    925.000    919.333      5.667    484.817    896.693    484.817    507.436    484.817
 60.970    801.000    808.972     -7.972    484.906    788.152    484.906    505.714    484.906
 61.070    706.000    729.499    -23.499    484.995    710.265    484.995    504.220    484.995
 61.170    687.000    679.451      7.549    485.085    661.601    485.085    502.925    485.085
 61.270    683.710    655.323     28.387    485.176    638.681    485.176    501.804    485.176
 61.370    674.000    654.221     19.779    485.267    638.635    485.267    500.832    485.267
 61.470    636.129    675.291    -39.162    485.358    660.631    485.358    499.987    485.358
 61.570    762.000    719.650     42.350    485.450    705.807    485.450    499.247    485.450
 61.670    806.803    788.996     17.806    485.542    775.879    485.542    498.595    485.542
 61.770    837.167    883.381    -46.214    485.635    870.918    485.635    498.014    485.635
 61.870   1036.081    998.764     37.317    485.729    986.899    485.729    497.488    485.729
 61.970   1082.409   1125.036    -42.627    485.822   1113.730    485.822    497.005    485.822
 62.070   1220.000   1245.144    -25.144    485.917   1234.374    485.917    496.557    485.917
 62.170   1305.303   1336.229    -30.926    486.011   1325.981    486.011    496.136    486.011
 62.270   1407.912   1375.405     32.507    486.106   1365.672    486.106    495.740    486.106
 62.370   1339.868   1350.891    -11.022    486.202   1341.661    486.202    495.367    486.202
 62.470   1213.168   1269.687    -56.519    486.298   1260.938    486.298    495.018    486.298
 62.570   1113.000   1152.621    -39.621    486.394   1144.322    486.394    494.692    486.394
 62.670   1020.000   1023.132     -3.132    486.491   1015.247    486.491    494.392    486.491
 62.770    895.000    899.945     -4.945    486.588    892.441    486.588    494.116    486.588
 62.870    756.674    794.805    -38.132    486.685    787.650    486.685    493.865    486.685
 62.970    712.000    712.767     -0.767    486.783    705.933    486.783    493.638    486.783
 63.070    613.466    653.653    -40.188    486.881    647.114    486.881    493.435    486.881
 63.170    654.000    614.072     39.928    486.979    607.807    486.979    493.253    486.979
 63.270    612.000    589.420     22.580    487.077    583.409    487.077    493.093    487.077
 63.370    585.000    575.381      9.619    487.176    569.606    487.176    492.952    487.176
 63.470    560.340    568.763     -8.423    487.275    563.207    487.275    492.829    487.275
 63.570    555.000    567.775    -12.775    487.375    562.421    487.375    492.723    487.375
 63.670    545.000    571.963    -26.963    487.474    566.796    487.474    492.633    487.474
 63.770    571.000    581.992    -10.992    487.574    576.996    487.574    492.557    487.574
 63.870    590.263    599.328     -9.064    487.674    594.488    487.674    492.495    487.674
 63.970    589.118    625.807    -36.689    487.774    621.108    487.774    492.444    487.774
 64.070    646.839    663.050    -16.211    487.875    658.479    487.875    492.405    487.875
 64.170    734.759    711.732     23.027    487.975    707.276    487.975    492.377    487.975
 64.270    744.000    770.788    -26.788    488.076    766.437    488.076    492.358    488.076
 64.370    880.120    836.687     43.433    488.177    832.433    488.177    492.348    488.177
 64.470    937.928    902.919     35.008    488.278    898.758    488.278    492.346    488.278
 64.570    939.000    960.182    -21.182    488.379    956.112    488.379    492.352    488.379
 64.670    982.000    998.299    -16.299    488.480    994.323    488.480    492.365    488.480
 64.770   1023.000   1010.143     12.857    488.582   1006.263    488.582    492.385    488.582
 64.870    973.751    994.814    -21.063    488.683    991.032    488.683    492.411    488.683
 64.970    972.000    957.294     14.706    488.785    953.605    488.785    492.443    488.785
 65.070    904.978    905.788     -0.810    488.887    902.187    488.887    492.480    488.887
 65.170    905.000    848.980     56.020    488.988    845.457    488.988    492.522    488.988
 65.270    820.141    793.847     26.294    489.090    790.392    489.090    492.570    489.090
 65.370    718.000    744.527    -26.527    489.192    741.132    489.192    492.622    489.192
 65.470    674.571    702.481    -27.910    489.293    699.135    489.293    492.678    489.293
 65.570    661.000    667.569     -6.569    489.395    664.264    489.395    492.739    489.395
 65.670    611.000    639.160    -28.160    489.497    635.888    489.497    492.803    489.497
 65.770    582.890    616.583    -33.693    489.599    613.339    489.599    492.872    489.599
 65.870    527.000    599.128    -72.128    489.700    595.908    489.700    492.944    489.700
 65.970    576.889    586.040     -9.151    489.802    582.840    489.802    493.020    489.802
 66.070    529.713    576.606    -46.893    489.904    573.423    489.904    493.099    489.904
 66.170    534.000    570.222    -36.222    490.005    567.054    490.005    493.182    490.005
 66.270    578.000    566.415     11.585    490.106    563.260    490.106    493.269    490.106
 66.370    543.721    564.833    -21.113    490.208    561.689    490.208    493.358    490.208
 66.470    538.000    565.244    -27.244    490.309    562.108    490.309    493.452    490.309
 66.570    570.000    567.586      2.414    490.410    564.455    490.410    493.548    490.410
 66.670    534.000    572.056    -38.056    490.511    568.927    490.511    493.648    490.511
 66.770    598.000    579.266     18.734    490.612    576.136    490.612    493.751    490.612
 66.870    580.000    590.472    -10.472    490.712    587.336    490.712    493.857    490.712
 66.970    617.000    607.867      9.133    490.813    604.724    490.813    493.967    490.813
 67.070    618.000    634.915    -16.915    490.913    631.760    490.913    494.080    490.913
 67.170    676.000    676.575     -0.575    491.013    673.404    491.013    494.196    491.013
 67.270    692.000    739.241    -47.241    491.113    736.052    491.113    494.316    491.113
 67.370    823.370    830.143     -6.773    491.213    826.935    491.213    494.440    491.213
 67.470    935.000    956.038    -21.038    491.312    952.811    491.312    494.568    491.312
 67.570   1061.000   1121.196    -60.196    491.411   1117.953    491.411    494.699    491.411
 67.670   1287.000   1324.966    -37.966    491.510   1321.713    491.510    494.835    491.510
 67.770   1541.000   1559.415    -18.415    491.609   1556.160    491.609    494.974    491.609
 67.870   1800.000   1807.545     -7.545    491.707   1804.296    491.707    495.119    491.707
 67.970   1979.277   2042.577    -63.300    491.805   2039.342    491.805    495.267    491.805
 68.070   2295.000   2229.657     65.343    491.903   2226.438    491.903    495.421    491.903
 68.170   2393.000   2332.890     60.110    492.001   2329.680    492.001    495.580    492.001
 68.270   2345.000   2328.794     16.206    492.098   2325.571    492.098    495.745    492.098
 68.370   2275.000   2218.457     56.543    492.194   2215.185    492.194    495.915    492.194
 68.470   2006.023   2026.874    -20.851    492.291   2023.512    492.291    496.092    492.291
 68.570   1857.000   1790.223     66.777    492.387   1786.735    492.387    496.276    492.387
 68.670   1663.000   1542.860    120.140    492.482   1539.220    492.482    496.466    492.482
 68.770   1285.000   1310.814    -25.814    492.578   1307.008    492.578    496.665    492.578
 68.870   1144.000   1110.348     33.652    492.673   1106.368    492.673    496.872    492.673
 68.970    927.000    948.760    -21.760    492.767    944.603    492.767    497.089    492.767
 69.070    847.440    826.238     21.202    492.861    821.903    492.861    497.316    492.861
 69.170    775.000    738.238     36.762    492.955    733.724    492.955    497.553    492.955
 69.270    696.783    677.901     18.882    493.048    673.205    493.048    497.803    493.048
 69.370    632.000    638.016     -6.016    493.140    633.133    493.140    498.066    493.140
 69.470    607.000    612.271     -5.271    493.232    607.190    493.232    498.344    493.232
 69.570    613.000    595.791     17.209    493.324    590.501    493.324    498.637    493.324
 69.670    624.000    585.170     38.830    493.415    579.654    493.415    498.950    493.415
 69.770    573.000    578.213     -5.213    493.506    572.451    493.506    499.282    493.506
 69.870    611.109    573.602     37.507    493.596    567.573    493.596    499.637    493.596
 69.970    562.000    570.591     -8.591    493.686    564.268    493.686    500.019    493.686
 70.070    568.000    568.784     -0.784    493.775    562.137    493.775    500.430    493.775
 70.170    590.000    567.989     22.011    493.863    560.983    493.863    500.876    493.863
 70.270    561.000    568.147     -7.147    493.951    560.743    493.951    501.362    493.951
 70.370    571.000    569.312      1.688    494.038    561.461    494.038    501.894    494.038
 70.470    537.000    571.662    -34.662    494.125    563.311    494.125    502.481    494.125
 70.570    613.000    575.567     37.433    494.211    566.650    494.211    503.131    494.211
 70.670    596.000    581.689     14.311    494.297    572.129    494.297    503.857    494.297
 70.770    600.096    591.125      8.972    494.381    580.831    494.381    504.673    494.381
 70.870    607.000    605.581      1.419    494.466    594.447    494.466    505.594    494.466
 70.970    640.000    627.531     12.469    494.549    615.429    494.549    506.640    494.549
 71.070    663.176    660.278      2.898    494.632    647.059    494.632    507.831    494.632
 71.170    711.542    707.826      3.716    494.714    693.318    494.714    509.193    494.714
 71.270    697.000    774.459    -77.459    494.796    758.461    494.796    510.751    494.796
 71.370    805.000    863.954    -58.954    494.877    846.237    494.877    512.535    494.877
 71.470    960.000    978.483    -18.483    494.957    958.791    494.957    514.576    494.957
 71.570   1125.467   1117.353      8.114    495.036   1095.398    495.036    516.903    495.036
 71.670   1302.228   1275.821     26.407    495.115   1251.291    495.115    519.546    495.115
 71.770   1420.000   1444.205    -24.205    495.193   1416.762    495.193    522.531    495.193
 71.870   1584.000   1607.479    -23.479    495.270   1576.768    495.270    525.880    495.270
 71.970   1760.000   1745.849     14.151    495.346   1711.506    495.346    529.605    495.346
 72.070   1883.584   1837.576     46.009    495.422   1799.237    495.422    533.704    495.422
 72.170   1848.000   1865.293    -17.293    495.497   1822.611    495.497    538.155    495.497
 72.270   1789.000   1823.723    -34.723    495.571   1776.393    495.571    542.908    495.571
 72.370   1784.000   1722.548     61.452    495.644   1670.349    495.644    547.876    495.644
 72.470   1597.000   1581.376     15.624    495.716   1524.224    495.716    552.918    495.716
 72.570   1439.000   1421.745     17.255    495.788   1359.753    495.788    557.837    495.788
 72.670   1312.000   1261.831     50.169    495.859   1195.377    495.859    562.371    495.859
 72.770   1077.855   1114.589    -36.734    495.929   1044.357    495.929    566.215    495.929
 72.870    959.577    987.673    -28.096    495.998    914.667    495.998    569.050    495.998
 72.970    919.931    884.106     35.825    496.066    809.603    496.066    570.609    496.066
 73.070    830.000    803.356     26.644    496.133    728.791    496.133    570.730    496.133
 73.170    725.562    742.609    -17.047    496.199    669.426    496.199    569.408    496.199
 73.270    693.000    698.006     -5.006    496.265    627.501    496.265    566.791    496.265
 73.370    703.000    665.601     37.399    496.329    598.806    496.329    563.142    496.329
 73.470    636.000    641.966     -5.966    496.393    579.599    496.393    558.776    496.393
 73.570    624.000    624.450     -0.450    496.455    566.918    496.455    554.002    496.455
 73.670    609.000    611.189     -2.189    496.517    558.634    496.517    549.086    496.517
 73.770    578.000    600.977    -22.977    496.578    553.339    496.578    544.231    496.578
 73.870    612.484    593.087     19.398    496.637    550.159    496.637    539.581    496.637
 73.970    575.055    587.090    -12.035    496.696    548.577    496.696    535.228    496.696
 74.070    551.000    582.714    -31.714    496.754    548.267    496.754    531.224    496.754
 74.170    606.529    579.736     26.793    496.811    548.980    496.811    527.593    496.811
 74.270    588.318    577.904     10.413    496.867    550.465    496.867    524.338    496.867
 74.370    592.000    576.901     15.099    496.921    552.412    496.921    521.447    496.921
 74.470    551.544    576.318    -24.775    496.975    554.436    496.975    518.901    496.975
 74.570    635.000    575.672     59.328    497.028    556.075    497.028    516.672    497.028
 74.670    622.000    574.463     47.537    497.079    556.860    497.079    514.732    497.079
 74.770    617.461    572.313     45.149    497.130    556.444    497.130    513.050    497.130
 74.870    580.605    569.109     11.496    497.179    554.743    497.179    511.596    497.179
 74.970    608.000    565.075     42.925    497.228    552.009    497.228    510.340    497.228
 75.070    556.058    560.650     -4.592    497.275    548.709    497.275    509.256    497.275
 75.170    635.000    556.365     78.635    497.321    545.401    497.321    508.319    497.321
 75.270    579.000    552.754     26.246    497.366    542.640    497.366    507.507    497.366
 75.370    595.675    550.328     45.347    497.410    540.957    497.410    506.802    497.410
 75.470    552.000    549.581      2.419    497.453    540.861    497.453    506.186    497.453
 75.570    526.322    550.999    -24.677    497.495    542.854    497.495    505.647    497.495
 75.670    519.345    555.052    -35.707    497.535    547.416    497.535    505.171    497.535
 75.770    532.746    562.154    -29.409    497.575    554.973    497.575    504.750    497.575
 75.870    603.813    572.607     31.206    497.613    565.832    497.613    504.375    497.613
 75.970    610.000    586.499     23.501    497.650    580.089    497.650    504.040    497.650
 76.070    621.000    603.600     17.400    497.686    597.521    497.686    503.739    497.686
 76.170    612.000    623.261    -11.261    497.721    617.482    497.721    503.466    497.721
 76.270    664.540    644.332     20.208    497.754    638.825    497.754    503.220    497.754
 76.370    624.164    665.119    -40.955    497.786    659.864    497.786    502.995    497.786
 76.470    716.219    683.425     32.794    497.817    678.402    497.817    502.790    497.817
 76.570    673.774    696.764    -22.990    497.847    691.957    497.847    502.602    497.847
 76.670    686.035    702.903    -16.868    497.876    698.299    497.876    502.430    497.876
 76.770    691.000    700.633     -9.633    497.903    696.219    497.903    502.271    497.903
 76.870    656.530    690.295    -33.765    497.929    686.060    497.929    502.125    497.929
 76.970    657.000    673.614    -16.614    497.954    669.546    497.954    501.989    497.954
 77.070    699.817    652.986     46.832    497.978    649.074    497.978    501.864    497.978
 77.170    641.000    630.782     10.218    498.000    627.016    498.000    501.747    498.000
 77.270    618.889    608.960      9.928    498.021    605.329    498.021    501.639    498.021
 77.370    580.000    588.928     -8.928    498.040    585.422    498.040    501.537    498.040
 77.470    582.477    571.548     10.929    498.059    568.158    498.059    501.442    498.059
 77.570    557.000    557.196     -0.196    498.076    553.915    498.076    501.353    498.076
 77.670    564.000    545.859     18.141    498.092    542.678    498.092    501.270    498.092
 77.770    502.875    537.249    -34.374    498.106    534.163    498.106    501.191    498.106
 77.870    515.367    530.931    -15.563    498.119    527.932    498.119    501.117    498.119
 77.970    500.000    526.419    -26.419    498.131    523.503    498.131    501.047    498.131
 78.070    473.000    523.260    -50.260    498.141    520.421    498.141    500.980    498.141
 78.170    498.000    521.068    -23.068    498.150    518.301    498.150    500.917    498.150
 78.270    526.841    519.546      7.294    498.158    516.847    498.158    500.857    498.158
 78.370    503.000    518.480    -15.480    498.164    515.845    498.164    500.800    498.164
 78.470    512.526    517.726     -5.200    498.169    515.150    498.169    500.745    498.169
 78.570    545.000    517.193     27.807    498.173    514.673    498.173    500.693    498.173
 78.670    502.000    516.829    -14.829    498.175    514.361    498.175    500.643    498.175
 78.770    487.805    516.609    -28.804    498.176    514.191    498.176    500.595    498.176
 78.870    513.000    516.527     -3.527    498.175    514.154    498.175    500.548    498.175
 78.970    519.000    516.588      2.412    498.173    514.258    498.173    500.503    498.173
 79.070    516.000    516.808     -0.808    498.169    514.517    498.169    500.460    498.169
 79.170    473.244    517.209    -43.965    498.164    514.955    498.164    500.419    498.164
 79.270    500.000    517.820    -17.820    498.158    515.600    498.158    500.378    498.158
 79.370    500.000    518.675    -18.675    498.150    516.485    498.150    500.339    498.150
 79.470    523.000    519.815      3.185    498.141    517.653    498.141    500.301    498.141
 79.570    510.000    521.293    -11.293    498.130    519.157    498.130    500.264    498.130
 79.670    535.772    523.180     12.592    498.118    521.068    498.118    500.228    498.118
 79.770    513.000    525.578    -12.578    498.104    523.487    498.104    500.193    498.104
 79.870    529.000    528.624      0.376    498.089    526.552    498.089    500.158    498.089
 79.970    556.921    532.505     24.416    498.072    530.451    498.072    500.124    498.072
 80.070    545.000    537.461      7.539    498.054    535.423    498.054    500.089    498.054
 80.170    532.157    543.768    -11.612    498.034    541.746    498.034    500.055    498.034
 80.270    563.000    551.858     11.142    498.013    549.850    498.013    500.020    498.013
 80.370    558.000    562.114     -4.114    497.991    560.121    497.991    499.984    497.991
 80.470    546.000    574.882    -28.882    497.966    572.904    497.966    499.947    497.966
 80.570    547.000    590.369    -43.369    497.941    588.408    497.941    499.908    497.941
 80.670    610.146    608.538      1.607    497.914    606.596    497.914    499.867    497.914
 80.770    667.249    629.029     38.220    497.885    627.107    497.885    499.823    497.885
 80.870    615.354    651.116    -35.761    497.855    649.216    497.855    499.776    497.855
 80.970    711.000    673.732     37.268    497.823    671.858    497.823    499.726    497.823
 81.070    679.000    695.580    -16.580    497.789    693.733    497.789    499.672    497.789
 81.170    699.000    715.306    -16.306    497.754    713.488    497.754    499.616    497.754
 81.270    749.000    731.684     17.316    497.718    729.897    497.718    499.557    497.718
 81.370    727.000    743.729    -16.729    497.680    741.973    497.680    499.496    497.680
 81.470    790.000    750.776     39.224    497.640    749.050    497.640    499.433    497.640
 81.570    720.485    752.545    -32.060    497.599    750.847    497.599    499.369    497.599
 81.670    741.878    749.145     -7.267    497.557    747.475    497.557    499.303    497.557
 81.770    754.000    740.992     13.008    497.512    739.348    497.512    499.237    497.512
 81.870    701.000    728.749    -27.749    497.466    727.127    497.466    499.170    497.466
 81.970    703.458    713.336     -9.878    497.419    711.733    497.419    499.102    497.419
 82.070    691.000    695.879     -4.879    497.370    694.293    497.370    499.034    497.370
 82.170    705.000    677.514     27.486    497.319    675.941    497.319    498.966    497.319
 82.270    635.338    659.155    -23.817    497.267    657.595    497.267    498.897    497.267
 82.370    599.000    641.390    -42.390    497.213    639.840    497.213    498.828    497.213
 82.470    631.525    624.534      6.991    497.157    622.992    497.157    498.758    497.157
 82.570    578.000    608.789    -30.789    497.100    607.254    497.100    498.688    497.100
 82.670    606.000    594.364     11.636    497.042    592.834    497.042    498.617    497.042
 82.770    576.000    581.509     -5.509    496.981    579.983    496.981    498.546    496.981
 82.870    543.342    570.471    -27.129    496.919    568.947    496.919    498.475    496.919
 82.970    578.499    561.459     17.040    496.856    559.937    496.856    498.402    496.856
 83.070    569.000    554.611     14.389    496.791    553.088    496.791    498.329    496.791
 83.170    538.000    549.987    -11.987    496.724    548.463    496.724    498.256    496.724
 83.270    556.000    547.568      8.432    496.655    546.042    496.655    498.181    496.655
 83.370    528.576    547.239    -18.662    496.585    545.709    496.585    498.106    496.585
 83.470    568.000    548.777     19.223    496.513    547.244    496.513    498.030    496.513
 83.570    581.595    551.849     29.747    496.440    550.312    496.440    497.953    496.440
 83.670    524.034    556.009    -31.975    496.365    554.467    496.365    497.875    496.365
 83.770    557.000    560.710     -3.710    496.288    559.164    496.288    497.796    496.288
 83.870    502.000    565.324    -63.324    496.210    563.774    496.210    497.716    496.210
 83.970    584.000    569.177     14.823    496.130    567.625    496.130    497.634    496.130
 84.070    559.832    571.629    -11.797    496.048    570.075    496.048    497.552    496.048
 84.170    542.000    572.190    -30.190    495.965    570.636    495.965    497.469    495.965
 84.270    568.538    570.649     -2.111    495.880    569.097    495.880    497.385    495.880
 84.370    526.000    567.132    -41.132    495.793    565.583    495.793    497.299    495.793
 84.470    569.000    562.038      6.962    495.705    560.491    495.705    497.213    495.705
 84.570    563.000    555.900      7.100    495.615    554.357    495.615    497.125    495.615
 84.670    540.297    549.268     -8.971    495.523    547.727    495.523    497.037    495.523
 84.770    519.000    542.623    -23.623    495.430    541.084    495.430    496.947    495.430
 84.870    565.000    536.350     28.650    495.335    534.812    495.335    496.856    495.335
 84.970    522.000    530.722     -8.722    495.238    529.183    495.238    496.763    495.238
 85.070    511.000    525.901    -14.901    495.140    524.360    495.140    496.670    495.140
 85.170    544.000    521.951     22.049    495.040    520.408    495.040    496.575    495.040
 85.270    533.000    518.859     14.141    494.938    517.311    494.938    496.480    494.938
 85.370    532.000    516.558     15.442    494.835    515.004    494.835    496.383    494.835
 85.470    530.000    514.952     15.048    494.730    513.392    494.730    496.285    494.730
 85.570    513.000    513.944     -0.944    494.623    512.376    494.623    496.186    494.623
 85.670    521.000    513.446      7.554    494.515    511.870    494.515    496.086    494.515
 85.770    509.000    513.399     -4.399    494.405    511.814    494.405    495.984    494.405
 85.870    506.000    513.778     -7.778    494.293    512.182    494.293    495.882    494.293
 85.970    505.000    514.593     -9.593    494.180    512.987    494.180    495.778    494.180
 86.070    521.000    515.895      5.105    494.064    514.276    494.064    495.673    494.064
 86.170    561.736    517.767     43.969    493.948    516.134    493.948    495.568    493.948
 86.270    544.182    520.323     23.859    493.829    518.675    493.829    495.461    493.829
 86.370    491.544    523.694    -32.150    493.709    522.031    493.709    495.353    493.709
 86.470    495.175    528.018    -32.842    493.587    526.336    493.587    495.244    493.587
 86.570    574.000    533.415     40.585    493.464    531.713    493.464    495.135    493.464
 86.670    551.000    539.969     11.031    493.339    538.246    493.339    495.024    493.339
 86.770    536.000    547.697    -11.697    493.212    545.950    493.212    494.912    493.212
 86.870    596.476    556.521     39.955    493.083    554.750    493.083    494.799    493.083
 86.970    566.878    566.244      0.634    492.953    564.446    492.953    494.686    492.953
 87.070    578.000    576.526      1.474    492.821    574.701    492.821    494.571    492.821
 87.170    600.826    586.881     13.946    492.688    585.028    492.688    494.456    492.688
 87.270    628.000    596.674     31.326    492.552    594.794    492.552    494.340    492.552
 87.370    626.000    605.162     20.838    492.416    603.256    492.416    494.223    492.416
 87.470    632.990    611.572     21.418    492.277    609.642    492.277    494.106    492.277
 87.570    648.533    615.254     33.279    492.137    613.302    492.137    493.988    492.137
 87.670    663.000    615.848     47.152    491.995    613.878    491.995    493.869    491.995
 87.770    637.000    613.401     23.599    491.851    611.414    491.851    493.750    491.851
 87.870    632.000    608.348     23.652    491.706    606.346    491.706    493.630    491.706
 87.970    584.975    601.384    -16.409    491.559    599.367    491.559    493.509    491.559
 88.070    606.000    593.325     12.675    491.411    591.292    491.411    493.389    491.411
 88.170    602.000    584.992     17.008    491.261    582.941    491.261    493.268    491.261
 88.270    544.000    577.139    -33.139    491.109    575.069    491.109    493.147    491.109
 88.370    592.000    570.407     21.593    490.956    568.316    490.956    493.025    490.956
 88.470    584.000    565.290     18.710    490.801    563.175    490.801    492.904    490.801
 88.570    573.000    562.111     10.889    490.644    559.970    490.644    492.783    490.644
 88.670    590.852    561.016     29.835    490.486    558.846    490.486    492.662    490.486
 88.770    516.624    561.973    -45.349    490.326    559.772    490.326    492.541    490.326
 88.870    551.000    564.782    -13.782    490.164    562.547    490.164    492.421    490.164
 88.970    588.978    569.089     19.889    490.001    566.819    490.001    492.302    490.001
 89.070    608.249    574.409     33.841    489.836    572.100    489.836    492.183    489.836
 89.170    606.223    580.145     26.078    489.670    577.795    489.670    492.065    489.670
 89.270    616.000    585.622     30.378    489.502    583.227    489.502    491.949    489.502
 89.370    637.000    590.133     46.867    489.332    587.689    489.332    491.834    489.332
 89.470    620.000    593.019     26.981    489.161    590.521    489.161    491.721    489.161
 89.570    583.000    593.781    -10.781    488.988    591.225    488.988    491.611    488.988
 89.670    587.000    592.197     -5.197    488.813    589.576    488.813    491.503    488.813
 89.770    632.000    588.365     43.635    488.637    585.671    488.637    491.398    488.637
 89.870    612.000    582.654     29.346    488.460    579.881    488.460    491.297    488.460
 89.970    560.000    575.592    -15.592    488.281    572.732    488.281    491.200    488.281
 90.070    553.000    567.747    -14.747    488.100    564.793    488.100    491.107    488.100
 90.170    562.000    559.646      2.354    487.918    556.590    487.918    491.020    487.918
 90.270    584.262    551.736     32.526    487.734    548.571    487.734    490.940    487.734
 90.370    510.000    544.365    -34.365    487.548    541.081    487.548    490.866    487.548
 90.470    516.496    537.778    -21.282    487.361    534.367    487.361    490.800    487.361
 90.570    520.000    532.120    -12.120    487.173    528.572    487.173    490.744    487.173
 90.670    521.000    527.451     -6.451    486.983    523.754    486.983    490.698    486.983
 90.770    517.000    523.759     -6.759    486.791    519.901    486.791    490.663    486.791
 90.870    497.000    520.982    -23.982    486.598    516.950    486.598    490.640    486.598
 90.970    474.621    519.033    -44.412    486.403    514.812    486.403    490.631    486.403
 91.070    548.071    517.815     30.256    486.207    513.390    486.207    490.638    486.207
 91.170    527.000    517.243      9.757    486.009    512.595    486.009    490.661    486.009
 91.270    504.000    517.253    -13.253    485.810    512.363    485.810    490.702    485.810
 91.370    503.000    517.815    -14.815    485.610    512.662    485.610    490.763    485.610
 91.470    532.000    518.933     13.067    485.407    513.496    485.407    490.844    485.407
 91.570    493.041    520.655    -27.614    485.204    514.909    485.204    490.948    485.204
 91.670    530.000    523.053      6.947    484.999    516.974    484.999    491.075    484.999
 91.770    484.000    526.276    -42.276    484.792    519.837    484.792    491.226    484.792
 91.870    518.808    530.481    -11.673    484.584    523.655    484.584    491.402    484.584
 91.970    561.885    535.839     26.046    484.375    528.599    484.375    491.604    484.375
 92.070    570.802    542.536     28.266    484.164    534.854    484.164    491.833    484.164
 92.170    541.000    550.752     -9.752    483.951    542.599    483.951    492.087    483.951
 92.270    589.761    560.639     29.122    483.738    551.989    483.738    492.366    483.738
 92.370    527.000    572.301    -45.301    483.523    563.129    483.523    492.668    483.523
 92.470    564.477    585.773    -21.296    483.306    576.057    483.306    492.991    483.306
 92.570    574.000    601.002    -27.002    483.088    590.723    483.088    493.330    483.088
 92.670    643.000    617.828     25.172    482.869    606.973    482.869    493.680    482.869
 92.770    597.000    635.972    -38.972    482.648    624.537    482.648    494.034    482.648
 92.870    690.000    655.030     34.970    482.426    643.019    482.426    494.382    482.426
 92.970    711.565    674.476     37.089    482.203    661.906    482.203    494.714    482.203
 93.070    724.144    693.700     30.444    481.978    680.598    481.978    495.017    481.978
 93.170    736.999    712.070     24.928    481.752    698.481    481.752    495.276    481.752
 93.270    709.050    729.057    -20.007    481.524    715.038    481.524    495.477    481.524
 93.370    790.672    744.335     46.337    481.296    729.962    481.296    495.603    481.296
 93.470    804.000    757.847     46.153    481.066    743.206    481.066    495.643    481.066
 93.570    744.000    769.755    -25.755    480.834    754.942    480.834    495.586    480.834
 93.670    814.000    780.329     33.671    480.602    765.446    480.602    495.425    480.602
 93.770    810.000    789.847     20.153    480.368    774.999    480.368    495.160    480.368
 93.870    788.000    798.538    -10.538    480.133    783.825    480.133    494.793    480.133
 93.970    817.000    806.601     10.399    479.896    792.114    479.896    494.334    479.896
 94.070    773.570    814.275    -40.704    479.659    800.094    479.659    493.793    479.659
 94.170    805.814    821.859    -16.045    479.420    808.052    479.420    493.185    479.420
 94.270    865.636    829.661     35.975    479.180    816.276    479.180    492.526    479.180
 94.370    866.000    837.858     28.142    478.938    824.932    478.938    491.830    478.938
 94.470    836.452    846.372     -9.920    478.696    833.925    478.696    491.112    478.696
 94.570    886.000    854.774     31.226    478.452    842.817    478.452    490.383    478.452
 94.670    869.000    862.287      6.713    478.207    850.819    478.207    489.655    478.207
 94.770    999.000    867.847    131.153    477.961    856.859    477.961    488.935    477.961
 94.870    912.000    870.248     41.752    477.714    859.724    477.714    488.231    477.714
 94.970    954.000    868.321     85.679    477.466    858.241    477.466    487.547    477.466
 95.070    810.014    861.405    -51.392    477.217    851.742    477.217    486.888    477.217
 95.170    813.507    849.251    -35.744    476.966    839.977    476.966    486.254    476.966
 95.270    926.000    832.312     93.688    476.715    823.397    476.715    485.649    476.715
 95.370    763.138    811.631    -48.494    476.462    803.044    476.462    485.073    476.462
 95.470    842.000    788.640     53.360    476.208    780.348    476.208    484.526    476.208
 95.570    817.709    764.949     52.760    475.954    756.920    475.954    484.008    475.954
 95.670    724.000    742.219    -18.219    475.698    734.423    475.698    483.519    475.698
 95.770    740.223    722.040     18.183    475.441    714.445    475.441    483.058    475.441
 95.870    738.000    705.877     32.123    475.183    698.454    475.183    482.624    475.183
 95.970    733.041    695.048     37.992    474.924    687.770    474.924    482.217    474.924
 96.070    670.275    690.703    -20.428    474.665    683.540    474.665    481.835    474.665
 96.170    744.000    693.799     50.201    474.404    686.728    474.404    481.478    474.404
 96.270    687.000    705.102    -18.102    474.142    698.096    474.142    481.144    474.142
 96.370    740.678    725.158     15.520    473.880    718.195    473.880    480.833    473.880
 96.470    746.000    754.280     -8.280    473.616    747.335    473.616    480.545    473.616
 96.570    799.000    792.498      6.502    473.352    785.550    473.352    480.277    473.352
 96.670    799.000    839.514    -40.514    473.086    832.543    473.086    480.031    473.086
 96.770    860.697    894.636    -33.939    472.820    887.620    472.820    479.805    472.820
 96.870    892.000    956.717    -64.717    472.553    949.638    472.553    479.599    472.553
 96.970    994.756   1024.108    -29.352    472.285   1016.945    472.285    479.414    472.285
 97.070   1071.000   1094.622    -23.622    472.017   1087.357    472.017    479.250    472.017
 97.170   1102.389   1165.532    -63.143    471.747   1158.145    471.747    479.106    471.747
 97.270   1151.000   1233.605    -82.605    471.477   1226.076    471.477    478.985    471.477
 97.370   1267.458   1295.212    -27.754    471.206   1287.521    471.206    478.887    471.206
 97.470   1414.515   1346.567     67.948    470.934   1338.691    470.934    478.814    470.934
 97.570   1361.938   1384.130    -22.192    470.662   1376.046    470.662    478.766    470.662
 97.670   1344.907   1405.162    -60.255    470.389   1396.843    470.389    478.747    470.389
 97.770   1423.000   1408.251     14.749    470.115   1399.665    470.115    478.758    470.115
 97.870   1404.000   1393.600     10.400    469.840   1384.714    469.840    478.802    469.840
 97.970   1334.000   1362.932    -28.932    469.565   1353.705    469.565    478.882    469.565
 98.070   1268.612   1319.078    -50.466    469.289   1309.468    469.289    479.002    469.289
 98.170   1338.000   1265.477     72.523    469.012   1255.435    469.012    479.164    469.012
 98.270   1206.000   1205.746      0.254    468.735   1195.219    468.735    479.374    468.735
 98.370   1118.000   1143.392    -25.392    468.458   1132.326    468.458    479.635    468.458
 98.470   1076.452   1081.649     -5.197    468.179   1069.983    468.179    479.952    468.179
 98.570    965.384   1023.372    -57.989    467.901   1011.043    467.901    480.330    467.901
 98.670    928.013    971.087    -43.075    467.621    958.026    467.621    480.774    467.621
 98.770    933.000    926.856      6.144    467.341    912.991    467.341    481.288    467.341
 98.870    858.638    892.371    -33.733    467.061    877.625    467.061    481.879    467.061
 98.970    903.617    868.964     34.653    466.780    853.256    466.780    482.550    466.780
 99.070    768.000    857.626    -89.626    466.499    840.869    466.499    483.307    466.499
 99.170    802.618    859.036    -56.418    466.217    841.142    466.217    484.155    466.217
 99.270    891.000    873.590     17.410    465.935    854.465    465.935    485.098    465.935
 99.370    925.000    901.414     23.586    465.653    880.961    465.653    486.139    465.653
 99.470    960.000    942.361     17.639    465.370    920.482    465.370    487.281    465.370
 99.570   1006.000    995.994     10.006    465.087    972.588    465.087    488.526    465.087
 99.670   1106.000   1061.545     44.455    464.803   1036.512    464.803    489.874    464.803
 99.770   1185.000   1137.871     47.129    464.520   1111.112    464.520    491.325    464.520
 99.870   1242.000   1223.397     18.603    464.235   1194.817    464.235    492.876    464.235
 99.970   1291.000   1316.072    -25.072    463.951   1285.580    463.951    494.520    463.951
100.070   1407.000   1413.339     -6.339    463.667   1380.854    463.667    496.248    463.667
100.170   1559.263   1512.157     47.105    463.382   1477.610    463.382    498.050    463.382
100.270   1600.000   1609.103     -9.103    463.097   1572.442    463.097    499.906    463.097
100.370   1717.952   1700.573     17.380    462.812   1661.767    462.812    501.796    462.812
100.470   1803.000   1783.079     19.921    462.527   1742.125    462.527    503.691    462.527
100.570   1903.000   1853.548     49.452    462.241   1810.476    462.241    505.556    462.241
100.670   1882.000   1909.514    -27.514    461.956   1864.393    461.956    507.350    461.956
100.770   1923.000   1949.140    -26.140    461.670   1902.085    461.670    509.025    461.670
100.870   1984.000   1971.130     12.870    461.385   1922.307    461.385    510.530    461.385
100.970   1946.943   1974.676    -27.734    461.099   1924.306    461.099    511.811    461.099
101.070   1964.413   1959.572      4.842    460.813   1907.925    460.813    512.814    460.813
101.170   1976.000   1926.474     49.526    460.528   1873.871    460.528    513.491    460.528
101.270   1837.312   1877.161    -39.850    460.242   1823.958    460.242    513.805    460.242
101.370   1796.000   1814.562    -18.562    459.957   1761.141    459.957    513.729    459.957
101.470   1663.396   1742.490    -79.094    459.672   1689.243    459.672    513.257    459.672
101.570   1664.091   1665.163     -1.073    459.386   1612.475    459.386    512.397    459.386
101.670   1640.267   1586.666     53.601    459.101   1534.895    459.101    511.174    459.101
101.770   1574.000   1510.564     63.436    458.816   1460.034    458.816    509.626    458.816
101.870   1394.000   1439.672    -45.672    458.532   1390.659    458.532    507.802    458.532
101.970   1338.000   1375.952    -37.952    458.247   1328.679    458.247    505.755    458.247
102.070   1316.000   1320.502     -4.502    457.963   1275.141    457.963    503.540    457.963
102.170   1199.000   1273.602    -74.602    457.679   1230.271    457.679    501.208    457.679
102.270   1311.000   1234.777     76.223    457.396   1193.549    457.396    498.806    457.396
102.370   1194.000   1202.895     -8.895    457.112   1163.802    457.112    496.377    457.112
102.470   1154.852   1176.295    -21.443    456.829   1139.334    456.829    493.953    456.829
102.570   1125.983   1152.964    -26.981    456.547   1118.103    456.547    491.563    456.547
102.670   1162.952   1130.745     32.208    456.265   1097.930    456.265    489.231    456.265
102.770   1064.673   1107.680    -43.007    455.983   1076.840    455.983    486.971    455.983
102.870   1073.562   1082.183     -8.620    455.702   1053.233    455.702    484.798    455.702
102.970   1061.000   1053.283      7.717    455.421   1026.128    455.421    482.719    455.421
103.070    945.000   1020.689    -75.689    455.141    995.229    455.141    480.740    455.141
103.170    986.153    984.705      1.448    454.862    960.836    454.862    478.864    454.862
103.270    910.000    946.056    -36.056    454.583    923.673    454.583    477.093    454.583
103.370    866.000    905.701    -39.701    454.304    884.700    454.304    475.426    454.304
103.470    917.000    864.675     52.325    454.026    844.953    454.026    473.860    454.026
103.570    827.000    823.979      3.021    453.749    805.436    453.749    472.394    453.749
103.670    806.000    784.517     21.483    453.473    767.059    453.473    471.023    453.473
103.770    745.000    747.058     -2.058    453.198    730.594    453.198    469.744    453.198
103.870    735.000    712.210     22.790    452.923    696.654    452.923    468.552    452.923
103.970    691.555    680.413     11.142    452.649    665.685    452.649    467.441    452.649
104.070    686.595    651.936     34.659    452.375    637.960    452.375    466.407    452.375
104.170    644.073    626.890     17.184    452.103    613.595    452.103    465.444    452.103
104.270    617.000    605.244     11.756    451.832    592.567    451.832    464.548    451.832
104.370    635.000    586.854     48.146    451.561    574.734    451.561    463.714    451.561
104.470    576.000    571.491      4.509    451.292    559.874    451.292    462.936    451.292
104.570    624.000    558.872     65.128    451.023    547.707    451.023    462.210    451.023
104.670    564.000    548.686     15.314    450.755    537.928    450.755    461.532    450.755
104.770    566.000    540.624     25.376    450.489    530.231    450.489    460.897    450.489
104.870    552.000    534.390     17.610    450.224    524.324    450.224    460.301    450.224
104.970    559.000    529.724     29.276    449.959    519.951    449.959    459.742    449.959
105.070    528.924    526.407      2.517    449.696    516.894    449.696    459.216    449.696
105.170    522.000    524.262     -2.262    449.434    514.982    449.434    458.719    449.434
105.270    556.000    523.163     32.837    449.173    514.090    449.173    458.249    449.173
105.370    571.000    523.025     47.975    448.914    514.135    448.914    457.805    448.914
105.470    553.000    523.805     29.195    448.656    515.076    448.656    457.383    448.656
105.570    526.000    525.494      0.506    448.399    516.908    448.399    456.982    448.399
105.670    568.014    528.113     39.901    448.143    519.651    448.143    456.600    448.143
105.770    546.000    531.704     14.296    447.889    523.349    447.889    456.237    447.889
105.870    540.000    536.320      3.680    447.636    528.058    447.636    455.889    447.636
105.970    583.070    542.018     41.052    447.385    533.833    447.385    455.558    447.385
106.070    553.895    548.842      5.053    447.135    540.722    447.135    455.241    447.135
106.170    527.189    556.816    -29.627    446.887    548.748    446.887    454.937    446.887
106.270    528.241    565.927    -37.686    446.640    557.899    446.640    454.647    446.640
106.370    587.000    576.120     10.880    446.395    568.122    446.395    454.370    446.395
106.470    573.000    587.289    -14.289    446.151    579.311    446.151    454.104    446.151
106.570    580.000    599.274    -19.274    445.910    591.305    445.910    453.851    445.910
106.670    628.000    611.858     16.142    445.669    603.889    445.669    453.608    445.669
106.770    609.000    624.769    -15.769    445.431    616.792    445.431    453.377    445.431
106.870    650.000    637.687     12.313    445.194    629.692    445.194    453.156    445.194
106.970    660.893    650.248     10.645    444.960    642.227    444.960    452.947    444.960
107.070    649.000    662.062    -13.062    444.727    654.007    444.727    452.748    444.727
107.170    706.201    672.735     33.466    444.496    664.638    444.496    452.560    444.496
107.270    619.000    681.904    -62.904    444.267    673.758    444.267    452.382    444.267
107.370    709.556    689.286     20.270    444.040    681.082    444.040    452.215    444.040
107.470    663.000    694.719    -31.719    443.814    686.450    443.814    452.059    443.814
107.570    689.918    698.203     -8.285    443.591    689.859    443.591    451.913    443.591
107.670    676.298    699.900    -23.603    443.370    691.474    443.370    451.779    443.370
107.770    683.991    700.114    -16.122    443.152    691.596    443.152    451.656    443.152
107.870    667.195    699.240    -32.045    442.935    690.622    442.935    451.544    442.935
107.970    679.000    697.706    -18.706    442.720    688.978    442.720    451.444    442.720
108.070    649.000    695.914    -46.914    442.508    687.066    442.508    451.356    442.508
108.170    647.000    694.206    -47.206    442.298    685.228    442.298    451.280    442.298
108.270    618.000    692.836    -74.836    442.091    683.718    442.091    451.217    442.091
108.370    654.000    691.958    -37.958    441.885    682.688    441.885    451.167    441.885
108.470    675.000    691.611    -16.611    441.683    682.178    441.683    451.132    441.683
108.570    703.560    691.723     11.838    441.482    682.115    441.482    451.110    441.482
108.670    692.000    692.109     -0.109    441.284    682.314    441.284    451.104    441.284
108.770    678.000    692.510    -14.510    441.089    682.514    441.089    451.113    441.089
108.870    651.704    692.577    -40.873    440.896    682.366    440.896    451.139    440.896
108.970    733.142    691.924     41.218    440.706    681.483    440.706    451.183    440.706
109.070    704.000    690.176     13.824    440.518    679.488    440.518    451.245    440.518
109.170    648.608    687.021    -38.414    440.334    676.068    440.334    451.327    440.334
109.270    723.000    682.257     40.743    440.151    671.020    440.151    451.430    440.151
109.370    643.000    675.825    -32.825    439.972    664.284    439.972    451.555    439.972
109.470    633.914    667.807    -33.893    439.796    655.941    439.796    451.705    439.796
109.570    631.000    658.411    -27.411    439.622    646.195    439.622    451.880    439.622
109.670    621.000    647.925    -26.925    439.451    635.334    439.451    452.083    439.451
109.770    638.000    636.682      1.318    439.284    623.688    439.284    452.316    439.284
109.870    674.000    625.023     48.977    439.119    611.598    439.119    452.582    439.119
109.970    653.752    613.276     40.476    438.957    599.386    438.957    452.882    438.957
110.070    590.295    601.737    -11.442    438.799    587.348    438.799    453.220    438.799
110.170    602.311    590.667     11.645    438.644    575.740    438.644    453.599    438.644
110.270    588.262    580.280      7.981    438.491    564.776    438.491    454.021    438.491
110.370    578.000    570.751      7.249    438.342    554.624    438.342    454.492    438.342
110.470    546.770    562.206    -15.437    438.197    545.408    438.197    455.014    438.197
110.570    533.000    554.729    -21.729    438.054    537.208    438.054    455.592    438.054
110.670    570.000    548.363     21.637    437.915    530.062    437.915    456.230    437.915
110.770    578.000    543.114     34.886    437.780    523.972    437.780    456.934    437.780
110.870    510.196    538.960    -28.764    437.648    518.909    437.648    457.707    437.648
110.970    556.865    535.851     21.014    437.519    514.821    437.519    458.557    437.519
111.070    532.000    533.721     -1.721    437.394    511.633    437.394    459.487    437.394
111.170    557.000    532.494     24.506    437.273    509.266    437.273    460.505    437.273
111.270    502.479    532.086    -29.607    437.155    507.628    437.155    461.615    437.155
111.370    571.000    532.411     38.589    437.041    506.628    437.041    462.825    437.041
111.470    537.000    533.388      3.612    436.931    506.178    436.931    464.140    436.931
111.570    524.728    534.939    -10.211    436.824    506.195    436.824    465.567    436.824
111.670    517.000    536.996    -19.996    436.721    506.604    436.721    467.112    436.721
111.770    499.000    539.500    -40.500    436.623    507.339    436.623    468.781    436.623
111.870    525.000    542.400    -17.400    436.528    508.344    436.528    470.581    436.528
111.970    554.000    545.659      8.341    436.437    509.574    436.437    472.517    436.437
112.070    561.000    549.247     11.753    436.351    510.998    436.351    474.595    436.351
112.170    570.000    553.151     16.849    436.268    512.594    436.268    476.820    436.268
112.270    550.000    557.364     -7.364    436.189    514.353    436.189    479.195    436.189
112.370    550.000    561.894    -11.894    436.115    516.278    436.115    481.726    436.115
112.470    573.000    566.758      6.242    436.045    518.385    436.045    484.413    436.045
112.570    543.000    571.985    -28.985    435.979    520.701    435.979    487.259    435.979
112.670    580.000    577.613      2.387    435.918    523.262    435.918    490.263    435.918
112.770    542.669    583.690    -41.021    435.861    526.121    435.861    493.424    435.861
112.870    615.000    590.280     24.720    435.809    529.344    435.809    496.739    435.809
112.970    562.000    597.464    -35.464    435.761    533.017    435.761    500.202    435.761
113.070    601.000    605.345     -4.345    435.717    537.251    435.717    503.804    435.717
113.170    604.503    614.054     -9.550    435.679    542.190    435.679    507.534    435.679
113.270    576.118    623.761    -47.643    435.645    548.020    435.645    511.377    435.645
113.370    636.000    634.689      1.311    435.615    554.980    435.615    515.314    435.615
113.470    657.184    647.119     10.066    435.591    563.378    435.591    519.320    435.591
113.570    621.000    661.413    -40.413    435.571    573.605    435.571    523.367    435.571
113.670    675.000    678.033     -3.033    435.556    586.153    435.556    527.419    435.556
113.770    655.000    697.551    -42.551    435.546    601.641    435.546    531.437    435.546
113.870    743.191    720.683     22.508    435.541    620.827    435.541    535.374    435.541
113.970    711.006    748.295    -37.289    435.542    644.632    435.542    539.176    435.542
114.070    718.000    781.411    -63.411    435.547    674.136    435.547    542.787    435.547
114.170    810.000    821.305    -11.305    435.557    710.675    435.557    546.144    435.557
114.270    838.000    869.441    -31.441    435.573    755.777    435.573    549.183    435.573
114.370    894.964    927.445    -32.481    435.594    811.132    435.594    551.842    435.594
114.470    951.302    997.156    -45.854    435.620    878.637    435.620    554.060    435.620
114.570   1039.000   1080.582    -41.582    435.652    960.354    435.652    555.784    435.652
114.670   1181.908   1179.855      2.054    435.689   1058.460    435.689    556.970    435.689
114.770   1344.703   1297.168     47.535    435.732   1175.178    435.732    557.587    435.732
114.870   1424.000   1434.692    -10.692    435.780   1312.695    435.780    557.620    435.780
114.970   1697.000   1594.467    102.533    435.834   1473.050    435.834    557.069    435.834
115.070   1755.691   1778.278    -22.587    435.894   1658.014    435.894    555.950    435.894
115.170   1904.180   1987.519    -83.339    435.959   1868.950    435.959    554.294    435.959
115.270   2134.409   2223.042    -88.632    436.030   2106.665    436.030    552.147    436.030
115.370   2517.455   2485.007     32.448    436.107   2371.269    436.107    549.561    436.107
115.470   2757.000   2772.745    -15.745    436.190   2662.032    436.190    546.597    436.190
115.570   3091.000   3084.632      6.368    436.279   2977.268    436.279    543.319    436.279
115.670   3376.000   3417.993    -41.993    436.374   3314.241    436.374    539.790    436.374
115.770   3847.035   3769.040     77.995    436.475   3669.101    436.475    536.072    436.475
115.870   4228.000   4132.851     95.149    436.582   4036.871    436.582    532.222    436.582
115.970   4346.000   4503.386   -157.386    436.696   4411.460    436.696    528.294    436.696
116.070   4821.081   4873.556    -52.475    436.815   4785.732    436.815    524.334    436.815
116.170   5099.290   5235.335   -136.045    436.941   5151.622    436.941    520.383    436.941
116.270   5591.854   5579.930     11.925    437.074   5500.304    437.074    516.475    437.074
116.370   5779.000   5898.023   -119.023    437.213   5822.431    437.213    512.639    437.213
116.470   6119.000   6180.105    -61.105    437.358   6108.470    437.358    508.899    437.358
116.570   6485.033   6416.921     68.112    437.510   6349.144    437.510    505.274    437.510
116.670   6676.000   6600.034     75.966    437.669   6536.001    437.669    501.780    437.669
116.770   6781.000   6722.477     58.523    437.835   6662.059    437.835    498.428    437.835
116.870   6906.947   6779.399    127.548    438.007   6722.455    438.007    495.225    438.007
116.970   6719.821   6768.574    -48.753    438.186   6714.954    438.186    492.179    438.186
117.070   6679.715   6690.655    -10.940    438.372   6640.200    438.372    489.293    438.372
117.170   6645.000   6549.085     95.915    438.565   6501.630    438.565    486.568    438.565
117.270   6368.000   6349.703     18.297    438.765   6305.082    438.765    484.004    438.765
117.370   6023.000   6100.151    -77.151    438.972   6058.195    438.972    481.599    438.972
117.470   5723.810   5809.207    -85.398    439.187   5769.750    439.187    479.353    439.187
117.570   5467.000   5486.178    -19.178    439.408   5449.057    439.408    477.260    439.408
117.670   5116.000   5140.384    -24.384    439.637   5105.442    439.637    475.317    439.637
117.770   4670.000   4780.778   -110.778    439.874   4747.861    439.874    473.519    439.874
117.870   4490.594   4415.655     74.939    440.117   4384.620    440.117    471.860    440.117
117.970   4160.000   4052.459    107.541    440.368   4023.169    440.368    470.336    440.368
118.070   3726.000   3697.643     28.357    440.627   3669.967    440.627    468.939    440.627
118.170   3269.475   3356.587    -87.112    440.894   3330.406    440.894    467.665    440.894
118.270   2993.000   3033.575    -40.575    441.168   3008.777    441.168    466.506    441.168
118.370   2743.138   2731.807     11.330    441.450   2708.287    441.450    465.456    441.450
118.470   2590.000   2453.457    136.543    441.740   2431.118    441.740    464.510    441.740
118.570   2281.000   2199.759     81.241    442.037   2178.513    442.037    463.661    442.037
118.670   2028.521   1971.121     57.400    442.343   1950.887    442.343    462.904    442.343
118.770   1700.000   1767.243    -67.243    442.657   1747.947    442.657    462.232    442.657
118.870   1588.000   1587.250      0.750    442.979   1568.822    442.979    461.641    442.979
118.970   1412.000   1429.814    -17.814    443.309   1412.193    443.309    461.124    443.309
119.070   1335.000   1293.287     41.713    443.647   1276.416    443.647    460.678    443.647
119.170   1131.000   1175.814    -44.814    443.994   1159.638    443.994    460.298    443.994
119.270   1078.949   1075.434      3.515    444.349   1059.907    444.349    459.979    444.349
119.370   1000.000    990.178      9.822    444.712    975.255    444.712    459.717    444.712
119.470    869.111    918.134    -49.023    445.085    903.773    445.085    459.509    445.085
119.570    834.000    857.504    -23.504    445.465    843.669    445.465    459.351    445.465
119.670    817.078    806.641     10.437    445.855    793.296    445.855    459.239    445.855
119.770    727.360    764.069    -36.709    446.253    751.181    446.253    459.172    446.253
119.870    747.000    728.489     18.511    446.660    716.028    446.660    459.146    446.660
119.970    693.000    698.781     -5.781    447.076    686.718    447.076    459.158    447.076
120.070    655.000    673.991    -18.991    447.501    662.300    447.501    459.208    447.501
120.170    613.744    653.318    -39.574    447.935    641.975    447.935    459.292    447.935
120.270    601.096    636.098    -35.002    448.378    625.080    448.378    459.408    448.378
120.370    587.810    621.784    -33.974    448.830    611.069    448.830    459.556    448.830
120.470    621.000    609.931     11.069    449.292    599.500    449.292    459.734    449.292
120.570    608.000    600.178      7.822    449.763    590.011    449.763    459.940    449.763
120.670    581.042    592.232    -11.190    450.243    582.312    450.243    460.174    450.243
120.770    583.000    585.858     -2.858    450.733    576.169    450.733    460.433    450.733
120.870    623.467    580.867     42.600    451.233    571.393    451.233    460.718    451.233
120.970    562.000    577.104    -15.104    451.742    567.831    451.742    461.027    451.742
121.070    533.743    574.443    -40.700    452.261    565.357    452.261    461.359    452.261
121.170    578.000    572.779      5.221    452.789    563.868    452.789    461.715    452.789
121.270    539.660    572.023    -32.363    453.328    563.274    453.328    462.092    453.328
121.370    539.000    572.087    -33.087    453.877    563.489    453.877    462.491    453.877
121.470    578.000    572.885      5.115    454.435    564.428    454.435    462.910    454.435
121.570    552.000    574.403    -22.403    455.004    566.077    455.004    463.350    455.004
121.670    567.000    576.547     -9.547    455.583    568.343    455.583    463.809    455.583
121.770    603.000    579.244     23.756    456.172    571.153    456.172    464.287    456.172
121.870    559.000    582.423    -23.423    456.772    574.436    456.772    464.784    456.772
121.970    588.697    586.005      2.692    457.382    578.116    457.382    465.299    457.382
122.070    586.000    589.908     -3.908    458.002    582.110    458.002    465.831    458.002
122.170    599.000    594.043      4.957    458.633    586.331    458.633    466.380    458.633
122.270    571.000    598.315    -27.315    459.275    590.683    459.275    466.945    459.275
122.370    629.239    602.622     26.616    459.928    595.066    459.928    467.525    459.928
122.470    597.000    606.859     -9.859    460.591    599.374    460.591    468.119    460.591
122.570    609.000    610.914     -1.914    461.265    603.498    461.265    468.728    461.265
122.670    605.699    614.677     -8.978    461.951    607.329    461.951    469.349    461.951
122.770    661.000    618.040     42.960    462.647    610.757    462.647    469.982    462.647
122.870    611.000    620.900     -9.900    463.355    613.683    463.355    470.627    463.355
122.970    625.000    623.170      1.830    464.074    616.018    464.074    471.282    464.074
123.070    644.000    624.776     19.224    464.804    617.692    464.804    471.946    464.804
123.170    642.279    625.670     16.609    465.546    618.656    465.546    472.619    465.546
123.270    633.000    625.828      7.172    466.299    618.886    466.299    473.301    466.299
123.370    608.000    625.250    -17.250    467.063    618.384    467.063    473.989    467.063
123.470    639.000    623.962     15.038    467.840    617.177    467.840    474.685    467.840
123.570    613.000    622.011     -9.011    468.628    615.311    468.628    475.387    468.628
123.670    644.000    619.457     24.543    469.428    612.847    469.428    476.096    469.428
123.770    616.000    616.373     -0.373    470.240    609.857    470.240    476.811    470.240
123.870    615.074    612.837      2.236    471.064    606.421    471.064    477.532    471.064
123.970    631.000    608.930     22.070    471.900    602.619    471.900    478.261    471.900
124.070    559.253    604.733    -45.480    472.748    598.531    472.748    478.997    472.748
124.170    551.887    600.323    -48.436    473.608    594.235    473.608    479.740    473.608
124.270    588.839    595.775     -6.936    474.481    589.804    474.481    480.493    474.481
124.370    577.101    591.156    -14.055    475.366    585.305    475.366    481.254    475.366
124.470    628.459    586.528     41.931    476.264    580.800    476.264    482.026    476.264
124.570    570.000    581.943    -11.943    477.175    576.339    477.175    482.809    477.175
124.670    617.000    577.447     39.553    478.098    571.970    478.098    483.603    478.098
124.770    597.811    573.079     24.732    479.034    567.728    479.034    484.409    479.034
124.870    531.320    568.869    -37.548    479.982    563.644    479.982    485.229    479.982
124.970    563.000    564.840     -1.840    480.944    559.741    480.944    486.062    480.944
