neutron_powder_diffraction_0240
R_wp: 4.065
Temperature (K): 997.406
Counts: 83914.00
Wavelength (Ã…): 2.52098
COMMENTS
Test file for demonstrating the .xyy file format in Reel1.0
END OF HEADER
   tth       Y_obs     Y_calc      Y_res    Background    Phase_1_Nuc    Phase_1_Mag    Phase_2_Nuc    Phase_2_Mag
  9.970    631.000    580.064     50.936    579.432    580.043    579.432    579.452    579.432
 10.070    579.000    580.018     -1.018    579.334    579.997    579.334    579.355    579.334
 10.170    590.000    579.975     10.025    579.232    579.954    579.232    579.253    579.232
 10.270    584.000    579.937      4.063    579.126    579.916    579.126    579.146    579.126
 10.370    579.000    579.906     -0.906    579.015    579.885    579.015    579.036    579.015
 10.470    650.000    579.884     70.116    578.900    579.862    578.900    578.921    578.900
 10.570    550.929    579.874    -28.945    578.781    579.853    578.781    578.802    578.781
 10.670    581.000    579.882      1.118    578.657    579.860    578.657    578.678    578.657
 10.770    590.000    579.912     10.088    578.530    579.890    578.530    578.551    578.530
 10.870    586.000    579.972      6.028    578.398    579.950    578.398    578.419    578.398
 10.970    538.786    580.075    -41.289    578.262    580.052    578.262    578.284    578.262
 11.070    630.000    580.234     49.766    578.122    580.212    578.122    578.144    578.122
 11.170    585.000    580.474      4.526    577.979    580.451    577.979    578.000    577.979
 11.270    623.161    580.829     42.332    577.831    580.806    577.831    577.853    577.831
 11.370    590.000    581.357      8.643    577.680    581.333    577.680    577.702    577.680
 11.470    623.789    582.181     41.608    577.524    582.157    577.524    577.546    577.524
 11.570    563.000    583.637    -20.637    577.365    583.612    577.365    577.387    577.365
 11.670    569.598    586.722    -17.124    577.202    586.695    577.202    577.225    577.202
 11.770    671.000    593.926     77.074    577.036    593.895    577.036    577.058    577.036
 11.870    622.000    609.683     12.317    576.866    609.642    576.866    576.888    576.866
 11.970    674.977    638.213     36.764    576.692    638.156    576.692    576.715    576.692
 12.070    663.000    677.219    -14.219    576.514    677.140    576.514    576.537    576.514
 12.170    688.000    711.063    -23.063    576.333    710.965    576.333    576.357    576.333
 12.270    760.684    716.696     43.988    576.149    716.595    576.149    576.172    576.149
 12.370    625.000    688.814    -63.814    575.961    688.729    575.961    575.985    575.961
 12.470    655.000    648.294      6.706    575.770    648.230    575.770    575.794    575.770
 12.570    617.802    615.306      2.496    575.576    615.260    575.576    575.599    575.576
 12.670    579.000    595.671    -16.671    575.378    595.636    575.378    575.401    575.378
 12.770    565.614    586.173    -20.560    575.177    586.143    575.177    575.201    575.177
 12.870    590.628    581.924      8.704    574.972    581.896    574.972    574.996    574.972
 12.970    555.000    579.807    -24.807    574.765    579.780    574.765    574.789    574.765
 13.070    567.000    578.495    -11.495    574.554    578.469    574.554    574.579    574.554
 13.170    535.000    577.540    -42.540    574.340    577.511    574.340    574.368    574.340
 13.270    546.000    576.781    -30.781    574.123    576.751    574.123    574.152    574.123
 13.370    587.000    576.150     10.850    573.903    576.120    573.903    573.933    573.903
 13.470    564.000    575.609    -11.609    573.681    575.578    573.681    573.710    573.681
 13.570    557.000    575.133    -18.133    573.455    575.101    573.455    573.486    573.455
 13.670    505.000    574.703    -69.703    573.226    574.670    573.226    573.258    573.226
 13.770    574.000    574.307     -0.307    572.994    574.274    572.994    573.026    572.994
 13.870    602.000    573.937     28.063    572.760    573.904    572.760    572.792    572.760
 13.970    534.000    573.587    -39.587    572.523    573.554    572.523    572.555    572.523
 14.070    569.980    573.252     -3.272    572.283    573.219    572.283    572.315    572.283
 14.170    608.439    572.929     35.510    572.040    572.896    572.040    572.073    572.040
 14.270    588.000    572.615     15.385    571.795    572.581    571.795    571.828    571.795
 14.370    542.862    572.308    -29.445    571.547    572.274    571.547    571.580    571.547
 14.470    562.121    572.007     -9.886    571.296    571.974    571.296    571.330    571.296
 14.570    543.000    571.712    -28.712    571.043    571.679    571.043    571.077    571.043
 14.670    565.255    571.418     -6.163    570.788    571.384    570.788    570.821    570.788
 14.770    602.000    571.126     30.874    570.529    571.092    570.529    570.563    570.529
 14.870    569.000    570.835     -1.835    570.269    570.801    570.269    570.303    570.269
 14.970    548.395    570.546    -22.151    570.006    570.511    570.006    570.041    570.006
 15.070    578.000    570.263      7.737    569.741    570.221    569.741    569.782    569.741
 15.170    589.713    569.981     19.732    569.473    569.932    569.473    569.521    569.473
 15.270    503.000    569.692    -66.692    569.203    569.643    569.203    569.252    569.203
 15.370    566.000    569.404     -3.404    568.931    569.354    568.931    568.980    568.931
 15.470    562.000    569.116     -7.116    568.656    569.066    568.656    568.706    568.656
 15.570    570.224    568.827      1.397    568.380    568.777    568.380    568.430    568.380
 15.670    539.258    568.536    -29.278    568.101    568.486    568.101    568.151    568.101
 15.770    579.000    568.248     10.752    567.820    568.194    567.820    567.874    567.820
 15.870    570.000    567.958      2.042    567.537    567.901    567.537    567.594    567.537
 15.970    550.000    567.665    -17.665    567.252    567.607    567.252    567.310    567.252
 16.070    566.000    567.370     -1.370    566.965    567.312    566.965    567.023    566.965
 16.170    535.000    567.074    -32.074    566.676    567.015    566.676    566.734    566.676
 16.270    549.000    566.777    -17.777    566.385    566.718    566.385    566.444    566.385
 16.370    557.829    566.480     -8.651    566.092    566.419    566.092    566.152    566.092
 16.470    544.000    566.180    -22.180    565.797    566.120    565.797    565.858    565.797
 16.570    572.000    565.880      6.120    565.500    565.818    565.500    565.562    565.500
 16.670    537.000    565.578    -28.578    565.202    565.516    565.202    565.264    565.202
 16.770    593.000    565.274     27.726    564.902    565.212    564.902    564.964    564.902
 16.870    547.000    564.970    -17.970    564.600    564.907    564.600    564.662    564.600
 16.970    555.000    564.664     -9.664    564.296    564.601    564.296    564.359    564.296
 17.070    544.000    564.357    -20.357    563.991    564.294    563.991    564.054    563.991
 17.170    561.466    564.050     -2.584    563.684    563.986    563.684    563.748    563.684
 17.270    596.000    563.742     32.258    563.375    563.678    563.375    563.440    563.375
 17.370    586.000    563.432     22.568    563.065    563.367    563.065    563.130    563.065
 17.470    606.000    563.120     42.880    562.754    563.055    562.754    562.819    562.754
 17.570    605.000    562.807     42.193    562.440    562.741    562.440    562.506    562.440
 17.670    595.000    562.493     32.507    562.126    562.427    562.126    562.192    562.126
 17.770    529.446    562.178    -32.731    561.810    562.111    561.810    561.876    561.810
 17.870    570.000    561.861      8.139    561.492    561.794    561.492    561.559    561.492
 17.970    535.000    561.543    -26.543    561.173    561.476    561.173    561.241    561.173
 18.070    541.000    561.225    -20.225    560.853    561.157    560.853    560.921    560.853
 18.170    567.277    560.905      6.372    560.531    560.836    560.531    560.600    560.531
 18.270    553.000    560.584     -7.584    560.208    560.515    560.208    560.278    560.208
 18.370    541.797    560.263    -18.466    559.884    560.193    559.884    559.954    559.884
 18.470    600.867    559.940     40.927    559.559    559.870    559.559    559.629    559.559
 18.570    579.000    559.616     19.384    559.232    559.545    559.232    559.303    559.232
 18.670    536.000    559.292    -23.292    558.904    559.220    558.904    558.976    558.904
 18.770    507.000    558.966    -51.966    558.575    558.894    558.575    558.648    558.575
 18.870    546.000    558.641    -12.641    558.245    558.568    558.245    558.319    558.245
 18.970    542.000    558.317    -16.317    557.914    558.240    557.914    557.991    557.914
 19.070    584.000    557.989     26.011    557.582    557.912    557.582    557.660    557.582
 19.170    541.000    557.662    -16.662    557.249    557.583    557.249    557.327    557.249
 19.270    541.533    557.334    -15.801    556.915    557.254    556.915    556.995    556.915
 19.370    571.428    557.004     14.424    556.580    556.923    556.580    556.660    556.580
 19.470    598.632    556.674     41.958    556.244    556.593    556.244    556.325    556.244
 19.570    554.000    556.345     -2.345    555.907    556.262    555.907    555.989    555.907
 19.670    591.397    556.014     35.383    555.569    555.930    555.569    555.652    555.569
 19.770    563.572    555.682      7.890    555.230    555.598    555.230    555.314    555.230
 19.870    571.000    555.354     15.646    554.890    555.269    554.890    554.975    554.890
 19.970    538.783    555.041    -16.257    554.550    554.955    554.550    554.636    554.550
 20.070    528.000    554.710    -26.710    554.209    554.623    554.209    554.295    554.209
 20.170    569.000    554.376     14.624    553.867    554.289    553.867    553.954    553.867
 20.270    551.511    554.043     -2.532    553.524    553.955    553.524    553.613    553.524
 20.370    531.544    553.709    -22.165    553.181    553.620    553.181    553.270    553.181
 20.470    546.362    553.375     -7.013    552.837    553.285    552.837    552.927    552.837
 20.570    534.000    553.041    -19.041    552.493    552.950    552.493    552.583    552.493
 20.670    591.000    552.707     38.293    552.147    552.616    552.147    552.239    552.147
 20.770    573.000    552.374     20.626    551.802    552.281    551.802    551.894    551.802
 20.870    521.000    552.040    -31.040    551.455    551.946    551.455    551.549    551.455
 20.970    560.483    551.708      8.774    551.108    551.612    551.108    551.205    551.108
 21.070    556.261    551.375      4.886    550.761    551.278    550.761    550.859    550.761
 21.170    584.000    551.042     32.958    550.413    550.944    550.413    550.512    550.413
 21.270    542.000    550.710     -8.710    550.065    550.611    550.065    550.165    550.065
 21.370    590.953    550.379     40.574    549.716    550.278    549.716    549.817    549.716
 21.470    552.000    550.048      1.952    549.367    549.946    549.367    549.469    549.367
 21.570    575.000    549.718     25.282    549.017    549.615    549.017    549.121    549.017
 21.670    565.000    549.390     15.610    548.668    549.286    548.668    548.772    548.668
 21.770    555.094    549.072      6.022    548.317    548.966    548.317    548.423    548.317
 21.870    523.164    548.789    -25.625    547.967    548.682    547.967    548.074    547.967
 21.970    571.000    548.477     22.523    547.616    548.369    547.616    547.724    547.616
 22.070    571.000    548.235     22.765    547.265    548.125    547.265    547.375    547.265
 22.170    589.000    547.947     41.053    546.914    547.835    546.914    547.026    546.914
 22.270    536.955    547.638    -10.683    546.562    547.519    546.562    546.681    546.562
 22.370    591.798    547.331     44.467    546.211    547.210    546.211    546.332    546.211
 22.470    568.000    547.047     20.953    545.859    546.925    545.859    545.981    545.859
 22.570    555.733    546.783      8.951    545.507    546.659    545.507    545.631    545.507
 22.670    538.070    546.487     -8.416    545.155    546.361    545.155    545.281    545.155
 22.770    587.515    546.192     41.322    544.802    546.065    544.802    544.930    544.802
 22.870    520.000    545.906    -25.906    544.450    545.776    544.450    544.580    544.450
 22.970    542.244    545.627     -3.383    544.098    545.496    544.098    544.229    544.098
 23.070    573.000    545.360     27.640    543.745    545.227    543.745    543.879    543.745
 23.170    531.259    545.108    -13.849    543.393    544.973    543.393    543.529    543.393
 23.270    563.673    544.870     18.803    543.041    544.733    543.041    543.179    543.041
 23.370    553.000    544.653      8.347    542.688    544.513    542.688    542.829    542.688
 23.470    560.561    544.461     16.100    542.336    544.319    542.336    542.479    542.336
 23.570    549.000    544.303      4.697    541.984    544.159    541.984    542.129    541.984
 23.670    548.000    544.192      3.808    541.632    544.045    541.632    541.779    541.632
 23.770    564.000    544.143     19.857    541.280    543.993    541.280    541.430    541.280
 23.870    510.800    544.181    -33.381    540.928    544.030    540.928    541.081    540.928
 23.970    588.339    544.353     43.986    540.577    544.199    540.577    540.733    540.577
 24.070    545.342    544.758      0.583    540.225    544.601    540.225    540.384    540.225
 24.170    522.000    545.677    -23.677    539.874    545.517    539.874    540.036    539.874
 24.270    541.000    547.892     -6.892    539.523    547.731    539.523    539.689    539.523
 24.370    511.348    553.188    -41.840    539.172    553.027    539.172    539.341    539.172
 24.470    603.911    564.392     39.520    538.822    564.236    538.822    538.995    538.822
 24.570    649.000    583.691     65.309    538.471    583.546    538.471    538.648    538.471
 24.670    588.000    608.725    -20.725    538.121    608.594    538.121    538.303    538.121
 24.770    628.540    629.043     -0.503    537.772    628.923    537.772    537.957    537.772
 24.870    692.000    630.924     61.076    537.423    630.800    537.423    537.613    537.423
 24.970    595.000    612.469    -17.469    537.074    612.328    537.074    537.269    537.074
 25.070    608.000    586.551     21.449    536.725    586.386    536.725    536.926    536.725
 25.170    582.000    565.198     16.802    536.377    565.012    536.377    536.583    536.377
 25.270    531.000    552.051    -21.051    536.030    551.849    536.030    536.241    536.030
 25.370    576.805    545.376     31.429    535.682    545.163    535.682    535.901    535.682
 25.470    498.501    542.232    -43.731    535.336    542.008    535.336    535.563    535.336
 25.570    516.237    540.610    -24.373    534.989    540.377    534.989    535.224    534.989
 25.670    544.000    539.593      4.407    534.644    539.352    534.644    534.886    534.644
 25.770    552.000    538.838     13.162    534.298    538.588    534.298    534.549    534.298
 25.870    530.352    538.235     -7.884    533.954    537.976    533.954    534.213    533.954
 25.970    508.056    537.739    -29.683    533.609    537.471    533.609    533.879    533.609
 26.070    554.699    537.325     17.374    533.266    537.046    533.266    533.545    533.266
 26.170    540.000    536.976      3.024    532.923    536.686    532.923    533.214    532.923
 26.270    529.000    536.686     -7.686    532.580    536.383    532.580    532.883    532.580
 26.370    518.504    536.455    -17.950    532.239    536.139    532.239    532.554    532.239
 26.470    541.000    536.317      4.683    531.897    535.987    531.897    532.228    531.897
 26.570    545.000    536.193      8.807    531.557    535.847    531.557    531.903    531.557
 26.670    545.000    536.126      8.874    531.217    535.763    531.217    531.580    531.217
 26.770    550.000    536.128     13.872    530.878    535.746    530.878    531.260    530.878
 26.870    512.000    536.219    -24.219    530.539    535.816    530.539    530.942    530.539
 26.970    539.000    536.428      2.572    530.202    536.002    530.202    530.627    530.202
 27.070    558.000    536.756     21.244    529.865    536.304    529.865    530.316    529.865
 27.170    546.000    537.250      8.750    529.528    536.769    529.528    530.008    529.528
 27.270    555.000    537.995     17.005    529.193    537.482    529.193    529.705    529.193
 27.370    512.836    539.049    -26.214    528.858    538.500    528.858    529.406    528.858
 27.470    516.335    540.579    -24.245    528.524    539.989    528.524    529.113    528.524
 27.570    551.880    543.004      8.876    528.191    542.366    528.191    528.827    528.191
 27.670    564.000    547.672     16.328    527.859    546.980    527.859    528.548    527.859
 27.770    515.253    558.885    -43.633    527.528    558.127    527.528    528.278    527.528
 27.870    569.337    587.084    -17.746    527.197    586.245    527.197    528.018    527.197
 27.970    672.270    648.326     23.943    526.867    647.384    526.867    527.772    526.867
 28.070    731.000    750.859    -19.859    526.538    749.789    526.538    527.542    526.538
 28.170    866.179    870.337     -4.158    526.211    869.124    526.211    527.331    526.211
 28.270    984.000    940.901     43.099    525.884    939.547    525.884    527.145    525.884
 28.370    953.000    909.620     43.380    525.558    908.125    525.558    526.991    525.558
 28.470    845.000    811.216     33.784    525.232    809.543    525.232    526.879    525.232
 28.570    687.224    722.847    -35.623    524.908    720.922    524.908    526.822    524.908
 28.670    646.136    693.920    -47.784    524.585    691.648    524.585    526.845    524.585
 28.770    737.691    728.459      9.232    524.263    725.711    524.263    526.991    524.263
 28.870    799.000    793.460      5.540    523.942    790.030    523.942    527.348    523.942
 28.970    839.714    832.593      7.121    523.621    828.117    523.621    528.081    523.621
 29.070    750.000    805.503    -55.503    523.302    799.322    523.302    529.485    523.302
 29.170    719.000    732.051    -13.051    522.984    723.060    522.984    531.987    522.984
 29.270    614.000    657.535    -43.535    522.667    644.145    522.667    536.070    522.667
 29.370    649.000    608.169     40.831    522.351    588.499    522.351    542.028    522.351
 29.470    550.373    585.590    -35.218    522.036    558.089    522.036    549.540    522.036
 29.570    576.000    579.272     -3.272    521.722    543.974    521.722    557.019    521.722
 29.670    618.000    577.560     40.440    521.410    537.599    521.410    561.366    521.410
 29.770    574.876    573.158      1.718    521.098    534.301    521.098    559.952    521.098
 29.870    609.597    564.963     44.634    520.787    532.237    520.787    553.509    520.787
 29.970    577.948    555.491     22.457    520.478    530.803    520.478    545.164    520.478
 30.070    592.000    547.126     44.874    520.170    529.799    520.170    537.494    520.170
 30.170    550.000    540.886      9.114    519.863    529.170    519.863    531.576    519.863
 30.270    533.000    536.908     -3.908    519.557    528.997    519.557    527.465    519.557
 30.370    558.281    535.169     23.112    519.252    529.649    519.252    524.768    519.252
 30.470    512.000    536.186    -24.186    518.949    532.118    518.949    523.010    518.949
 30.570    529.962    541.463    -11.502    518.646    538.292    518.646    521.806    518.646
 30.670    551.081    552.967     -1.887    518.345    550.380    518.345    520.912    518.345
 30.770    536.127    570.946    -34.819    518.045    568.764    518.045    520.192    518.045
 30.870    603.017    590.831     12.186    517.747    588.951    517.747    519.578    517.747
 30.970    598.744    602.246     -3.502    517.449    600.606    517.449    519.036    517.449
 31.070    598.000    596.633      1.367    517.153    595.196    517.153    518.543    517.153
 31.170    611.000    578.018     32.982    516.858    576.755    516.858    518.089    516.858
 31.270    569.000    557.139     11.861    516.565    556.020    516.565    517.665    516.565
 31.370    560.000    541.167     18.833    516.273    540.166    516.273    517.263    516.273
 31.470    523.616    531.579     -7.963    515.982    530.675    515.982    516.881    515.982
 31.570    523.000    526.681     -3.681    515.692    525.856    515.692    516.513    515.692
 31.670    521.000    524.314     -3.314    515.404    523.557    515.404    516.159    515.404
 31.770    507.860    523.072    -15.212    515.117    522.372    515.117    515.815    515.117
 31.870    521.737    522.306     -0.569    514.831    521.656    514.831    515.480    514.831
 31.970    506.000    521.780    -15.780    514.547    521.173    514.547    515.152    514.547
 32.070    523.947    521.407      2.540    514.264    520.838    514.264    514.831    514.264
 32.170    531.000    521.164      9.836    513.982    520.628    513.982    514.517    513.982
 32.270    586.000    521.030     64.970    513.702    520.524    513.702    514.207    513.702
 32.370    530.291    521.007      9.284    513.423    520.527    513.423    513.902    513.423
 32.470    560.000    521.103     38.897    513.145    520.646    513.145    513.601    513.145
 32.570    556.000    521.332     34.668    512.869    520.896    512.869    513.305    512.869
 32.670    537.000    521.720     15.280    512.595    521.302    512.595    513.011    512.595
 32.770    558.000    522.301     35.699    512.321    521.900    512.321    512.721    512.321
 32.870    505.000    523.130    -18.130    512.050    522.744    512.050    512.434    512.050
 32.970    537.505    524.284     13.221    511.779    523.911    511.779    512.150    511.779
 33.070    510.000    525.883    -15.883    511.510    525.522    511.510    511.869    511.510
 33.170    557.000    528.139     28.861    511.243    527.789    511.243    511.590    511.243
 33.270    550.895    531.520     19.374    510.977    531.180    510.977    511.314    510.977
 33.370    560.000    537.267     22.733    510.712    536.936    510.712    511.040    510.712
 33.470    566.419    548.619     17.800    510.449    548.294    510.449    510.769    510.449
 33.570    565.400    572.721     -7.321    510.188    572.398    510.188    510.499    510.188
 33.670    599.000    621.386    -22.386    509.927    621.060    509.927    510.232    509.927
 33.770    712.000    706.714      5.286    509.669    706.378    509.669    509.967    509.669
 33.870    799.000    828.977    -29.977    509.412    828.630    509.412    509.704    509.412
 33.970    972.000    960.915     11.085    509.156    960.561    509.156    509.443    509.156
 34.070   1027.000   1043.184    -16.184    508.902   1042.842    508.902    509.184    508.902
 34.170   1043.048   1023.558     19.490    508.649   1023.246    508.649    508.927    508.649
 34.270    940.000    916.465     23.535    508.398    916.181    508.398    508.671    508.398
 34.370    747.000    782.956    -35.956    508.149    782.688    508.149    508.418    508.149
 34.470    706.651    671.841     34.810    507.901    671.580    507.901    508.167    507.901
 34.570    633.634    599.434     34.200    507.654    599.175    507.654    507.917    507.654
 34.670    552.000    559.874     -7.874    507.409    559.615    507.409    507.669    507.409
 34.770    520.327    540.422    -20.095    507.166    540.165    507.166    507.423    507.166
 34.870    514.000    530.831    -16.831    506.924    530.575    506.924    507.179    506.924
 34.970    538.008    525.486     12.522    506.684    525.232    506.684    506.937    506.684
 35.070    516.000    521.979     -5.979    506.445    521.728    506.445    506.696    506.445
 35.170    544.478    519.400     25.078    506.208    519.150    506.208    506.457    506.208
 35.270    522.000    517.388      4.612    505.973    517.140    505.973    506.220    505.973
 35.370    508.000    515.767     -7.767    505.739    515.521    505.739    505.985    505.739
 35.470    495.000    514.432    -19.432    505.507    514.187    505.507    505.751    505.507
 35.570    545.000    513.311     31.689    505.276    513.067    505.276    505.520    505.276
 35.670    472.653    512.356    -39.703    505.047    512.113    505.047    505.290    505.047
 35.770    477.000    511.529    -34.529    504.819    511.287    504.819    505.061    504.819
 35.870    570.000    510.805     59.195    504.594    510.564    504.594    504.835    504.594
 35.970    453.000    510.165    -57.165    504.369    509.924    504.369    504.610    504.369
 36.070    464.000    509.592    -45.592    504.147    509.352    504.147    504.387    504.147
 36.170    492.000    509.077    -17.077    503.926    508.837    503.926    504.166    503.926
 36.270    502.000    508.612     -6.612    503.706    508.372    503.706    503.946    503.706
 36.370    502.000    508.190     -6.190    503.489    507.950    503.489    503.729    503.489
 36.470    460.000    507.807    -47.807    503.273    507.567    503.273    503.512    503.273
 36.570    525.552    507.460     18.091    503.058    507.220    503.058    503.298    503.058
 36.670    497.000    507.151    -10.151    502.845    506.911    502.845    503.086    502.845
 36.770    482.003    506.882    -24.879    502.634    506.641    502.634    502.875    502.634
 36.870    514.000    506.665      7.335    502.425    506.424    502.425    502.666    502.425
 36.970    493.000    506.534    -13.534    502.217    506.293    502.217    502.458    502.217
 37.070    479.000    506.578    -27.578    502.011    506.336    502.011    502.253    502.011
 37.170    569.000    506.985     62.015    501.806    506.743    501.806    502.049    501.806
 37.270    501.485    508.068     -6.583    501.603    507.825    501.603    501.847    501.603
 37.370    483.310    510.171    -26.861    501.402    509.928    501.402    501.646    501.402
 37.470    496.000    513.403    -17.403    501.203    513.159    501.203    501.448    501.203
 37.570    492.148    517.261    -25.112    501.005    517.017    501.005    501.251    501.005
 37.670    541.693    520.420     21.273    500.809    520.177    500.809    501.056    500.809
 37.770    528.000    521.258      6.742    500.614    521.015    500.614    500.862    500.614
 37.870    546.305    519.304     27.001    500.421    519.063    500.421    500.671    500.421
 37.970    516.000    515.762      0.238    500.230    515.521    500.230    500.481    500.230
 38.070    493.000    512.048    -19.048    500.041    511.807    500.041    500.293    500.041
 38.170    503.000    508.878     -5.878    499.853    508.634    499.853    500.107    499.853
 38.270    514.000    506.480      7.520    499.667    506.233    499.667    499.922    499.667
 38.370    478.000    504.818    -26.818    499.483    504.566    499.483    499.739    499.483
 38.470    526.000    503.719     22.281    499.300    503.464    499.300    499.558    499.300
 38.570    441.000    502.999    -61.999    499.119    502.741    499.119    499.379    499.119
 38.670    504.809    502.513      2.297    498.940    502.252    498.940    499.202    498.940
 38.770    468.000    502.160    -34.160    498.762    501.896    498.762    499.026    498.762
 38.870    508.756    501.878      6.877    498.586    501.613    498.586    498.852    498.586
 38.970    479.000    501.637    -22.637    498.412    501.369    498.412    498.680    498.412
 39.070    475.252    501.419    -26.167    498.240    501.149    498.240    498.510    498.240
 39.170    499.000    501.218     -2.218    498.069    500.946    498.069    498.341    498.069
 39.270    489.661    501.031    -11.369    497.900    500.756    497.900    498.174    497.900
 39.370    469.063    500.854    -31.791    497.733    500.578    497.733    498.009    497.733
 39.470    483.000    500.688    -17.688    497.567    500.409    497.567    497.846    497.567
 39.570    484.556    500.530    -15.974    497.403    500.249    497.403    497.685    497.403
 39.670    523.000    500.381     22.619    497.241    500.097    497.241    497.525    497.241
 39.770    519.088    500.240     18.847    497.080    499.953    497.080    497.367    497.080
 39.870    510.524    500.107     10.417    496.922    499.818    496.922    497.211    496.922
 39.970    479.803    499.983    -20.180    496.765    499.690    496.765    497.057    496.765
 40.070    476.000    499.866    -23.866    496.609    499.571    496.609    496.905    496.609
 40.170    497.778    499.758     -1.980    496.455    499.460    496.455    496.754    496.455
 40.270    500.000    499.659      0.341    496.304    499.358    496.304    496.605    496.304
 40.370    503.694    499.571      4.124    496.153    499.266    496.153    496.459    496.153
 40.470    496.665    499.493     -2.828    496.005    499.184    496.005    496.313    496.005
 40.570    495.000    499.427     -4.427    495.858    499.115    495.858    496.170    495.858
 40.670    483.000    499.375    -16.375    495.713    499.059    495.713    496.029    495.713
 40.770    460.000    499.338    -39.338    495.569    499.019    495.569    495.889    495.569
 40.870    464.000    499.320    -35.320    495.428    498.997    495.428    495.751    495.428
 40.970    486.942    499.323    -12.381    495.288    498.996    495.288    495.615    495.288
 41.070    499.000    499.352     -0.352    495.150    499.021    495.150    495.481    495.150
 41.170    488.000    499.412    -11.412    495.013    499.078    495.013    495.349    495.013
 41.270    534.606    499.512     35.094    494.878    499.173    494.878    495.218    494.878
 41.370    481.560    499.660    -18.100    494.745    499.317    494.745    495.089    494.745
 41.470    505.000    499.872      5.128    494.614    499.524    494.614    494.963    494.614
 41.570    526.000    500.168     25.832    494.484    499.816    494.484    494.838    494.484
 41.670    477.000    500.587    -23.587    494.356    500.230    494.356    494.715    494.356
 41.770    483.000    501.204    -18.204    494.229    500.842    494.229    494.593    494.229
 41.870    468.000    502.204    -34.204    494.105    501.837    494.105    494.474    494.105
 41.970    517.290    504.013     13.277    493.982    503.641    493.982    494.357    493.982
 42.070    499.000    507.525     -8.525    493.861    507.149    493.861    494.241    493.861
 42.170    509.000    514.277     -5.277    493.741    513.899    493.741    494.127    493.741
 42.270    510.231    526.270    -16.040    493.623    525.891    493.623    494.016    493.623
 42.370    550.000    545.056      4.944    493.507    544.678    493.507    493.906    493.507
 42.470    534.000    570.075    -36.075    493.393    569.703    493.393    493.798    493.393
 42.570    592.000    596.875     -4.875    493.280    596.512    493.280    493.692    493.280
 42.670    646.141    616.644     29.497    493.169    616.286    493.169    493.588    493.169
 42.770    626.785    619.964      6.821    493.059    619.605    493.059    493.486    493.059
 42.870    542.000    604.819    -62.819    492.952    604.446    492.952    493.386    492.952
 42.970    543.000    578.986    -35.986    492.846    578.593    492.846    493.288    492.846
 43.070    508.000    552.405    -44.405    492.741    551.989    492.741    493.191    492.741
 43.170    522.000    531.124     -9.124    492.639    530.686    492.639    493.097    492.639
 43.270    469.000    516.829    -47.829    492.538    516.374    492.538    493.005    492.538
 43.370    486.000    508.448    -22.448    492.438    507.979    492.438    492.915    492.438
 43.470    536.443    503.962     32.481    492.341    503.480    492.341    492.827    492.341
 43.570    530.658    501.613     29.044    492.245    501.120    492.245    492.741    492.245
 43.670    499.867    500.301     -0.434    492.150    499.796    492.150    492.657    492.150
 43.770    460.892    499.471    -38.578    492.057    498.954    492.057    492.575    492.057
 43.870    494.000    498.882     -4.882    491.966    498.354    491.966    492.496    491.966
 43.970    478.654    498.435    -19.782    491.877    497.895    491.877    492.419    491.877
 44.070    465.430    498.085    -32.655    491.789    497.532    491.789    492.343    491.789
 44.170    500.201    497.806      2.395    491.703    497.240    491.703    492.270    491.703
 44.270    471.000    497.583    -26.583    491.619    497.003    491.619    492.200    491.619
 44.370    460.000    497.405    -37.405    491.536    496.810    491.536    492.131    491.536
 44.470    532.298    497.264     35.034    491.455    496.654    491.455    492.066    491.455
 44.570    502.000    497.154      4.846    491.375    496.527    491.375    492.002    491.375
 44.670    476.000    497.071    -21.071    491.297    496.427    491.297    491.941    491.297
 44.770    496.000    497.011     -1.011    491.221    496.349    491.221    491.883    491.221
 44.870    459.000    496.972    -37.972    491.146    496.292    491.146    491.827    491.146
 44.970    479.000    496.954    -17.954    491.073    496.253    491.073    491.774    491.073
 45.070    524.000    496.953     27.047    491.002    496.231    491.002    491.724    491.002
 45.170    455.340    496.971    -41.631    490.932    496.226    490.932    491.676    490.932
 45.270    480.000    497.005    -17.005    490.864    496.237    490.864    491.632    490.864
 45.370    467.152    497.058    -29.906    490.797    496.264    490.797    491.590    490.797
 45.470    492.142    497.127     -4.986    490.732    496.307    490.732    491.552    490.732
 45.570    489.000    497.216     -8.216    490.668    496.366    490.668    491.518    490.668
 45.670    478.261    497.323    -19.062    490.607    496.443    490.607    491.487    490.607
 45.770    463.320    497.451    -34.130    490.546    496.537    490.546    491.459    490.546
 45.870    477.000    497.601    -20.601    490.488    496.652    490.488    491.436    490.488
 45.970    526.276    497.775     28.501    490.430    496.788    490.430    491.417    490.430
 46.070    494.348    497.976     -3.628    490.375    496.948    490.375    491.403    490.375
 46.170    471.000    498.207    -27.207    490.321    497.135    490.321    491.393    490.321
 46.270    471.000    498.473    -27.473    490.268    497.352    490.268    491.389    490.268
 46.370    508.670    498.779      9.891    490.218    497.606    490.218    491.390    490.218
 46.470    529.222    499.132     30.090    490.168    497.902    490.168    491.397    490.168
 46.570    501.000    499.541      1.459    490.120    498.249    490.120    491.412    490.120
 46.670    548.000    500.020     47.980    490.074    498.660    490.074    491.433    490.074
 46.770    513.000    500.591     12.409    490.030    499.156    490.030    491.463    490.030
 46.870    515.000    501.298     13.702    489.986    499.781    489.986    491.502    489.986
 46.970    475.000    502.234    -27.234    489.945    500.625    489.945    491.552    489.945
 47.070    507.000    503.606      3.394    489.905    501.894    489.905    491.613    489.905
 47.170    463.999    505.826    -41.826    489.866    504.000    489.866    491.687    489.866
 47.270    529.000    509.596     19.404    489.829    507.641    489.829    491.776    489.829
 47.370    482.505    515.886    -33.381    489.793    513.785    489.793    491.883    489.793
 47.470    530.000    525.651      4.349    489.759    523.381    489.759    492.010    489.759
 47.570    575.000    539.225     35.775    489.726    536.763    489.726    492.160    489.726
 47.670    600.000    555.555     44.445    489.695    552.871    489.695    492.339    489.695
 47.770    603.427    571.591     31.836    489.666    568.655    489.666    492.551    489.666
 47.870    586.000    582.533      3.467    489.637    579.310    489.637    492.803    489.637
 47.970    547.905    584.126    -36.222    489.611    580.577    489.611    493.105    489.611
 48.070    552.000    576.133    -24.133    489.585    572.203    489.585    493.468    489.585
 48.170    554.000    562.611     -8.611    489.562    558.229    489.562    493.908    489.562
 48.270    593.600    548.539     45.061    489.539    543.603    489.539    494.450    489.539
 48.370    523.000    537.257    -14.257    489.518    531.623    489.518    495.136    489.518
 48.470    537.000    530.103      6.897    489.499    523.554    489.499    496.037    489.499
 48.570    563.134    527.047     36.087    489.481    519.232    489.481    497.289    489.481
 48.670    515.000    527.467    -12.467    489.464    517.791    489.464    499.135    489.464
 48.770    507.000    530.870    -23.870    489.449    518.329    489.449    501.986    489.449
 48.870    552.516    537.262     15.254    489.435    520.227    489.435    506.466    489.435
 48.970    539.000    547.188     -8.188    489.423    523.212    489.423    513.394    489.423
 49.070    605.956    561.562     44.394    489.412    527.329    489.412    523.638    489.412
 49.170    561.395    581.423    -20.028    489.402    533.012    489.402    537.805    489.402
 49.270    645.874    607.897     37.977    489.394    541.503    489.394    555.777    489.394
 49.370    603.000    642.796    -39.796    489.387    556.012    489.387    576.154    489.387
 49.470    674.374    690.419    -16.045    489.382    584.064    489.382    595.707    489.382
 49.570    778.683    760.910     17.773    489.378    640.838    489.378    609.400    489.378
 49.670    943.000    874.303     68.697    489.375    751.317    489.375    612.279    489.375
 49.770   1026.000   1060.262    -34.262    489.374    946.437    489.374    603.076    489.374
 49.870   1428.000   1344.597     83.403    489.374   1248.369    489.374    585.441    489.374
 49.970   1650.239   1722.078    -71.839    489.375   1646.422    489.375    564.858    489.375
 50.070   2093.898   2131.687    -37.790    489.378   2075.429    489.378    545.502    489.378
 50.170   2509.000   2454.813     54.187    489.382   2414.620    489.382    529.538    489.382
 50.270   2504.000   2557.352    -53.352    489.387   2529.244    489.387    517.582    489.387
 50.370   2336.000   2383.476    -47.476    489.394   2363.765    489.394    509.284    489.394
 50.470   2067.810   2010.913     56.896    489.402   1996.683    489.402    503.839    489.402
 50.570   1501.000   1579.264    -78.264    489.411   1568.486    489.411    500.374    489.411
 50.670   1133.000   1200.543    -67.543    489.421   1191.940    489.421    498.165    489.421
 50.770    854.000    927.981    -73.981    489.433    920.803    489.433    496.707    489.433
 50.870    801.273    762.790     38.483    489.446    756.610    489.446    495.690    489.446
 50.970    674.000    677.285     -3.285    489.460    671.854    489.460    494.938    489.460
 51.070    614.000    637.762    -23.762    489.476    632.923    489.476    494.355    489.476
 51.170    650.000    617.645     32.355    489.493    613.285    489.493    493.890    489.493
 51.270    569.854    601.802    -31.948    489.511    597.834    489.511    493.512    489.511
 51.370    619.773    585.409     34.364    489.530    581.764    489.530    493.202    489.530
 51.470    573.396    569.156      4.240    489.551    565.781    489.551    492.946    489.551
 51.570    611.000    554.893     56.107    489.572    551.746    489.572    492.734    489.572
 51.670    563.000    543.804     19.196    489.595    540.850    489.595    492.559    489.595
 51.770    571.000    536.097     34.903    489.619    533.307    489.619    492.415    489.619
 51.870    512.059    531.282    -19.223    489.645    528.634    489.645    492.297    489.645
 51.970    498.336    528.614    -30.278    489.671    526.088    489.671    492.201    489.671
 52.070    520.000    527.433     -7.433    489.699    525.011    489.699    492.124    489.699
 52.170    580.000    527.312     52.688    489.728    524.979    489.728    492.063    489.728
 52.270    539.674    528.078     11.596    489.758    525.820    489.758    492.017    489.758
 52.370    545.000    529.800     15.200    489.789    527.606    489.789    491.984    489.789
 52.470    540.000    532.869      7.131    489.821    530.728    489.821    491.963    489.821
 52.570    628.000    538.241     89.759    489.855    536.145    489.855    491.952    489.855
 52.670    609.000    547.903     61.097    489.889    545.841    489.889    491.950    489.889
 52.770    616.000    565.446     50.554    489.925    563.412    489.925    491.957    489.925
 52.870    607.000    596.422     10.578    489.962    594.408    489.962    491.972    489.962
 52.970    671.000    647.780     23.220    490.000    645.779    490.000    491.995    490.000
 53.070    775.000    725.705     49.295    490.039    723.712    490.039    492.024    490.039
 53.170    801.889    831.805    -29.916    490.079    829.816    490.079    492.061    490.079
 53.270   1007.630    958.675     48.955    490.120    956.688    490.120    492.104    490.120
 53.370   1092.000   1086.587      5.413    490.163   1084.603    490.163    492.153    490.163
 53.470   1153.000   1183.806    -30.806    490.206   1181.823    490.206    492.207    490.206
 53.570   1191.000   1216.346    -25.346    490.250   1214.361    490.250    492.268    490.250
 53.670   1147.000   1170.312    -23.312    490.296   1168.313    490.296    492.335    490.296
 53.770   1038.000   1064.818    -26.818    490.342   1062.794    490.342    492.408    490.342
 53.870    887.389    935.228    -47.839    490.390    933.168    490.390    492.486    490.390
 53.970    773.000    811.577    -38.577    490.438    809.473    490.438    492.570    490.438
 54.070    691.408    711.128    -19.720    490.488    708.974    490.488    492.661    490.488
 54.170    666.000    639.235     26.765    490.538    637.028    490.538    492.757    490.538
 54.270    589.308    593.035     -3.727    490.590    590.773    490.590    492.860    490.590
 54.370    584.000    565.901     18.099    490.642    563.578    490.642    492.969    490.642
 54.470    502.641    551.001    -48.360    490.696    548.614    490.696    493.086    490.696
 54.570    602.000    543.140     58.860    490.750    540.683    490.750    493.209    490.750
 54.670    552.000    539.071     12.929    490.805    536.538    490.805    493.340    490.805
 54.770    523.000    537.057    -14.057    490.862    534.440    490.862    493.479    490.862
 54.870    547.000    536.266     10.734    490.919    533.559    490.919    493.627    490.919
 54.970    555.000    536.341     18.659    490.977    533.535    490.977    493.784    490.977
 55.070    546.941    537.139      9.802    491.036    534.225    491.036    493.951    491.036
 55.170    543.000    538.625      4.375    491.096    535.593    491.096    494.129    491.096
 55.270    568.000    540.818     27.182    491.157    537.658    491.157    494.318    491.157
 55.370    561.000    543.792     17.208    491.219    540.491    491.219    494.519    491.219
 55.470    531.000    547.680    -16.680    491.282    544.227    491.282    494.735    491.282
 55.570    552.000    552.734     -0.734    491.345    549.114    491.345    494.966    491.345
 55.670    577.000    559.456     17.544    491.410    555.651    491.410    495.214    491.410
 55.770    594.711    568.912     25.799    491.475    564.905    491.475    495.480    491.475
 55.870    620.201    583.380     36.820    491.541    579.151    491.541    495.767    491.541
 55.970    587.000    607.464    -20.464    491.608    602.987    491.608    496.078    491.608
 56.070    637.000    649.574    -12.574    491.676    644.821    491.676    496.414    491.676
 56.170    688.000    723.172    -35.172    491.744    718.109    491.744    496.781    491.744
 56.270    816.718    846.362    -29.644    491.814    840.952    491.814    497.181    491.814
 56.370   1016.000   1038.071    -22.071    491.884   1032.274    491.884    497.619    491.884
 56.470   1261.000   1309.904    -48.904    491.955   1303.680    491.955    498.101    491.955
 56.570   1600.000   1655.080    -55.080    492.027   1648.394    492.027    498.634    492.027
 56.670   1955.000   2038.320    -83.320    492.099   2031.139    492.099    499.226    492.099
 56.770   2489.101   2391.713     97.388    492.172   2384.001    492.172    499.886    492.172
 56.870   2611.000   2624.767    -13.767    492.246   2616.475    492.246    500.628    492.246
 56.970   2666.000   2660.480      5.520    492.321   2651.519    492.321    501.465    492.321
 57.070   2548.000   2485.544     62.456    492.397   2475.768    492.397    502.416    492.397
 57.170   2235.000   2161.696     73.304    492.473   2150.922    492.473    503.504    492.473
 57.270   1836.000   1781.439     54.561    492.550   1769.459    492.550    504.762    492.550
 57.370   1490.000   1422.241     67.759    492.627   1408.822    492.627    506.232    492.627
 57.470   1062.000   1129.622    -67.622    492.706   1114.481    492.706    507.981    492.706
 57.570    948.000    918.426     29.574    492.785    901.182    492.785    510.116    492.785
 57.670    793.000    781.799     11.201    492.864    761.891    492.864    512.824    492.864
 57.770    768.000    702.656     65.344    492.945    679.198    492.945    516.431    492.945
 57.870    698.000    663.356     34.644    493.026    634.899    493.026    521.495    493.026
 57.970    684.386    651.248     33.138    493.107    615.436    493.107    528.923    493.107
 58.070    640.200    660.261    -20.062    493.189    613.382    493.189    540.063    493.189
 58.170    694.000    689.960      4.040    493.272    626.485    493.272    556.731    493.272
 58.270    756.000    743.364     12.636    493.356    655.644    493.356    581.048    493.356
 58.370    825.000    824.258      0.742    493.440    702.624    493.440    615.031    493.440
 58.470    933.000    934.384     -1.384    493.524    767.927    493.524    659.924    493.524
 58.570   1022.000   1070.839    -48.839    493.610    849.045    493.610    715.334    493.610
 58.670   1319.000   1224.084     94.916    493.695    939.414    493.695    778.290    493.695
 58.770   1376.000   1377.680     -1.680    493.782   1029.058    493.782    842.333    493.782
 58.870   1572.000   1511.479     60.521    493.869   1108.219    493.869    897.076    493.869
 58.970   1632.060   1605.797     26.264    493.956   1169.886    493.956    929.841    493.956
 59.070   1687.000   1644.110     42.890    494.044   1207.135    494.044    931.023    494.044
 59.170   1661.000   1618.629     42.371    494.133   1212.536    494.133    900.255    494.133
 59.270   1589.817   1537.670     52.147    494.222   1185.232    494.222    846.698    494.222
 59.370   1399.456   1424.907    -25.451    494.311   1136.189    494.311    783.058    494.311
 59.470   1264.000   1308.095    -44.095    494.401   1082.533    494.401    719.967    494.401
 59.570   1255.000   1209.853     45.147    494.491   1040.179    494.491    664.135    494.491
 59.670   1143.000   1146.897     -3.897    494.582   1022.681    494.582    618.723    494.582
 59.770   1141.000   1131.543      9.457    494.674   1041.831    494.674    584.260    494.674
 59.870   1123.534   1169.451    -45.917    494.766   1104.459    494.766    559.578    494.766
 59.970   1243.000   1255.081    -12.081    494.858   1207.023    494.858    542.685    494.858
 60.070   1399.000   1368.979     30.021    494.950   1332.209    494.950    531.449    494.950
 60.170   1539.000   1478.627     60.373    495.044   1449.353    495.044    524.030    495.044
 60.270   1595.862   1544.800     51.062    495.137   1520.620    495.137    519.047    495.137
 60.370   1554.549   1536.405     18.144    495.231   1515.840    495.231    515.570    495.231
 60.470   1405.053   1447.826    -42.773    495.325   1429.960    495.325    513.025    495.325
 60.570   1331.000   1301.421     29.579    495.420   1285.654    495.420    511.076    495.420
 60.670   1131.000   1131.898     -0.898    495.515   1117.810    495.515    509.537    495.515
 60.770    983.152    970.009     13.143    495.610    957.280    495.610    508.304    495.610
 60.870    877.000    835.388     41.612    495.706    823.752    495.706    507.322    495.706
 60.970    711.085    735.972    -24.886    495.802    725.198    495.802    506.564    495.802
 61.070    668.000    670.873     -2.873    495.898    660.741    495.898    506.019    495.898
 61.170    619.024    634.805    -15.780    495.995    625.098    495.995    505.687    495.995
 61.270    650.000    622.332     27.668    496.092    612.834    496.092    505.569    496.092
 61.370    615.480    630.704    -15.224    496.189    621.201    496.189    505.660    496.189
 61.470    644.553    660.804    -16.251    496.287    651.103    496.287    505.940    496.287
 61.570    693.000    716.301    -23.301    496.385    706.255    496.385    506.361    496.385
 61.670    825.000    801.245     23.755    496.483    790.787    496.483    506.843    496.483
 61.770    944.000    916.595     27.405    496.581    905.783    496.581    507.264    496.581
 61.870   1034.000   1056.590    -22.590    496.680   1045.634    496.680    507.477    496.680
 61.970   1173.000   1206.170    -33.170    496.779   1195.412    496.779    507.359    496.779
 62.070   1368.924   1340.678     28.246    496.878   1330.494    496.878    506.882    496.878
 62.170   1442.000   1429.661     12.339    496.977   1420.352    496.977    506.126    496.977
 62.270   1343.000   1447.478   -104.478    497.076   1439.204    497.076    505.229    497.076
 62.370   1342.000   1387.808    -45.808    497.176   1380.587    497.176    504.318    497.176
 62.470   1281.000   1268.340     12.660    497.276   1262.092    497.276    503.482    497.276
 62.570   1186.204   1119.327     66.878    497.376   1113.916    497.376    502.771    497.376
 62.670    997.477    969.276     28.201    497.476    964.550    497.476    502.201    497.476
 62.770    860.525    837.934     22.590    497.576    833.748    497.576    501.768    497.576
 62.870    681.000    734.998    -53.998    497.676    731.225    497.676    501.455    497.676
 62.970    646.000    661.679    -15.679    497.777    658.224    497.777    501.236    497.777
 63.070    631.320    613.727     17.593    497.877    610.516    497.877    501.089    497.877
 63.170    635.571    584.671     50.900    497.978    581.654    497.978    500.993    497.978
 63.270    520.464    568.289    -47.825    498.079    565.431    498.079    500.932    498.079
 63.370    530.000    559.891    -29.891    498.180    557.169    498.180    500.897    498.180
 63.470    526.213    556.653    -30.440    498.281    554.048    498.281    500.879    498.281
 63.570    610.000    557.433     52.567    498.382    554.931    498.382    500.874    498.382
 63.670    548.158    562.470    -14.313    498.483    560.060    498.483    500.880    498.483
 63.770    539.919    573.119    -33.200    498.584    570.789    498.584    500.895    498.584
 63.870    614.000    591.555     22.445    498.685    589.296    498.685    500.917    498.685
 63.970    636.000    620.325     15.675    498.787    618.126    498.787    500.946    498.787
 64.070    662.039    661.597      0.442    498.888    659.449    498.888    500.981    498.888
 64.170    719.000    716.138      2.862    498.989    714.032    498.989    501.021    498.989
 64.270    855.000    782.186     72.814    499.090    780.116    499.090    501.066    499.090
 64.370    854.104    854.525     -0.421    499.191    852.488    499.191    501.115    499.191
 64.470    954.328    924.169     30.159    499.292    922.167    499.292    501.168    499.292
 64.570   1064.000    979.472     84.528    499.394    977.511    499.394    501.225    499.394
 64.670   1026.000   1009.554     16.446    499.495   1007.641    499.495    501.285    499.495
 64.770   1092.000   1008.889     83.111    499.596   1007.032    499.596    501.348    499.596
 64.870   1031.000    979.402     51.598    499.697    977.603    499.697    501.414    499.697
 64.970    949.000    928.876     20.124    499.797    927.137    499.797    501.482    499.797
 65.070    833.000    867.834    -34.834    499.898    866.151    499.898    501.554    499.898
 65.170    808.483    806.117      2.366    499.999    804.484    499.999    501.627    499.999
 65.270    765.000    750.364     14.636    500.099    748.773    500.099    501.703    500.099
 65.370    691.377    703.422    -12.045    500.200    701.863    500.200    501.781    500.200
 65.470    648.000    665.357    -17.357    500.300    663.823    500.300    501.860    500.300
 65.570    640.000    635.028      4.972    500.400    633.512    500.400    501.942    500.400
 65.670    578.471    611.167    -32.695    500.500    609.663    500.500    502.025    500.500
 65.770    547.858    592.694    -44.836    500.600    591.199    500.600    502.111    500.600
 65.870    556.000    578.712    -22.712    500.699    577.225    500.699    502.197    500.699
 65.970    615.000    568.482     46.518    500.799    567.001    500.799    502.286    500.799
 66.070    517.574    561.390    -43.816    500.898    559.915    500.898    502.376    500.898
 66.170    544.796    556.908    -12.112    500.997    555.438    500.997    502.467    500.997
 66.270    548.742    554.578     -5.836    501.096    553.113    501.096    502.560    501.096
 66.370    506.901    554.018    -47.116    501.194    552.557    501.194    502.654    501.194
 66.470    560.000    554.956      5.044    501.293    553.498    501.293    502.750    501.293
 66.570    557.674    557.288      0.386    501.391    555.831    501.391    502.847    501.391
 66.670    508.000    561.155    -53.155    501.489    559.698    501.489    502.946    501.489
 66.770    520.952    567.094    -46.143    501.586    565.634    501.586    503.046    501.586
 66.870    595.000    576.294     18.706    501.684    574.829    501.684    503.148    501.684
 66.970    556.524    591.004    -34.480    501.781    589.531    501.781    503.251    501.781
 67.070    576.496    615.065    -38.569    501.877    613.580    501.877    503.355    501.877
 67.170    617.628    654.411    -36.782    501.974    652.910    501.974    503.461    501.974
 67.270    730.000    717.230     12.770    502.070    715.711    502.070    503.568    502.070
 67.370    858.817    813.339     45.478    502.166    811.798    502.166    503.677    502.166
 67.470   1012.261    952.345     59.916    502.261    950.784    502.261    503.788    502.261
 67.570   1084.169   1140.513    -56.344    502.356   1138.936    502.356    503.901    502.356
 67.670   1443.821   1376.821     67.000    502.451   1375.237    502.451    504.015    502.451
 67.770   1624.000   1649.264    -25.264    502.545   1647.688    502.545    504.131    502.545
 67.870   1789.000   1932.578   -143.578    502.639   1931.026    502.639    504.250    502.639
 67.970   2202.000   2188.395     13.605    502.733   2186.885    502.733    504.370    502.733
 68.070   2463.000   2369.825     93.175    502.826   2368.365    502.826    504.493    502.826
 68.170   2374.000   2434.526    -60.526    502.919   2433.107    502.919    504.618    502.919
 68.270   2346.000   2365.137    -19.137    503.011   2363.730    503.011    504.746    503.011
 68.370   2181.000   2180.245      0.755    503.103   2178.811    503.103    504.877    503.103
 68.470   1937.902   1922.771     15.131    503.194   1921.274    503.194    505.011    503.194
 68.570   1669.000   1639.514     29.486    503.286   1637.929    503.286    505.148    503.286
 68.670   1373.000   1368.400      4.600    503.376   1366.711    503.376    505.289    503.376
 68.770   1197.746   1134.163     63.584    503.466   1132.365    503.466    505.434    503.466
 68.870    925.000    948.321    -23.321    503.556    946.415    503.556    505.584    503.556
 68.970    824.253    811.531     12.722    503.645    809.522    503.645    505.738    503.645
 69.070    730.000    717.318     12.682    503.734    715.209    503.734    505.898    503.734
 69.170    721.000    656.003     64.997    503.822    653.797    503.822    506.063    503.822
 69.270    603.155    617.794    -14.639    503.910    615.491    503.910    506.235    503.910
 69.370    622.995    594.571     28.424    503.997    592.169    503.997    506.415    503.997
 69.470    583.503    580.473      3.030    504.083    577.965    504.083    506.602    504.083
 69.570    557.843    571.704    -13.861    504.170    569.082    504.170    506.798    504.170
 69.670    568.000    566.019      1.981    504.255    563.275    504.255    507.005    504.255
 69.770    555.000    562.185     -7.185    504.340    559.307    504.340    507.223    504.340
 69.870    584.643    559.561     25.082    504.424    556.535    504.424    507.453    504.424
 69.970    554.000    557.824     -3.824    504.508    554.636    504.508    507.698    504.508
 70.070    517.000    556.817    -39.817    504.591    553.450    504.591    507.960    504.591
 70.170    564.341    556.474      7.867    504.674    552.908    504.674    508.240    504.674
 70.270    561.000    556.790      4.210    504.756    553.003    504.756    508.542    504.756
 70.370    568.000    557.824     10.176    504.838    553.792    504.838    508.869    504.838
 70.470    567.000    559.735      7.265    504.918    555.427    504.918    509.224    504.918
 70.570    537.000    562.850    -25.850    504.999    558.233    504.999    509.612    504.999
 70.670    581.111    567.794     13.317    505.078    562.827    505.078    510.039    505.078
 70.770    596.000    575.680     20.320    505.157    570.317    505.157    510.512    505.157
 70.870    568.000    588.363    -20.363    505.235    582.545    505.235    511.040    505.235
 70.970    575.000    608.701    -33.701    505.313    602.359    505.313    511.635    505.313
 71.070    679.847    640.735     39.112    505.389    633.777    505.389    512.317    505.389
 71.170    682.331    689.590     -7.259    505.466    681.896    505.466    513.114    505.466
 71.270    802.171    760.921     41.249    505.541    752.321    505.541    514.076    505.541
 71.370    800.855    859.791    -58.936    505.616    850.031    505.616    515.283    505.616
 71.470    985.726    988.999     -3.273    505.690    977.693    505.690    516.873    505.690
 71.570   1113.000   1147.187    -34.187    505.763   1133.726    505.763    519.067    505.763
 71.670   1287.000   1327.168    -40.168    505.836   1310.604    505.836    522.210    505.836
 71.770   1555.514   1514.967     40.547    505.908   1493.857    505.908    526.802    505.908
 71.870   1746.085   1689.996     56.089    505.979   1662.226    505.979    533.521    505.979
 71.970   1777.642   1827.221    -49.579    506.049   1789.848    506.049    543.200    506.049
 72.070   1894.000   1902.998     -8.998    506.119   1852.169    506.119    556.750    506.119
 72.170   1964.000   1904.376     59.624    506.187   1835.402    506.187    575.002    506.187
 72.270   1824.083   1835.823    -11.740    506.255   1743.480    506.255    598.483    506.255
 72.370   1638.062   1716.715    -78.653    506.323   1595.819    506.323    627.143    506.323
 72.470   1568.851   1572.111     -3.260    506.389   1418.362    506.389    660.094    506.389
 72.570   1436.000   1424.397     11.603    506.455   1235.429    506.455    695.398    506.455
 72.670   1222.000   1289.008    -67.008    506.519   1065.560    506.519    729.955    506.519
 72.770   1153.000   1173.274    -20.274    506.583    920.282    506.583    759.567    506.583
 72.870   1025.000   1077.333    -52.333    506.647    804.493    506.647    779.481    506.647
 72.970    948.000    996.824    -48.824    506.709    717.800    506.709    785.726    506.709
 73.070    857.000    926.531    -69.531    506.770    656.389    506.770    776.904    506.770
 73.170    799.000    863.040    -64.040    506.831    614.892    506.831    754.971    506.831
 73.270    759.000    805.164    -46.164    506.891    587.863    506.891    724.184    506.891
 73.370    656.000    753.012    -97.012    506.949    570.664    506.949    689.291    506.949
 73.470    629.000    707.137    -78.137    507.007    559.820    507.007    654.320    507.007
 73.570    632.000    668.079    -36.079    507.064    552.986    507.064    622.155    507.064
 73.670    593.000    636.129    -43.129    507.121    548.723    507.121    594.526    507.121
 73.770    604.000    611.198     -7.198    507.176    546.229    507.176    572.147    507.176
 73.870    565.000    592.796    -27.796    507.230    545.092    507.230    554.940    507.230
 73.970    553.111    580.108    -26.998    507.284    545.101    507.284    542.301    507.284
 74.070    589.397    572.126     17.271    507.336    546.111    507.336    533.366    507.336
 74.170    597.000    567.771     29.229    507.388    547.951    507.388    527.228    507.388
 74.270    554.000    565.979    -11.979    507.438    550.368    507.438    523.076    507.438
 74.370    545.000    565.747    -20.747    507.488    553.001    507.488    520.266    507.488
 74.470    610.000    566.136     43.864    507.536    555.382    507.536    518.328    507.536
 74.570    644.000    566.306     77.694    507.584    556.989    507.584    516.944    507.584
 74.670    564.000    565.595     -1.595    507.631    557.361    507.631    515.910    507.631
 74.770    637.000    563.658     73.342    507.677    556.277    507.677    515.102    507.677
 74.870    601.271    560.554     40.718    507.721    553.871    507.721    514.446    507.721
 74.970    572.000    556.662     15.338    507.765    550.566    507.765    513.899    507.765
 75.070    621.000    552.516     68.484    507.808    546.922    507.808    513.433    507.808
 75.170    564.525    548.668     15.856    507.850    543.511    507.850    513.031    507.850
 75.270    599.000    545.641     53.359    507.890    540.867    507.890    512.683    507.890
 75.370    573.000    543.929     29.071    507.930    539.492    507.930    512.378    507.930
 75.470    525.935    544.020    -18.085    507.969    539.884    507.969    512.110    507.969
 75.570    567.000    546.421     20.579    508.006    542.553    508.006    511.874    508.006
 75.670    556.000    551.657      4.343    508.043    548.028    508.043    511.665    508.043
 75.770    573.204    560.229     12.975    508.079    556.814    508.079    511.480    508.079
 75.870    607.741    572.510     35.231    508.113    569.287    508.113    511.315    508.113
 75.970    588.000    588.600     -0.600    508.146    585.549    508.146    511.168    508.146
 76.070    609.000    608.153      0.847    508.179    605.258    508.179    511.036    508.179
 76.170    653.498    630.231     23.267    508.210    627.476    508.210    510.918    508.210
 76.270    639.000    653.213    -14.213    508.240    650.587    508.240    510.811    508.240
 76.370    675.857    674.814      1.043    508.269    672.307    508.269    510.716    508.269
 76.470    728.672    692.262     36.410    508.297    689.866    508.297    510.629    508.297
 76.570    718.000    702.762     15.238    508.324    700.472    508.324    510.550    508.324
 76.670    663.000    704.319    -41.319    508.350    702.130    508.350    510.479    508.350
 76.770    721.539    696.555     24.984    508.374    694.463    508.374    510.414    508.374
 76.870    689.943    680.900      9.042    508.398    678.899    508.398    510.354    508.398
 76.970    589.000    659.948    -70.948    508.420    658.032    508.420    510.300    508.420
 77.070    611.000    636.551    -25.551    508.441    634.714    508.441    510.249    508.441
 77.170    625.000    613.198     11.802    508.461    611.435    508.461    510.203    508.461
 77.270    623.439    591.737     31.702    508.480    590.042    508.480    510.160    508.480
 77.370    512.000    573.312    -61.312    508.498    571.679    508.498    510.121    508.498
 77.470    603.889    558.408     45.481    508.515    556.831    508.515    510.084    508.515
 77.570    573.869    546.979     26.890    508.530    545.455    508.530    510.049    508.530
 77.670    528.857    538.627     -9.770    508.544    537.151    508.544    510.017    508.544
 77.770    527.000    532.772     -5.772    508.557    531.341    508.557    509.986    508.557
 77.870    512.000    528.803    -16.803    508.569    527.413    508.569    509.957    508.569
 77.970    556.000    526.173     29.827    508.580    524.822    508.580    509.929    508.580
 78.070    513.534    524.447    -10.913    508.589    523.132    508.589    509.903    508.589
 78.170    566.000    523.307     42.693    508.598    522.026    508.598    509.877    508.598
 78.270    513.000    522.539     -9.539    508.605    521.290    508.605    509.853    508.605
 78.370    528.951    522.010      6.941    508.611    520.790    508.611    509.830    508.611
 78.470    545.614    521.642     23.972    508.615    520.449    508.615    509.807    508.615
 78.570    543.000    521.392     21.608    508.619    520.226    508.619    509.785    508.619
 78.670    485.564    521.236    -35.672    508.621    520.093    508.621    509.763    508.621
 78.770    510.806    521.147    -10.341    508.622    520.026    508.622    509.742    508.622
 78.870    489.000    521.210    -32.210    508.622    520.109    508.622    509.722    508.622
 78.970    495.000    521.408    -26.408    508.620    520.324    508.620    509.703    508.620
 79.070    523.303    521.762      1.541    508.617    520.694    508.617    509.684    508.617
 79.170    534.000    522.303     11.697    508.613    521.247    508.613    509.668    508.613
 79.270    494.000    523.064    -29.064    508.608    522.017    508.608    509.654    508.608
 79.370    494.943    524.078    -29.135    508.601    523.034    508.601    509.643    508.601
 79.470    552.000    525.378     26.622    508.594    524.332    508.594    509.637    508.594
 79.570    526.000    527.002     -1.002    508.584    525.946    508.584    509.637    508.584
 79.670    499.628    528.999    -29.371    508.574    527.925    508.574    509.644    508.574
 79.770    521.000    531.448    -10.448    508.562    530.344    508.562    509.661    508.562
 79.870    541.000    534.471      6.529    508.549    533.327    508.549    509.689    508.549
 79.970    516.000    538.259    -22.259    508.535    537.061    508.535    509.728    508.535
 80.070    535.287    543.092     -7.804    508.520    541.828    508.520    509.778    508.520
 80.170    557.756    549.356      8.399    508.503    548.017    508.503    509.837    508.503
 80.270    550.000    557.531     -7.531    508.485    556.109    508.485    509.904    508.485
 80.370    586.000    568.119     17.881    508.465    566.612    508.465    509.972    508.465
 80.470    619.000    581.532     37.468    508.445    579.945    508.445    510.035    508.445
 80.570    626.000    597.968     28.032    508.423    596.314    508.423    510.084    508.423
 80.670    607.000    617.291    -10.291    508.399    615.593    508.399    510.109    508.399
 80.770    631.000    638.959     -7.959    508.375    637.249    508.375    510.103    508.375
 80.870    639.000    661.994    -22.994    508.349    660.306    508.349    510.060    508.349
 80.970    709.440    685.050     24.391    508.321    683.418    508.321    509.983    508.321
 81.070    675.000    706.589    -31.589    508.293    705.041    508.293    509.877    508.293
 81.170    717.000    725.129     -8.129    508.263    723.683    508.263    509.752    508.263
 81.270    710.692    739.428    -28.736    508.231    738.091    508.231    509.618    508.231
 81.370    670.000    748.584    -78.584    508.199    747.358    508.199    509.481    508.199
 81.470    792.327    752.121     40.206    508.164    750.998    508.164    509.348    508.164
 81.570    721.212    750.030    -28.818    508.129    749.000    508.129    509.223    508.129
 81.670    751.793    742.702      9.092    508.092    741.753    508.092    509.108    508.092
 81.770    779.891    730.833     49.058    508.054    729.951    508.054    509.004    508.054
 81.870    736.000    715.406     20.594    508.015    714.578    508.015    508.911    508.015
 81.970    712.000    697.665     14.335    507.974    696.879    507.974    508.828    507.974
 82.070    717.000    678.915     38.085    507.932    678.160    507.932    508.752    507.932
 82.170    628.000    660.239    -32.239    507.888    659.506    507.888    508.683    507.888
 82.270    667.000    642.328     24.672    507.843    641.612    507.843    508.618    507.843
 82.370    632.000    625.512      6.488    507.797    624.806    507.797    508.557    507.797
 82.470    631.000    609.916     21.084    507.750    609.218    507.750    508.497    507.750
 82.570    608.000    595.637     12.363    507.701    594.943    507.701    508.439    507.701
 82.670    610.000    582.829     27.171    507.650    582.136    507.650    508.381    507.650
 82.770    599.557    571.693     27.864    507.598    570.999    507.598    508.323    507.598
 82.870    574.000    562.425     11.575    507.545    561.729    507.545    508.265    507.545
 82.970    551.000    555.194     -4.194    507.491    554.495    507.491    508.206    507.491
 83.070    566.000    550.114     15.886    507.435    549.412    507.435    508.146    507.435
 83.170    505.254    547.234    -41.980    507.378    546.527    507.378    508.086    507.378
 83.270    555.879    546.519      9.360    507.319    545.808    507.319    508.024    507.319
 83.370    558.000    547.828     10.172    507.259    547.111    507.259    507.962    507.259
 83.470    557.512    550.895      6.618    507.197    550.172    507.197    507.899    507.197
 83.570    559.000    555.317      3.683    507.135    554.588    507.135    507.834    507.135
 83.670    524.812    560.565    -35.752    507.070    559.830    507.070    507.769    507.070
 83.770    525.000    565.991    -40.991    507.005    565.252    507.005    507.702    507.005
 83.870    528.000    570.872    -42.872    506.938    570.129    506.938    507.634    506.938
 83.970    550.000    574.477    -24.477    506.869    573.731    506.869    507.565    506.869
 84.070    565.410    576.183    -10.773    506.799    575.438    506.799    507.496    506.799
 84.170    603.813    575.630     28.183    506.728    574.886    506.728    507.425    506.728
 84.270    588.107    572.820     15.287    506.656    572.079    506.656    507.352    506.656
 84.370    598.245    568.104     30.141    506.582    567.367    506.582    507.279    506.582
 84.470    543.000    562.051    -19.051    506.506    561.319    506.506    507.205    506.506
 84.570    513.477    555.296    -41.819    506.429    554.568    506.429    507.129    506.429
 84.670    521.000    548.422    -27.422    506.351    547.698    506.351    507.053    506.351
 84.770    545.724    541.901      3.822    506.272    541.181    506.272    506.975    506.272
 84.870    553.000    536.070     16.930    506.191    535.351    506.191    506.896    506.191
 84.970    497.000    531.122    -34.122    506.108    530.404    506.108    506.816    506.108
 85.070    541.760    527.123     14.637    506.024    526.405    506.024    506.734    506.024
 85.170    550.490    524.043     26.447    505.939    523.324    505.939    506.652    505.939
 85.270    480.000    521.784    -41.784    505.852    521.063    505.852    506.568    505.852
 85.370    508.000    520.220    -12.220    505.764    519.497    505.764    506.484    505.764
 85.470    522.305    519.221      3.084    505.675    518.494    505.675    506.398    505.675
 85.570    494.039    518.676    -24.637    505.584    517.945    505.584    506.311    505.584
 85.670    513.000    518.505     -5.505    505.492    517.770    505.492    506.223    505.492
 85.770    531.637    518.668     12.969    505.398    517.929    505.398    506.133    505.398
 85.870    520.000    519.167      0.833    505.303    518.423    505.303    506.041    505.303
 85.970    510.000    520.048    -10.048    505.207    519.297    505.207    505.950    505.207
 86.070    451.000    521.398    -70.398    505.109    520.640    505.109    505.857    505.109
 86.170    534.870    523.345     11.525    505.010    522.579    505.010    505.763    505.010
 86.270    516.000    526.052    -10.052    504.909    525.276    504.909    505.669    504.909
 86.370    535.000    529.701      5.299    504.807    528.915    504.807    505.573    504.807
 86.470    570.000    534.479     35.521    504.704    533.680    504.704    505.476    504.704
 86.570    537.000    540.542     -3.542    504.599    539.728    504.599    505.378    504.599
 86.670    597.000    547.985     49.015    504.493    547.154    504.493    505.279    504.493
 86.770    596.000    556.794     39.206    504.385    555.946    504.385    505.179    504.385
 86.870    569.000    566.814      2.186    504.276    565.946    504.276    505.078    504.276
 86.970    563.000    577.712    -14.712    504.166    576.823    504.166    504.976    504.166
 87.070    588.000    588.967     -0.967    504.054    588.058    504.054    504.874    504.054
 87.170    584.739    599.873    -15.133    503.941    598.943    503.941    504.770    503.941
 87.270    638.929    609.567     29.361    503.827    608.620    503.827    504.665    503.827
 87.370    598.538    617.174    -18.636    503.711    616.211    503.711    504.559    503.711
 87.470    634.000    621.859     12.141    503.594    620.885    503.594    504.453    503.594
 87.570    665.709    623.096     42.612    503.475    622.114    503.475    504.346    503.475
 87.670    668.000    620.811     47.189    503.355    619.825    503.355    504.238    503.355
 87.770    637.880    615.398     22.483    503.234    614.409    503.234    504.129    503.234
 87.870    623.549    607.599     15.949    503.111    606.611    503.111    504.019    503.111
 87.970    574.942    598.336    -23.394    502.987    597.347    502.987    503.909    502.987
 88.070    556.000    588.563    -32.563    502.862    587.574    502.862    503.798    502.862
 88.170    623.000    579.177     43.823    502.735    578.186    502.735    503.686    502.735
 88.270    582.719    570.951     11.768    502.607    569.955    502.607    503.574    502.607
 88.370    541.000    564.487    -23.487    502.478    563.486    502.478    503.461    502.478
 88.470    584.000    560.198     23.802    502.347    559.188    502.347    503.348    502.347
 88.570    586.000    558.290     27.710    502.215    557.270    502.215    503.234    502.215
 88.670    535.163    558.769    -23.606    502.081    557.738    502.081    503.121    502.081
 88.770    577.000    561.452     15.548    501.946    560.408    501.946    503.006    501.946
 88.870    534.359    565.980    -31.621    501.810    564.921    501.810    502.892    501.810
 88.970    560.635    571.837    -11.202    501.673    570.764    501.673    502.778    501.673
 89.070    550.696    578.384    -27.688    501.534    577.293    501.534    502.664    501.534
 89.170    600.000    584.879     15.121    501.394    583.770    501.394    502.550    501.394
 89.270    605.000    590.535     14.465    501.252    589.405    501.252    502.436    501.252
 89.370    630.000    594.589     35.411    501.110    593.437    501.110    502.321    501.110
 89.470    579.570    596.424    -16.854    500.966    595.248    500.966    502.206    500.966
 89.570    563.806    595.700    -31.894    500.820    594.492    500.820    502.093    500.820
 89.670    570.000    592.427    -22.427    500.674    591.184    500.674    501.982    500.674
 89.770    558.860    586.951    -28.092    500.526    585.667    500.526    501.872    500.526
 89.870    583.000    579.839      3.161    500.377    578.510    500.377    501.763    500.377
 89.970    637.000    571.738     65.262    500.226    570.359    500.226    501.657    500.226
 90.070    551.000    563.274    -12.274    500.074    561.842    500.074    501.552    500.074
 90.170    539.174    554.983    -15.809    499.921    553.493    499.921    501.449    499.921
 90.270    517.000    547.282    -30.282    499.767    545.732    499.767    501.349    499.767
 90.370    479.000    540.458    -61.458    499.612    538.842    499.612    501.252    499.612
 90.470    479.000    534.668    -55.668    499.455    532.982    499.455    501.159    499.455
 90.570    518.000    529.958    -11.958    499.297    528.198    499.297    501.071    499.297
 90.670    526.000    526.289     -0.289    499.137    524.449    499.137    500.988    499.137
 90.770    547.382    523.562     23.819    498.977    521.634    498.977    500.912    498.977
 90.870    535.000    521.649     13.351    498.815    519.624    498.815    500.845    498.815
 90.970    560.000    520.420     39.580    498.652    518.285    498.652    500.789    498.652
 91.070    512.000    519.757     -7.757    498.488    517.499    498.488    500.748    498.488
 91.170    549.043    519.576     29.467    498.322    517.173    498.322    500.726    498.322
 91.270    497.000    519.828    -22.828    498.156    517.252    498.156    500.731    498.156
 91.370    512.000    520.490     -8.490    497.988    517.703    497.988    500.773    497.988
 91.470    502.668    521.615    -18.947    497.819    518.565    497.819    500.865    497.819
 91.570    530.000    523.350      6.650    497.649    519.968    497.649    501.026    497.649
 91.670    467.000    525.809    -58.809    497.477    522.001    497.477    501.280    497.477
 91.770    553.000    529.182     23.818    497.305    524.824    497.305    501.655    497.305
 91.870    562.467    533.706     28.761    497.131    528.638    497.131    502.189    497.131
 91.970    536.424    539.643     -3.220    496.956    533.664    496.956    502.922    496.956
 92.070    551.000    547.283      3.717    496.780    540.143    496.780    503.903    496.780
 92.170    530.327    556.888    -26.561    496.603    548.290    496.603    505.178    496.603
 92.270    571.310    568.681      2.629    496.425    558.282    496.425    506.795    496.425
 92.370    600.000    582.808     17.192    496.245    570.225    496.245    508.794    496.245
 92.470    577.000    599.304    -22.304    496.065    584.126    496.065    511.201    496.065
 92.570    622.000    618.059      3.941    495.883    599.870    495.883    514.023    495.883
 92.670    674.000    638.797     35.203    495.701    617.198    495.701    517.243    495.701
 92.770    689.000    661.059     27.941    495.517    635.701    495.517    520.810    495.517
 92.870    706.000    684.201     21.799    495.332    654.824    495.332    524.638    495.332
 92.970    711.000    707.422      3.578    495.146    673.891    495.146    528.600    495.146
 93.070    767.000    729.829     37.171    494.959    692.179    494.959    532.527    494.959
 93.170    765.884    750.554     15.330    494.771    709.032    494.771    536.209    494.771
 93.270    824.000    768.903     55.097    494.581    724.000    494.581    539.400    494.581
 93.370    835.000    784.464     50.536    494.391    736.934    494.391    541.838    494.391
 93.470    815.000    797.168     17.832    494.200    748.002    494.200    543.285    494.200
 93.570    828.099    807.189     20.911    494.008    757.544    494.008    543.574    494.008
 93.670    871.000    814.897     56.103    493.815    765.982    493.815    542.653    493.815
 93.770    824.276    820.795      3.480    493.620    773.739    493.620    540.604    493.620
 93.870    902.000    825.494     76.506    493.425    781.234    493.425    537.615    493.425
 93.970    810.000    829.700    -19.700    493.229    788.925    493.229    533.937    493.229
 94.070    880.824    834.176     46.648    493.032    797.314    493.032    529.829    493.032
 94.170    813.000    839.634    -26.634    492.833    806.874    492.833    525.531    492.833
 94.270    901.000    846.552     54.448    492.634    817.884    492.634    521.243    492.634
 94.370    883.000    855.010     27.990    492.434    830.261    492.434    517.126    492.434
 94.470    813.538    864.574    -51.036    492.233    843.458    492.233    513.294    492.233
 94.570    850.017    874.294    -24.277    492.031    856.448    492.031    509.826    492.031
 94.670    906.000    882.775     23.225    491.828    867.794    491.828    506.764    491.828
 94.770    947.000    888.349     58.651    491.625    875.815    491.625    504.119    491.625
 94.870    952.000    889.331     62.669    491.420    878.841    491.420    501.879    491.420
 94.970    899.000    884.375     14.625    491.215    875.555    491.215    500.012    491.215
 95.070    844.852    872.816    -27.964    491.008    865.333    491.008    498.479    491.008
 95.170    905.000    854.864     50.136    490.801    848.431    490.801    497.230    490.801
 95.270    895.000    831.555     63.445    490.593    825.934    490.593    496.218    490.593
 95.370    840.000    804.512     35.488    490.384    799.508    490.384    495.397    490.384
 95.470    776.588    775.659      0.930    490.174    771.118    490.174    494.727    490.174
 95.570    749.000    746.989      2.011    489.964    742.793    489.964    494.174    489.964
 95.670    734.000    720.421     13.579    489.753    716.479    489.753    493.709    489.753
 95.770    688.000    697.700     -9.700    489.541    693.942    489.541    493.310    489.541
 95.870    637.000    680.382    -43.382    489.328    676.756    489.328    492.961    489.328
 95.970    647.000    669.812    -22.812    489.114    666.279    489.114    492.648    489.114
 96.070    666.000    667.099     -1.099    488.900    663.628    488.900    492.364    488.900
 96.170    678.967    673.165      5.802    488.685    669.733    488.685    492.102    488.685
 96.270    711.719    688.748     22.971    488.469    685.336    488.469    491.856    488.469
 96.370    710.731    714.390     -3.659    488.252    710.981    488.252    491.626    488.252
 96.470    759.260    750.387      8.873    488.035    746.968    488.035    491.407    488.035
 96.570    758.000    796.715    -38.715    487.817    793.273    487.817    491.200    487.817
 96.670    910.316    852.922     57.394    487.599    849.446    487.599    491.004    487.599
 96.770    912.686    918.017     -5.330    487.380    914.497    487.380    490.817    487.380
 96.870   1004.000    990.368     13.632    487.160    986.796    487.160    490.639    487.160
 96.970   1037.000   1067.653    -30.653    486.939   1064.020    486.939    490.471    486.939
 97.070   1075.000   1146.823    -71.823    486.718   1143.123    486.718    490.313    486.718
 97.170   1218.000   1224.154     -6.154    486.497   1220.381    486.497    490.165    486.497
 97.270   1273.000   1295.382    -22.382    486.275   1291.529    486.275    490.027    486.275
 97.370   1381.000   1355.965     25.035    486.052   1352.025    486.052    489.899    486.052
 97.470   1446.166   1401.542     44.624    485.828   1397.509    485.828    489.783    485.828
 97.570   1439.000   1428.571     10.429    485.605   1424.437    485.605    489.679    485.605
 97.670   1418.000   1434.998    -16.998    485.380   1430.752    485.380    489.588    485.380
 97.770   1462.000   1420.679     41.321    485.155   1416.308    485.155    489.512    485.155
 97.870   1459.000   1387.345     71.655    484.930   1382.831    484.930    489.451    484.930
 97.970   1368.000   1338.160     29.840    484.704   1333.481    484.704    489.409    484.704
 98.070   1250.000   1277.111    -27.111    484.478   1272.242    484.478    489.387    484.478
 98.170   1188.000   1208.477    -20.477    484.251   1203.389    484.251    489.390    484.251
 98.270   1210.000   1136.449     73.551    484.024   1131.107    484.024    489.423    484.024
 98.370   1082.000   1064.891     17.109    483.796   1059.253    483.796    489.492    483.796
 98.470   1008.000    997.193     10.807    483.568    991.208    483.568    489.609    483.568
 98.570    909.000    936.207    -27.207    483.340    929.813    483.340    489.786    483.340
 98.670    838.233    884.245    -46.012    483.111    877.357    483.111    490.042    483.111
 98.770    829.000    843.108    -14.108    482.882    835.621    482.882    490.404    482.882
 98.870    859.856    814.158     45.698    482.652    805.931    482.652    490.905    482.652
 98.970    773.385    798.392    -25.007    482.423    789.240    482.423    491.590    482.423
 99.070    827.580    796.523     31.057    482.193    786.204    482.193    492.518    482.193
 99.170    792.681    809.040    -16.359    481.962    797.239    481.962    493.760    481.962
 99.270    859.941    836.238     23.703    481.732    822.553    481.732    495.404    481.732
 99.370    862.000    878.203    -16.203    481.501    862.130    481.501    497.555    481.501
 99.470    991.000    934.776     56.224    481.270    915.691    481.270    500.331    481.270
 99.570   1009.000   1005.497      3.503    481.039    982.647    481.039    503.862    481.039
 99.670   1037.540   1089.443    -51.903    480.807   1061.940    480.807    508.284    480.807
 99.770   1241.347   1185.175     56.172    480.576   1151.998    480.576    513.729    480.576
 99.870   1219.941   1290.639    -70.697    480.344   1250.649    480.344    520.317    480.344
 99.970   1405.000   1403.099      1.901    480.112   1355.064    480.112    528.141    480.112
100.070   1543.000   1519.132     23.868    479.880   1461.767    479.880    537.254    479.880
100.170   1615.250   1634.708    -19.458    479.648   1566.731    479.648    547.654    479.648
100.270   1742.000   1745.416     -3.416    479.416   1665.615    479.416    559.268    479.416
100.370   1865.000   1846.816     18.184    479.183   1754.133    479.183    571.942    479.183
100.470   1986.515   1934.858     51.657    478.951   1828.479    478.951    585.433    478.951
100.570   1941.151   2006.209    -65.059    478.719   1885.658    478.719    599.400    478.719
100.670   2130.981   2058.355     72.626    478.487   1923.596    478.487    613.400    478.487
100.770   2103.225   2089.520     13.704    478.254   1941.057    478.254    626.894    478.254
100.870   2100.000   2098.571      1.429    478.022   1937.532    478.022    639.255    478.022
100.970   2108.000   2085.086     22.914    477.790   1913.285    477.790    649.798    477.790
101.070   2080.000   2049.632     30.368    477.558   1869.568    477.558    657.836    477.558
101.170   1927.950   1994.068    -66.118    477.326   1808.848    477.326    662.763    477.326
101.270   1908.000   1921.650    -13.650    477.094   1734.795    477.094    664.164    477.094
101.370   1832.914   1836.788     -3.874    476.862   1651.956    476.862    661.902    476.862
101.470   1705.541   1744.521    -38.980    476.630   1565.201    476.630    656.147    476.630
101.570   1624.639   1649.915    -25.276    476.399   1479.154    476.399    647.342    476.399
101.670   1513.000   1557.552    -44.552    476.168   1397.779    476.168    636.106    476.168
101.770   1538.852   1471.173     67.680    475.937   1324.126    475.937    623.132    475.937
101.870   1435.430   1393.496     41.934    475.706   1260.234    475.706    609.101    475.706
101.970   1291.000   1326.153    -35.153    475.476   1207.116    475.476    594.631    475.476
102.070   1251.000   1269.704    -18.704    475.245   1164.805    475.245    580.250    475.245
102.170   1208.000   1223.725    -15.725    475.016   1132.447    475.016    566.388    475.016
102.270   1153.000   1186.932    -33.932    474.786   1108.431    474.786    553.374    474.786
102.370   1150.000   1157.361     -7.361    474.557   1090.557    474.557    541.444    474.557
102.470   1084.000   1132.586    -48.586    474.328   1076.252    474.328    530.743    474.328
102.570   1106.936   1109.992     -3.056    474.100   1062.839    474.100    521.333    474.100
102.670   1035.000   1087.111    -52.111    473.872   1047.855    473.872    513.209    473.872
102.770   1103.000   1061.949     41.051    473.644   1029.362    473.644    506.314    473.644
102.870   1027.605   1033.230     -5.625    473.417   1006.182    473.417    500.549    473.417
102.970    991.000   1000.484     -9.484    473.190    977.971    473.190    495.788    473.190
103.070    980.020    963.978     16.043    472.964    945.124    472.964    491.902    472.964
103.170    917.000    924.503     -7.503    472.739    908.561    472.739    488.763    472.739
103.270    859.819    883.142    -23.324    472.514    869.498    472.514    486.235    472.514
103.370    812.000    841.091    -29.091    472.290    829.250    472.290    484.203    472.290
103.470    810.000    799.521     10.479    472.066    789.091    472.066    482.562    472.066
103.570    782.000    759.491     22.509    471.843    750.166    471.843    481.228    471.843
103.670    737.000    721.885     15.115    471.620    713.429    471.620    480.129    471.620
103.770    674.000    687.379    -13.379    471.398    679.615    471.398    479.209    471.398
103.870    650.000    656.429     -6.429    471.177    649.220    471.177    478.426    471.177
103.970    608.000    629.266    -21.266    470.957    622.512    470.957    477.744    470.957
104.070    610.512    605.926      4.587    470.738    599.549    470.738    477.141    470.738
104.170    654.000    586.270     67.730    470.519    580.214    470.519    476.597    470.519
104.270    602.000    570.047     31.953    470.301    564.265    470.301    476.100    470.301
104.370    592.684    556.906     35.779    470.084    551.364    470.084    475.639    470.084
104.470    577.659    546.460     31.199    469.867    541.129    469.867    475.208    469.867
104.570    542.000    538.324      3.676    469.652    533.181    469.652    474.802    469.652
104.670    561.000    532.115     28.885    469.438    527.140    469.438    474.417    469.438
104.770    579.000    527.497     51.503    469.224    522.673    469.224    474.051    469.224
104.870    578.000    524.182     53.818    469.011    519.493    469.011    473.701    469.011
104.970    526.000    521.940      4.060    468.800    517.374    468.800    473.366    468.800
105.070    528.000    520.600      7.400    468.589    516.143    468.589    473.044    468.589
105.170    514.658    520.043     -5.385    468.380    515.685    468.380    472.734    468.380
105.270    522.370    520.206      2.165    468.171    515.936    468.171    472.436    468.171
105.370    527.000    521.068      5.932    467.964    516.877    467.964    472.149    467.964
105.470    522.000    522.653     -0.653    467.758    518.532    467.758    471.871    467.758
105.570    565.902    525.017     40.884    467.553    520.958    467.553    471.603    467.553
105.670    521.000    528.245     -7.245    467.349    524.239    467.349    471.343    467.349
105.770    519.147    532.440    -13.293    467.146    528.480    467.146    471.092    467.146
105.870    517.061    537.708    -20.646    466.945    533.787    466.945    470.849    466.945
105.970    559.000    544.147     14.853    466.745    540.259    466.745    470.613    466.745
106.070    501.959    551.832    -49.873    466.546    547.969    466.546    470.385    466.546
106.170    569.000    560.793      8.207    466.349    556.951    466.349    470.164    466.349
106.270    558.000    571.009    -13.009    466.153    567.182    466.153    469.950    466.153
106.370    601.748    582.394     19.354    465.958    578.575    465.958    469.743    465.958
106.470    608.300    594.787     13.512    465.765    590.972    465.765    469.542    465.765
106.570    628.000    607.954     20.046    465.573    604.138    465.573    469.348    465.573
106.670    578.000    621.587    -43.587    465.382    617.765    465.382    469.160    465.382
106.770    606.000    635.309    -29.309    465.193    631.479    465.193    468.978    465.193
106.870    640.000    648.693     -8.693    465.006    644.849    465.006    468.803    465.006
106.970    708.802    661.273     47.529    464.820    657.411    464.820    468.633    464.820
107.070    661.000    672.577    -11.577    464.636    668.695    464.636    468.470    464.636
107.170    699.000    682.170     16.830    464.453    678.263    464.453    468.313    464.453
107.270    635.000    689.703    -54.703    464.273    685.768    464.273    468.162    464.273
107.370    686.489    694.977     -8.487    464.093    691.010    464.093    468.018    464.093
107.470    672.000    697.982    -25.982    463.916    693.980    463.916    467.880    463.916
107.570    696.000    698.912     -2.912    463.740    694.870    463.740    467.748    463.740
107.670    646.830    698.131    -51.301    463.566    694.045    463.566    467.622    463.566
107.770    702.197    696.118      6.079    463.394    691.983    463.394    467.504    463.394
107.870    650.342    693.390    -43.048    463.224    689.200    463.224    467.392    463.224
107.970    636.000    690.441    -54.441    463.055    686.192    463.055    467.287    463.055
108.070    642.000    687.692    -45.692    462.889    683.379    462.889    467.189    462.889
108.170    655.033    685.459    -30.426    462.724    681.077    462.724    467.099    462.724
108.270    697.000    683.932     13.068    462.562    679.474    462.562    467.016    462.562
108.370    708.957    683.164     25.793    462.401    678.624    462.401    466.941    462.401
108.470    670.000    683.073    -13.073    462.243    678.444    462.243    466.874    462.243
108.570    720.663    683.446     37.217    462.086    678.723    462.086    466.815    462.086
108.670    686.000    683.961      2.039    461.932    679.137    461.932    466.765    461.932
108.770    659.000    684.214    -25.214    461.780    679.282    461.780    466.725    461.780
108.870    697.000    683.763     13.237    461.630    678.715    461.630    466.693    461.630
108.970    723.000    682.182     40.818    461.482    677.010    461.482    466.671    461.482
109.070    751.000    679.121     71.879    461.336    673.817    461.336    466.660    461.336
109.170    674.957    674.361      0.595    461.193    668.917    461.193    466.660    461.193
109.270    680.000    667.843     12.157    461.052    662.247    461.052    466.671    461.052
109.370    627.000    659.661    -32.661    460.914    653.905    460.914    466.694    460.914
109.470    654.000    650.044      3.956    460.777    644.116    460.777    466.730    460.777
109.570    643.804    639.304      4.500    460.644    633.193    460.644    466.779    460.644
109.670    601.044    627.800    -26.756    460.512    621.492    460.512    466.842    460.512
109.770    598.000    615.897    -17.897    460.383    609.381    460.383    466.921    460.383
109.870    584.000    603.944    -19.944    460.257    597.205    460.257    467.016    460.257
109.970    644.000    592.223     51.777    460.133    585.247    460.133    467.128    460.133
110.070    576.000    581.095     -5.095    460.012    573.865    460.012    467.258    460.012
110.170    571.388    570.746      0.642    459.894    563.245    459.894    467.409    459.894
110.270    559.887    561.344     -1.457    459.778    553.552    459.778    467.582    459.778
110.370    513.674    553.005    -39.331    459.665    544.901    459.665    467.779    459.665
110.470    541.521    545.795     -4.274    459.554    537.354    459.554    468.002    459.554
110.570    556.000    539.731     16.269    459.447    530.927    459.447    468.256    459.447
110.670    493.179    534.792    -41.613    459.342    525.594    459.342    468.544    459.342
110.770    545.487    530.927     14.560    459.240    521.297    459.240    468.873    459.240
110.870    567.000    528.061     38.939    459.141    517.956    459.141    469.247    459.141
110.970    522.000    526.108     -4.108    459.045    515.475    459.045    469.677    459.045
111.070    532.000    524.975      7.025    458.952    513.750    458.952    470.174    458.952
111.170    556.774    524.572     32.202    458.862    512.678    458.862    470.752    458.862
111.270    508.000    524.817    -16.817    458.775    512.157    458.775    471.431    458.775
111.370    512.868    525.641    -12.772    458.691    512.092    458.691    472.234    458.691
111.470    523.000    526.988     -3.988    458.610    512.401    458.610    473.191    458.610
111.570    529.000    528.823      0.177    458.532    513.008    458.532    474.340    458.532
111.670    512.000    531.129    -19.129    458.458    513.852    458.458    475.728    458.458
111.770    568.000    533.912     34.088    458.387    514.880    458.387    477.410    458.387
111.870    566.000    537.199     28.801    458.319    516.053    458.319    479.457    458.319
111.970    532.000    541.044     -9.044    458.254    517.342    458.254    481.947    458.254
112.070    515.000    545.521    -30.521    458.193    518.730    458.193    484.975    458.193
112.170    525.175    550.732    -25.558    458.135    520.211    458.135    488.647    458.135
112.270    513.747    556.802    -43.055    458.081    521.788    458.081    493.084    458.081
112.370    540.000    563.873    -23.873    458.030    523.477    458.030    498.416    458.030
112.470    586.000    572.108     13.892    457.983    525.297    457.983    504.783    457.983
112.570    585.000    581.681      3.319    457.939    527.280    457.939    512.328    457.939
112.670    574.000    592.773    -18.773    457.899    529.463    457.899    521.196    457.899
112.770    598.849    605.569     -6.720    457.862    531.894    457.862    531.524    457.862
112.870    598.700    620.252    -21.552    457.829    534.633    457.829    543.435    457.829
112.970    639.164    636.997      2.167    457.800    537.755    457.800    557.027    457.800
113.070    683.000    655.970     27.030    457.775    541.360    457.775    572.369    457.775
113.170    657.000    677.327    -20.327    457.753    545.576    457.753    589.487    457.753
113.270    727.538    701.210     26.328    457.736    550.572    457.736    608.354    457.736
113.370    756.320    727.758     28.561    457.722    556.573    457.722    628.886    457.722
113.470    809.000    757.116     51.884    457.712    563.875    457.712    650.930    457.712
113.570    791.444    789.444      2.000    457.707    572.863    457.707    674.260    457.707
113.670    783.017    824.939    -41.922    457.705    584.041    457.705    698.572    457.705
113.770    876.000    863.862     12.138    457.707    598.051    457.707    723.483    457.707
113.870    970.000    906.561     63.439    457.714    615.707    457.714    748.526    457.714
113.970    964.111    953.507     10.605    457.725    638.025    457.725    773.156    457.725
114.070    968.000   1005.322    -37.322    457.740    666.249    457.740    796.754    457.740
114.170   1068.000   1062.826      5.174    457.759    701.875    457.759    818.639    457.759
114.270   1102.000   1127.064    -25.064    457.782    746.674    457.782    838.089    457.782
114.370   1245.000   1199.358     45.642    457.810    802.691    457.810    854.377    457.810
114.470   1350.000   1281.339     68.661    457.842    872.238    457.842    866.825    457.842
114.570   1422.072   1374.986     47.085    457.879    957.859    457.879    874.864    457.879
114.670   1411.210   1482.629    -71.419    457.920   1062.276    457.920    878.103    457.920
114.770   1615.000   1606.916      8.084    457.966   1188.299    457.966    876.381    457.966
114.870   1806.109   1750.721     55.388    458.016   1338.713    458.016    869.787    458.016
114.970   2033.000   1916.980    116.020    458.071   1516.123    458.071    858.651    458.071
115.070   2108.999   2108.471      0.528    458.130   1722.783    458.130    843.497    458.130
115.170   2360.000   2327.551     32.449    458.195   1960.399    458.195    824.978    458.195
115.270   2641.000   2575.884     65.116    458.264   2229.918    458.264    803.813    458.264
115.370   2764.332   2854.177    -89.845    458.338   2531.321    458.338    780.728    458.338
115.470   3331.000   3161.944    169.056    458.416   2863.428    458.416    756.419    458.416
115.570   3606.144   3497.323    108.822    458.500   3223.740    458.500    731.524    458.500
115.670   3861.365   3856.935      4.429    458.589   3608.313    458.589    706.613    458.589
115.770   4137.000   4235.823    -98.823    458.682   4011.704    458.682    682.173    458.682
115.870   4484.000   4627.445   -143.445    458.781   4426.963    458.781    658.613    458.781
115.970   5108.701   5023.750     84.951    458.885   4845.716    458.885    636.260    458.885
116.070   5335.000   5415.326    -80.326    458.994   5258.306    458.994    615.361    458.994
116.170   5710.000   5791.635    -81.635    459.108   5654.020    459.108    596.091    459.108
116.270   6061.000   6141.331    -80.331    459.227   6021.412    459.227    578.554    459.227
116.370   6417.000   6452.705    -35.705    459.352   6348.730    459.352    562.791    459.352
116.470   6747.000   6714.266     32.734    459.482   6624.495    459.482    548.792    459.482
116.570   6993.000   6915.466     77.534    459.617   6838.213    459.617    536.499    459.617
116.670   7189.000   7047.548    141.452    459.758   6981.216    459.758    525.822    459.758
116.770   7187.000   7104.388     82.612    459.904   7047.492    459.904    516.644    459.904
116.870   7176.177   7083.162     93.014    460.056   7034.346    460.056    508.832    460.056
116.970   6782.000   6984.663   -202.663    460.214   6942.708    460.214    502.242    460.214
117.070   6944.228   6813.241    130.987    460.377   6777.068    460.377    496.731    460.377
117.170   6513.000   6576.198    -63.198    460.546   6544.862    460.546    492.157    460.546
117.270   6382.000   6283.025     98.975    460.720   6255.715    460.720    488.386    460.720
117.370   5900.631   5944.581    -43.950    460.901   5920.605    460.901    485.296    460.901
117.470   5293.000   5572.300   -279.300    461.087   5551.077    461.087    482.777    461.087
117.570   5287.933   5177.557    110.376    461.279   5158.603    461.279    480.729    461.279
117.670   4658.000   4771.175   -113.175    461.478   4754.091    461.478    479.070    461.478
117.770   4456.000   4363.059     92.941    461.682   4347.521    461.682    477.727    461.682
117.870   4029.560   3961.935     67.624    461.892   3947.679    461.892    476.642    461.892
117.970   3542.801   3575.175    -32.374    462.108   3561.988    462.108    475.764    462.108
118.070   3184.405   3208.697    -24.292    462.331   3196.410    462.331    475.053    462.331
118.170   2929.064   2866.952     62.112    462.560   2855.430    462.560    474.478    462.560
118.270   2663.000   2552.970    110.030    462.795   2542.105    462.795    474.013    462.795
118.370   2240.105   2268.473    -28.368    463.036   2258.181    463.036    473.638    463.036
118.470   2070.000   2014.025     55.975    463.284   2004.237    463.284    473.337    463.284
118.570   1756.000   1789.211    -33.211    463.538   1779.874    463.538    473.098    463.538
118.670   1597.000   1592.834      4.166    463.799   1583.905    463.799    472.912    463.799
118.770   1385.000   1423.101    -38.101    464.066   1414.545    464.066    472.771    464.066
118.870   1342.534   1277.813     64.721    464.340   1269.600    464.340    472.670    464.340
118.970   1130.000   1154.528    -24.528    464.621   1146.634    464.621    472.605    464.621
119.070   1100.244   1050.711     49.533    464.908   1043.115    464.908    472.572    464.908
119.170    978.589    963.853     14.736    465.202    956.536    465.202    472.568    465.202
119.270    864.000    891.564    -27.564    465.503    884.509    465.503    472.592    465.503
119.370    886.000    831.640     54.360    465.811    824.832    465.811    472.642    465.811
119.470    729.000    782.100    -53.100    466.125    775.524    466.125    472.717    466.125
119.570    694.000    741.207    -47.207    466.447    734.849    466.447    472.815    466.447
119.670    710.000    707.469      2.531    466.776    701.314    466.776    472.936    466.776
119.770    609.000    679.624    -70.624    467.112    673.659    467.112    473.080    467.112
119.870    638.000    656.624    -18.624    467.455    650.835    467.455    473.246    467.455
119.970    593.191    637.611    -44.420    467.805    631.983    467.805    473.434    467.805
120.070    635.717    621.887     13.830    468.163    616.406    468.163    473.644    468.163
120.170    576.000    608.892    -32.892    468.528    603.543    468.528    473.877    468.528
120.270    639.422    598.181     41.241    468.900    592.948    468.900    474.133    468.900
120.370    584.000    589.398     -5.398    469.280    584.267    469.280    474.413    469.280
120.470    553.000    582.267    -29.267    469.667    577.219    469.667    474.717    469.667
120.570    587.000    576.566     10.434    470.062    571.586    470.062    475.045    470.062
120.670    548.000    572.128    -24.128    470.465    567.195    470.465    475.402    470.465
120.770    546.000    568.818    -22.818    470.875    563.910    470.875    475.787    470.875
120.870    530.000    566.528    -36.528    471.293    561.625    471.293    476.202    471.293
120.970    564.636    565.177     -0.541    471.719    560.255    471.719    476.647    471.719
121.070    598.610    564.698     33.912    472.153    559.733    472.153    477.124    472.153
121.170    563.000    565.034     -2.034    472.594    560.001    472.594    477.635    472.594
121.270    534.000    566.135    -32.135    473.044    561.009    473.044    478.180    473.044
121.370    595.000    567.956     27.044    473.502    562.708    473.502    478.760    473.502
121.470    579.000    570.450      8.550    473.968    565.053    473.968    479.377    473.968
121.570    587.000    573.564     13.436    474.442    567.991    474.442    480.030    474.442
121.670    563.000    577.243    -14.243    474.924    571.465    474.924    480.718    474.924
121.770    607.000    581.421     25.579    475.415    575.412    475.415    481.442    475.415
121.870    559.000    586.024    -27.024    475.914    579.758    475.914    482.200    475.914
121.970    600.918    590.966      9.952    476.422    584.420    476.422    482.990    476.422
122.070    644.427    596.153     48.274    476.938    589.307    476.938    483.810    476.938
122.170    605.000    601.478      3.522    477.462    594.314    477.462    484.655    477.462
122.270    603.000    606.827     -3.827    477.995    599.332    477.995    485.523    477.995
122.370    598.000    612.076    -14.076    478.537    604.241    478.537    486.407    478.537
122.470    637.000    617.097     19.903    479.088    608.920    479.088    487.303    479.088
122.570    605.655    621.758    -16.103    479.647    613.242    479.647    488.204    479.647
122.670    679.000    625.931     53.069    480.216    617.087    480.216    489.104    480.216
122.770    655.000    629.496     25.504    480.793    620.342    480.793    489.993    480.793
122.870    640.000    632.347      7.653    481.379    622.910    481.379    490.865    481.379
122.970    640.344    634.400      5.943    481.975    624.714    481.975    491.711    481.975
123.070    632.000    635.598     -3.598    482.579    625.705    482.579    492.523    482.579
123.170    656.000    635.913     20.087    483.193    625.864    483.193    493.293    483.193
123.270    622.000    635.349    -13.349    483.816    625.201    483.816    494.015    483.816
123.370    667.000    633.940     33.060    484.448    623.755    484.448    494.684    484.448
123.470    637.000    631.743      5.257    485.090    621.586    485.090    495.297    485.090
123.570    616.186    628.836    -12.650    485.742    618.772    485.742    495.854    485.742
123.670    673.230    625.307     47.923    486.402    615.401    486.402    496.355    486.402
123.770    591.000    621.252    -30.252    487.073    611.567    487.073    496.801    487.073
123.870    654.109    616.781     37.328    487.753    607.368    487.753    497.207    487.753
123.970    641.000    611.993     29.007    488.443    602.898    488.443    497.576    488.443
124.070    605.000    606.985     -1.985    489.142    598.248    489.142    497.915    489.142
124.170    614.239    601.850     12.389    489.852    593.501    489.852    498.232    489.852
124.270    549.362    596.672    -47.310    490.571    588.735    490.571    498.537    490.571
124.370    596.000    591.523      4.477    491.301    584.014    491.301    498.836    491.301
124.470    601.000    586.468     14.532    492.040    579.394    492.040    499.136    492.040
124.570    606.000    581.558     24.442    492.790    574.921    492.790    499.446    492.790
124.670    619.058    576.833     42.225    493.550    570.629    493.550    499.770    493.550
124.770    601.017    572.323     28.694    494.320    566.544    494.320    500.113    494.320
124.870    609.000    568.051     40.949    495.101    562.683    495.101    500.481    495.101
124.970    584.000    564.032     19.968    495.892    559.057    495.892    500.876    495.892
