neutron_powder_diffraction_0139
R_wp: 4.040
Temperature (K): 1076.869
Counts: 83417.00
Wavelength (Ã…): 2.52098
COMMENTS
Test file for demonstrating the .xyy file format in Reel1.0
END OF HEADER
   tth       Y_obs     Y_calc      Y_res    Background    Phase_1_Nuc    Phase_1_Mag    Phase_2_Nuc    Phase_2_Mag
  9.970    601.000    573.311     27.689    572.464    573.252    572.464    572.522    572.464
 10.070    579.000    573.372      5.628    572.456    573.313    572.456    572.514    572.456
 10.170    549.000    573.439    -24.439    572.444    573.380    572.444    572.502    572.444
 10.270    609.000    573.513     35.487    572.427    573.453    572.427    572.486    572.427
 10.370    632.000    573.597     58.403    572.406    573.537    572.406    572.465    572.406
 10.470    596.000    573.695     22.305    572.381    573.635    572.381    572.440    572.381
 10.570    573.997    573.811      0.186    572.352    573.751    572.352    572.411    572.352
 10.670    603.225    573.951     29.273    572.318    573.891    572.318    572.378    572.318
 10.770    527.000    574.123    -47.123    572.280    574.062    572.280    572.340    572.280
 10.870    539.000    574.337    -35.337    572.238    574.275    572.238    572.298    572.238
 10.970    589.000    574.607     14.393    572.191    574.546    572.191    572.252    572.191
 11.070    619.294    574.956     44.339    572.141    574.894    572.141    572.202    572.141
 11.170    553.000    575.413    -22.413    572.087    575.350    572.087    572.148    572.087
 11.270    645.000    576.026     68.974    572.028    575.963    572.028    572.089    572.028
 11.370    564.000    576.882    -12.882    571.966    576.817    571.966    572.027    571.966
 11.470    559.260    578.172    -18.912    571.899    578.107    571.899    571.961    571.899
 11.570    611.000    580.403     30.597    571.829    580.337    571.829    571.891    571.829
 11.670    603.926    584.839     19.087    571.755    584.770    571.755    571.818    571.755
 11.770    598.000    594.031      3.969    571.677    593.956    571.677    571.740    571.677
 11.870    685.000    611.545     73.455    571.596    611.459    571.596    571.659    571.596
 11.970    657.281    639.554     17.727    571.511    639.452    571.511    571.574    571.511
 12.070    641.844    674.010    -32.166    571.422    673.888    571.422    571.485    571.422
 12.170    709.262    700.386      8.876    571.329    700.249    571.329    571.393    571.329
 12.270    702.000    701.020      0.980    571.233    700.882    571.233    571.297    571.233
 12.370    701.080    675.280     25.799    571.133    675.157    571.133    571.198    571.133
 12.470    677.000    640.556     36.444    571.030    640.452    571.030    571.095    571.030
 12.570    566.714    611.890    -45.176    570.923    611.802    570.923    570.988    570.923
 12.670    568.000    593.737    -25.737    570.813    593.658    570.813    570.878    570.813
 12.770    624.264    584.071     40.193    570.700    583.998    570.700    570.765    570.700
 12.870    595.000    579.309     15.691    570.583    579.238    570.583    570.649    570.583
 12.970    592.446    576.831     15.615    570.463    576.762    570.463    570.529    570.463
 13.070    593.000    575.328     17.672    570.339    575.259    570.339    570.406    570.339
 13.170    604.451    574.273     30.178    570.212    574.204    570.212    570.279    570.212
 13.270    528.000    573.466    -45.466    570.083    573.397    570.083    570.150    570.083
 13.370    569.000    572.821     -3.821    569.950    572.752    569.950    570.017    569.950
 13.470    536.000    572.286    -36.286    569.813    572.217    569.813    569.881    569.813
 13.570    605.406    571.830     33.576    569.674    571.761    569.674    569.742    569.674
 13.670    560.000    571.432    -11.432    569.532    571.363    569.532    569.600    569.532
 13.770    574.000    571.078      2.922    569.386    571.009    569.386    569.455    569.386
 13.870    585.000    570.758     14.242    569.238    570.688    569.238    569.307    569.238
 13.970    555.000    570.463    -15.463    569.087    570.393    569.087    569.156    569.087
 14.070    571.000    570.187      0.813    568.933    570.117    568.933    569.002    568.933
 14.170    554.365    569.927    -15.562    568.776    569.856    568.776    568.846    568.776
 14.270    579.000    569.679      9.321    568.616    569.608    568.616    568.686    568.616
 14.370    509.000    569.440    -60.440    568.453    569.369    568.453    568.524    568.453
 14.470    590.000    569.209     20.791    568.288    569.137    568.288    568.359    568.288
 14.570    522.210    568.983    -46.773    568.120    568.911    568.120    568.191    568.120
 14.670    541.000    568.762    -27.762    567.949    568.690    567.949    568.021    567.949
 14.770    529.000    568.544    -39.544    567.775    568.472    567.775    567.848    567.775
 14.870    583.000    568.329     14.671    567.599    568.256    567.599    567.672    567.599
 14.970    589.000    568.116     20.884    567.421    568.042    567.421    567.494    567.421
 15.070    546.000    567.904    -21.904    567.240    567.830    567.240    567.313    567.240
 15.170    570.000    567.692      2.308    567.056    567.618    567.056    567.130    567.056
 15.270    576.000    567.483      8.517    566.870    567.407    566.870    566.946    566.870
 15.370    557.000    567.273    -10.273    566.681    567.196    566.681    566.758    566.681
 15.470    561.000    567.062     -6.062    566.490    566.984    566.490    566.567    566.490
 15.570    568.000    566.851      1.149    566.297    566.773    566.297    566.374    566.297
 15.670    581.070    566.639     14.431    566.101    566.561    566.101    566.179    566.101
 15.770    585.000    566.427     18.573    565.903    566.348    565.903    565.982    565.903
 15.870    553.000    566.216    -13.216    565.702    566.137    565.702    565.782    565.702
 15.970    538.000    566.002    -28.002    565.500    565.922    565.500    565.580    565.500
 16.070    563.828    565.787     -1.959    565.295    565.707    565.295    565.375    565.295
 16.170    587.000    565.571     21.429    565.088    565.490    565.088    565.169    565.088
 16.270    557.000    565.353     -8.353    564.879    565.272    564.879    564.960    564.879
 16.370    609.429    565.135     44.295    564.668    565.053    564.668    564.749    564.668
 16.470    537.000    564.915    -27.915    564.455    564.832    564.455    564.537    564.455
 16.570    573.641    564.693      8.948    564.239    564.611    564.239    564.322    564.239
 16.670    563.000    564.471     -1.471    564.022    564.387    564.022    564.105    564.022
 16.770    570.000    564.247      5.753    563.803    564.163    563.803    563.886    563.803
 16.870    508.000    564.022    -56.022    563.581    563.938    563.581    563.665    563.581
 16.970    540.000    563.797    -23.797    563.358    563.712    563.358    563.443    563.358
 17.070    546.416    563.569    -17.153    563.133    563.484    563.133    563.218    563.133
 17.170    520.537    563.340    -42.802    562.906    563.254    562.906    562.992    562.906
 17.270    542.000    563.109    -21.109    562.677    563.023    562.677    562.763    562.677
 17.370    591.000    562.877     28.123    562.447    562.790    562.447    562.533    562.447
 17.470    559.000    562.644     -3.644    562.214    562.556    562.214    562.302    562.214
 17.570    561.167    562.409     -1.242    561.980    562.321    561.980    562.068    561.980
 17.670    555.000    562.173     -7.173    561.745    562.084    561.745    561.833    561.745
 17.770    567.013    561.936      5.077    561.507    561.846    561.507    561.596    561.507
 17.870    572.000    561.697     10.303    561.268    561.607    561.268    561.358    561.268
 17.970    515.777    561.457    -45.680    561.027    561.367    561.027    561.118    561.027
 18.070    511.000    561.216    -50.216    560.785    561.125    560.785    560.876    560.785
 18.170    577.887    560.973     16.913    560.541    560.882    560.541    560.633    560.541
 18.270    587.000    560.731     26.269    560.296    560.639    560.296    560.388    560.296
 18.370    551.629    560.501     -8.872    560.049    560.408    560.049    560.142    560.049
 18.470    548.000    560.266    -12.266    559.801    560.172    559.801    559.894    559.801
 18.570    572.000    560.020     11.980    559.551    559.925    559.551    559.645    559.551
 18.670    547.000    559.772    -12.772    559.300    559.677    559.300    559.395    559.300
 18.770    553.000    559.523     -6.523    559.047    559.427    559.047    559.143    559.047
 18.870    533.000    559.273    -26.273    558.793    559.176    558.793    558.890    558.793
 18.970    602.215    559.022     43.194    558.538    558.925    558.538    558.635    558.538
 19.070    576.000    558.770     17.230    558.282    558.672    558.282    558.379    558.282
 19.170    552.000    558.517     -6.517    558.024    558.418    558.024    558.122    558.024
 19.270    537.000    558.263    -21.263    557.765    558.164    557.765    557.864    557.765
 19.370    537.038    558.008    -20.971    557.504    557.908    557.504    557.604    557.504
 19.470    532.000    557.753    -25.753    557.243    557.652    557.243    557.344    557.243
 19.570    563.163    557.497      5.667    556.980    557.395    556.980    557.082    556.980
 19.670    607.000    557.240     49.760    556.717    557.137    556.717    556.819    556.717
 19.770    574.000    556.982     17.018    556.452    556.879    556.452    556.555    556.452
 19.870    577.495    556.724     20.771    556.186    556.620    556.186    556.290    556.186
 19.970    535.083    556.465    -21.382    555.919    556.360    555.919    556.024    555.919
 20.070    602.000    556.206     45.794    555.651    556.100    555.651    555.757    555.651
 20.170    554.000    555.946     -1.946    555.382    555.839    555.382    555.489    555.382
 20.270    530.000    555.686    -25.686    555.112    555.578    555.112    555.220    555.112
 20.370    528.043    555.426    -27.383    554.841    555.317    554.841    554.950    554.841
 20.470    563.000    555.174      7.826    554.569    555.064    554.569    554.679    554.569
 20.570    549.000    555.001     -6.001    554.296    554.890    554.296    554.407    554.296
 20.670    516.070    554.764    -38.694    554.022    554.652    554.022    554.134    554.022
 20.770    579.348    554.508     24.840    553.748    554.395    553.748    553.861    553.748
 20.870    570.783    554.248     16.536    553.472    554.133    553.472    553.587    553.472
 20.970    573.000    553.987     19.013    553.196    553.871    553.196    553.312    553.196
 21.070    523.000    553.726    -30.726    552.919    553.610    552.919    553.036    552.919
 21.170    543.000    553.466    -10.466    552.641    553.348    552.641    552.759    552.641
 21.270    542.000    553.206    -11.206    552.363    553.087    552.363    552.482    552.363
 21.370    516.000    552.947    -36.947    552.084    552.827    552.084    552.204    552.084
 21.470    523.080    552.689    -29.608    551.804    552.567    551.804    551.926    551.804
 21.570    598.035    552.436     45.599    551.524    552.313    551.524    551.647    551.524
 21.670    523.585    552.227    -28.642    551.242    552.102    551.242    551.367    551.242
 21.770    570.000    551.990     18.010    550.961    551.864    550.961    551.087    550.961
 21.870    540.000    551.739    -11.739    550.678    551.611    550.678    550.806    550.678
 21.970    536.633    551.489    -14.856    550.395    551.360    550.395    550.525    550.395
 22.070    578.000    551.261     26.739    550.112    551.131    550.112    550.243    550.112
 22.170    555.000    551.042      3.958    549.828    550.910    549.828    549.960    549.828
 22.270    540.000    550.802    -10.802    549.544    550.668    549.544    549.678    549.544
 22.370    535.000    550.564    -15.564    549.259    550.428    549.259    549.395    549.259
 22.470    545.000    550.331     -5.331    548.973    550.193    548.973    549.111    548.973
 22.570    542.689    550.102     -7.413    548.688    549.963    548.688    548.827    548.688
 22.670    565.455    549.879     15.576    548.401    549.738    548.401    548.543    548.401
 22.770    557.000    549.664      7.336    548.115    549.521    548.115    548.258    548.115
 22.870    585.290    549.458     35.832    547.828    549.313    547.828    547.973    547.828
 22.970    579.000    549.263     29.737    547.541    549.116    547.541    547.688    547.541
 23.070    581.000    549.082     31.918    547.253    548.933    547.253    547.403    547.253
 23.170    564.000    548.918     15.082    546.965    548.766    546.965    547.117    546.965
 23.270    543.000    548.775     -5.775    546.677    548.621    546.677    546.832    546.677
 23.370    531.495    548.660    -17.166    546.389    548.504    546.389    546.546    546.389
 23.470    508.863    548.583    -39.720    546.100    548.424    546.100    546.260    546.100
 23.570    527.000    548.550    -21.550    545.811    548.389    545.811    545.974    545.811
 23.670    542.000    548.586     -6.586    545.522    548.422    545.522    545.687    545.522
 23.770    567.000    548.702     18.298    545.233    548.535    545.233    545.401    545.233
 23.870    526.062    548.938    -22.876    544.943    548.769    544.943    545.115    544.943
 23.970    527.672    549.371    -21.698    544.654    549.198    544.654    544.829    544.654
 24.070    545.000    550.172     -5.172    544.364    549.997    544.364    544.542    544.364
 24.170    554.000    551.788      2.212    544.074    551.610    544.074    544.256    544.074
 24.270    517.104    555.243    -38.140    543.785    555.065    543.785    543.970    543.785
 24.370    565.000    562.377      2.623    543.495    562.200    543.495    543.684    543.495
 24.470    583.254    575.369      7.884    543.205    575.197    543.205    543.398    543.205
 24.570    614.426    594.792     19.635    542.915    594.629    542.915    543.113    542.915
 24.670    614.271    616.731     -2.460    542.625    616.579    542.625    542.828    542.625
 24.770    659.000    630.835     28.165    542.335    630.689    542.335    542.543    542.335
 24.870    623.000    627.213     -4.213    542.045    627.060    542.045    542.258    542.045
 24.970    623.000    608.671     14.329    541.755    608.499    541.755    541.974    541.755
 25.070    570.000    586.454    -16.454    541.466    586.260    541.466    541.690    541.466
 25.170    549.831    568.678    -18.847    541.176    568.466    541.176    541.406    541.176
 25.270    548.000    557.430     -9.430    540.886    557.203    540.886    541.123    540.886
 25.370    591.000    551.294     39.706    540.597    551.056    540.597    540.841    540.597
 25.470    568.000    548.114     19.886    540.308    547.867    540.308    540.559    540.308
 25.570    526.156    546.364    -20.208    540.019    546.107    540.019    540.278    540.019
 25.670    528.196    545.252    -17.055    539.730    544.986    539.730    539.998    539.730
 25.770    532.000    544.448    -12.448    539.441    544.173    539.441    539.718    539.441
 25.870    554.000    543.830     10.170    539.153    543.544    539.153    539.439    539.153
 25.970    546.366    543.343      3.023    538.865    543.047    538.865    539.162    538.865
 26.070    553.730    542.924     10.806    538.577    542.616    538.577    538.885    538.577
 26.170    584.000    542.575     41.425    538.289    542.255    538.289    538.610    538.289
 26.270    493.000    542.288    -49.288    538.001    541.954    538.001    538.336    538.001
 26.370    566.000    542.056     23.944    537.714    541.707    537.714    538.063    537.714
 26.470    574.000    541.879     32.121    537.428    541.514    537.428    537.792    537.428
 26.570    528.000    541.757    -13.757    537.141    541.375    537.141    537.523    537.141
 26.670    558.206    541.705     16.501    536.855    541.304    536.855    537.256    536.855
 26.770    522.401    541.712    -19.311    536.569    541.290    536.569    536.991    536.569
 26.870    532.000    541.787     -9.787    536.284    541.341    536.284    536.729    536.284
 26.970    521.696    541.954    -20.258    535.999    541.483    535.999    536.470    535.999
 27.070    541.232    542.241     -1.009    535.714    541.741    535.714    536.213    535.714
 27.170    564.000    542.680     21.320    535.430    542.149    535.430    535.961    535.430
 27.270    505.320    543.327    -38.007    535.147    542.760    535.147    535.712    535.147
 27.370    581.000    544.262     36.738    534.863    543.656    534.863    535.469    534.863
 27.470    508.414    545.625    -37.210    534.581    544.973    534.581    535.231    534.581
 27.570    560.000    547.815     12.185    534.299    547.111    534.299    535.000    534.299
 27.670    522.327    552.239    -29.911    534.017    551.475    534.017    534.777    534.017
 27.770    606.000    563.656     42.344    533.736    562.822    533.736    534.562    533.736
 27.870    579.000    594.017    -15.017    533.455    593.096    533.455    534.359    533.455
 27.970    671.000    661.680      9.320    533.175    660.647    533.175    534.170    533.175
 28.070    789.071    774.351     14.720    532.895    773.179    532.895    533.996    532.895
 28.170    932.000    899.676     32.324    532.616    898.351    532.616    533.844    532.616
 28.270    989.000    961.025     27.975    532.338    959.551    532.338    533.717    532.338
 28.370    967.953    908.649     59.303    532.060    907.026    532.060    533.625    532.060
 28.470    757.517    796.372    -38.855    531.783    794.552    531.783    533.579    531.783
 28.570    735.000    709.811     25.189    531.507    707.708    531.507    533.599    531.507
 28.670    708.000    692.612     15.388    531.231    690.116    531.231    533.713    531.231
 28.770    783.000    738.852     44.148    530.956    735.829    530.956    533.960    530.956
 28.870    770.000    807.533    -37.533    530.681    803.806    530.681    534.396    530.681
 28.970    805.000    839.427    -34.427    530.407    834.750    530.407    535.087    530.407
 29.070    777.000    800.100    -23.100    530.134    794.139    530.134    536.108    530.134
 29.170    709.876    719.656     -9.781    529.862    712.006    529.862    537.524    529.862
 29.270    620.000    644.746    -24.746    529.590    634.979    529.590    539.364    529.590
 29.370    598.000    596.817      1.183    529.319    584.579    529.319    541.560    529.319
 29.470    567.385    573.719     -6.333    529.049    558.923    529.049    543.845    529.049
 29.570    588.000    564.589     23.411    528.780    547.704    528.780    545.663    528.780
 29.670    551.000    560.541     -9.541    528.511    542.748    528.511    546.301    528.511
 29.770    540.000    557.256    -17.256    528.243    540.128    528.243    545.369    528.243
 29.870    593.000    553.641     39.359    527.976    538.450    527.976    543.165    527.976
 29.970    521.944    549.963    -28.019    527.710    537.287    527.710    540.383    527.710
 30.070    523.004    546.680    -23.676    527.445    536.505    527.445    537.618    527.445
 30.170    549.000    544.080      4.920    527.180    536.080    527.180    535.178    527.180
 30.270    524.152    542.382    -18.230    526.916    536.139    526.916    533.157    526.916
 30.370    553.000    542.036     10.964    526.653    537.146    526.653    531.539    526.653
 30.470    562.000    544.150     17.850    526.391    540.272    526.391    530.263    526.391
 30.570    562.000    550.722     11.278    526.130    547.585    526.130    529.255    526.130
 30.670    570.896    563.806      7.090    525.870    561.207    525.870    528.445    525.870
 30.770    590.000    583.064      6.936    525.611    580.858    525.611    527.779    525.611
 30.870    644.000    602.768     41.232    525.352    600.858    525.352    527.212    525.352
 30.970    558.000    611.639    -53.639    525.095    609.964    525.095    526.714    525.095
 31.070    586.716    602.309    -15.593    524.838    600.835    524.838    526.267    524.838
 31.170    595.000    581.718     13.282    524.583    580.415    524.583    525.856    524.583
 31.270    544.328    561.134    -16.806    524.328    559.973    524.328    525.473    524.328
 31.370    525.000    546.459    -21.459    524.074    545.413    524.074    525.111    524.074
 31.470    554.000    538.121     15.879    523.822    537.171    523.822    524.767    523.822
 31.570    525.000    534.031     -9.031    523.570    533.161    523.570    524.437    523.570
 31.670    535.986    532.083      3.903    523.319    531.281    523.319    524.120    523.319
 31.770    545.425    531.049     14.376    523.069    530.305    523.069    523.812    523.069
 31.870    502.000    530.407    -28.407    522.821    529.713    522.821    523.512    522.821
 31.970    578.000    529.974     48.026    522.573    529.325    522.573    523.220    522.573
 32.070    519.414    529.687    -10.273    522.326    529.078    522.326    522.935    522.326
 32.170    524.000    529.524     -5.524    522.081    528.949    522.081    522.655    522.081
 32.270    555.480    529.476     26.005    521.836    528.932    521.836    522.379    521.836
 32.370    574.000    529.544     44.456    521.593    529.027    521.593    522.109    521.593
 32.470    489.424    529.739    -40.316    521.350    529.247    521.350    521.842    521.350
 32.570    525.000    530.079     -5.079    521.109    529.608    521.109    521.579    521.109
 32.670    554.137    530.591     23.546    520.869    530.140    520.869    521.319    520.869
 32.770    560.111    531.318     28.793    520.630    530.884    520.630    521.062    520.630
 32.870    559.000    532.320     26.680    520.392    531.902    520.392    520.808    520.392
 32.970    546.000    533.688     12.312    520.155    533.284    520.155    520.557    520.155
 33.070    567.384    535.563     31.821    519.919    535.172    519.919    520.308    519.919
 33.170    569.000    538.209     30.791    519.684    537.830    519.684    520.061    519.684
 33.270    579.000    542.244     36.756    519.451    541.875    519.451    519.817    519.451
 33.370    539.000    549.297    -10.297    519.218    548.937    519.218    519.574    519.218
 33.470    588.865    563.427     25.438    518.987    563.073    518.987    519.334    518.987
 33.570    551.299    592.903    -41.604    518.757    592.552    518.757    519.096    518.757
 33.670    622.316    649.997    -27.680    518.528    649.642    518.528    518.859    518.528
 33.770    723.328    744.855    -21.528    518.300    744.492    518.300    518.624    518.300
 33.870    961.000    872.454     88.546    518.073    872.080    518.073    518.391    518.073
 33.970   1057.000    998.355     58.645    517.848    997.977    517.848    518.160    517.848
 34.070   1036.672   1059.110    -22.437    517.624   1058.745    517.624    517.931    517.624
 34.170    948.000   1012.311    -64.311    517.401   1011.977    517.401    517.703    517.401
 34.270    849.000    891.907    -42.907    517.179    891.601    517.179    517.477    517.179
 34.370    747.000    761.625    -14.625    516.958    761.336    516.958    517.252    516.958
 34.470    648.249    660.641    -12.392    516.739    660.358    516.739    517.029    516.739
 34.570    569.000    597.708    -28.708    516.521    597.427    516.521    516.807    516.521
 34.670    575.399    564.186     11.213    516.304    563.904    516.304    516.587    516.304
 34.770    550.000    547.697      2.303    516.088    547.417    516.088    516.369    516.088
 34.870    584.000    539.308     44.692    515.874    539.029    515.874    516.152    515.874
 34.970    536.000    534.409      1.591    515.661    534.133    515.661    515.936    515.661
 35.070    539.000    531.082      7.918    515.449    530.808    515.449    515.722    515.449
 35.170    522.000    528.594     -6.594    515.238    528.322    515.238    515.510    515.238
 35.270    570.000    526.640     43.360    515.029    526.370    515.029    515.299    515.029
 35.370    498.000    525.061    -27.061    514.821    524.793    514.821    515.089    514.821
 35.470    513.000    523.760    -10.760    514.614    523.492    514.614    514.881    514.614
 35.570    563.751    522.668     41.083    514.409    522.402    514.409    514.675    514.409
 35.670    559.819    521.738     38.080    514.204    521.473    514.204    514.469    514.204
 35.770    476.000    520.934    -44.934    514.001    520.669    514.001    514.266    514.001
 35.870    575.000    520.231     54.769    513.800    519.967    513.800    514.063    513.800
 35.970    494.000    519.614    -25.614    513.600    519.351    513.600    513.862    513.600
 36.070    505.415    519.067    -13.653    513.401    518.805    513.401    513.663    513.401
 36.170    563.465    518.579     44.886    513.203    518.317    513.203    513.465    513.203
 36.270    523.000    518.141      4.859    513.007    517.879    513.007    513.268    513.007
 36.370    507.000    517.749    -10.749    512.811    517.487    512.811    513.073    512.811
 36.470    511.000    517.399     -6.399    512.618    517.137    512.618    512.880    512.618
 36.570    552.000    517.090     34.910    512.425    516.828    512.425    512.688    512.425
 36.670    494.113    516.824    -22.711    512.234    516.562    512.234    512.497    512.234
 36.770    516.508    516.611     -0.103    512.045    516.348    512.045    512.307    512.045
 36.870    481.000    516.474    -35.474    511.856    516.211    511.856    512.120    511.856
 36.970    523.305    516.474      6.831    511.669    516.211    511.669    511.933    511.669
 37.070    550.879    516.740     34.139    511.484    516.476    511.484    511.748    511.484
 37.170    488.000    517.487    -29.487    511.300    517.222    511.300    511.565    511.300
 37.270    516.000    518.987     -2.987    511.117    518.722    511.117    511.383    511.117
 37.370    558.655    521.427     37.228    510.935    521.162    510.935    511.202    510.935
 37.470    549.498    524.668     24.829    510.755    524.402    510.755    511.023    510.755
 37.570    536.891    527.985      8.907    510.576    527.718    510.576    510.845    510.576
 37.670    531.000    530.040      0.960    510.399    529.774    510.399    510.669    510.399
 37.770    541.187    529.738     11.448    510.223    529.473    510.223    510.494    510.223
 37.870    532.000    527.369      4.631    510.048    527.105    510.048    510.321    510.048
 37.970    518.041    524.124     -6.084    509.875    523.860    509.875    510.149    509.875
 38.070    515.000    520.933     -5.933    509.703    520.668    509.703    509.979    509.703
 38.170    500.000    518.206    -18.206    509.532    517.938    509.532    509.810    509.532
 38.270    518.000    516.100      1.900    509.363    515.828    509.363    509.642    509.363
 38.370    495.719    514.606    -18.887    509.196    514.330    509.196    509.476    509.196
 38.470    533.000    513.599     19.401    509.029    513.319    509.029    509.312    509.029
 38.570    488.170    512.930    -24.760    508.865    512.647    508.865    509.149    508.865
 38.670    476.179    512.472    -36.292    508.701    512.186    508.701    508.987    508.701
 38.770    478.786    512.135    -33.349    508.539    511.847    508.539    508.827    508.539
 38.870    485.431    511.865    -26.434    508.378    511.575    508.378    508.669    508.378
 38.970    508.000    511.633     -3.633    508.219    511.341    508.219    508.512    508.219
 39.070    502.000    511.426     -9.426    508.061    511.131    508.061    508.356    508.061
 39.170    480.000    511.236    -31.236    507.905    510.939    507.905    508.202    507.905
 39.270    535.747    511.060     24.687    507.750    510.760    507.750    508.050    507.750
 39.370    531.654    510.896     20.758    507.596    510.594    507.596    507.899    507.596
 39.470    503.000    510.742     -7.742    507.444    510.437    507.444    507.749    507.444
 39.570    506.000    510.598     -4.598    507.293    510.291    507.293    507.601    507.293
 39.670    504.000    510.463     -6.463    507.144    510.153    507.144    507.455    507.144
 39.770    554.000    510.337     43.663    506.996    510.023    506.996    507.310    506.996
 39.870    546.956    510.219     36.736    506.850    509.903    506.850    507.167    506.850
 39.970    470.000    510.110    -40.110    506.705    509.790    506.705    507.025    506.705
 40.070    498.000    510.010    -12.010    506.561    509.687    506.561    506.884    506.561
 40.170    494.000    509.919    -15.919    506.419    509.593    506.419    506.745    506.419
 40.270    513.000    509.839      3.161    506.278    509.509    506.278    506.608    506.278
 40.370    470.000    509.769    -39.769    506.139    509.436    506.139    506.473    506.139
 40.470    488.000    509.711    -21.711    506.001    509.374    506.001    506.338    506.001
 40.570    477.000    509.667    -32.667    505.864    509.326    505.864    506.206    505.864
 40.670    515.000    509.639      5.361    505.729    509.294    505.729    506.075    505.729
 40.770    541.517    509.628     31.889    505.596    509.279    505.596    505.945    505.596
 40.870    511.497    509.638      1.859    505.464    509.285    505.464    505.817    505.464
 40.970    502.000    509.674     -7.674    505.333    509.316    505.333    505.691    505.333
 41.070    491.000    509.739    -18.739    505.204    509.377    505.204    505.566    505.204
 41.170    543.881    509.842     34.039    505.076    509.476    505.076    505.443    505.076
 41.270    505.000    509.991     -4.991    504.949    509.620    504.949    505.321    504.949
 41.370    458.000    510.199    -52.199    504.824    509.823    504.824    505.201    504.824
 41.470    468.233    510.484    -42.251    504.701    510.104    504.701    505.083    504.701
 41.570    480.944    510.876    -29.932    504.579    510.490    504.579    504.966    504.579
 41.670    501.000    511.429    -10.429    504.458    511.038    504.458    504.851    504.458
 41.770    553.629    512.263     41.366    504.339    511.867    504.339    504.737    504.339
 41.870    507.801    513.657     -5.857    504.221    513.256    504.221    504.625    504.221
 41.970    523.820    516.211      7.608    504.105    515.805    504.105    504.515    504.105
 42.070    532.000    521.040     10.960    503.990    520.629    503.990    504.406    503.990
 42.170    576.000    529.802     46.198    503.876    529.389    503.876    504.299    503.876
 42.270    533.000    544.246    -11.246    503.764    543.832    503.764    504.194    503.764
 42.370    539.226    565.091    -25.865    503.653    564.681    503.653    504.090    503.653
 42.470    581.000    590.468     -9.468    503.544    590.063    503.544    503.988    503.544
 42.570    587.000    614.554    -27.554    503.436    614.156    503.436    503.888    503.436
 42.670    618.000    628.107    -10.107    503.330    627.710    503.330    503.789    503.330
 42.770    597.000    624.192    -27.192    503.225    623.788    503.225    503.692    503.225
 42.870    540.000    605.053    -65.053    503.121    604.632    503.121    503.597    503.121
 42.970    514.000    579.471    -65.471    503.019    579.029    503.019    503.504    503.019
 43.070    558.000    555.466      2.534    502.919    555.002    502.919    503.412    502.919
 43.170    509.255    537.117    -27.862    502.819    536.633    502.819    503.322    502.819
 43.270    488.000    525.052    -37.052    502.722    524.551    502.722    503.234    502.722
 43.370    489.000    517.977    -28.977    502.625    517.461    502.625    503.148    502.625
 43.470    474.000    514.104    -40.104    502.530    513.575    502.530    503.064    502.530
 43.570    507.267    511.989     -4.722    502.437    511.448    502.437    502.981    502.437
 43.670    503.000    510.748     -7.748    502.344    510.194    502.344    502.901    502.344
 43.770    506.067    509.932     -3.865    502.254    509.366    502.254    502.822    502.254
 43.870    509.389    509.342      0.047    502.164    508.763    502.164    502.745    502.164
 43.970    490.000    508.889    -18.889    502.076    508.296    502.076    502.671    502.076
 44.070    487.156    508.532    -21.376    501.990    507.925    501.990    502.598    501.990
 44.170    512.000    508.246      3.754    501.905    507.624    501.905    502.528    501.905
 44.270    519.596    508.017     11.579    501.821    507.379    501.821    502.459    501.821
 44.370    519.000    507.833     11.167    501.739    507.179    501.739    502.393    501.739
 44.470    482.000    507.686    -25.686    501.658    507.015    501.658    502.329    501.658
 44.570    545.000    507.571     37.429    501.578    506.883    501.578    502.267    501.578
 44.670    513.000    507.484      5.516    501.500    506.776    501.500    502.208    501.500
 44.770    468.037    507.420    -39.383    501.423    506.693    501.423    502.151    501.423
 44.870    509.000    507.379      1.621    501.348    506.631    501.348    502.096    501.348
 44.970    537.148    507.358     29.790    501.274    506.587    501.274    502.044    501.274
 45.070    548.912    507.355     41.557    501.201    506.561    501.201    501.995    501.201
 45.170    531.000    507.371     23.629    501.130    506.552    501.130    501.949    501.130
 45.270    496.958    507.405    -10.447    501.060    506.560    501.060    501.905    501.060
 45.370    531.000    507.457     23.543    500.991    506.584    500.991    501.865    500.991
 45.470    501.169    507.528     -6.359    500.924    506.624    500.924    501.828    500.924
 45.570    544.000    507.618     36.382    500.858    506.682    500.858    501.794    500.858
 45.670    503.000    507.728     -4.728    500.794    506.758    500.794    501.764    500.794
 45.770    529.597    507.859     21.738    500.731    506.853    500.731    501.737    500.731
 45.870    523.829    508.015     15.814    500.669    506.968    500.669    501.715    500.669
 45.970    524.000    508.196     15.804    500.609    507.107    500.609    501.697    500.609
 46.070    525.000    508.406     16.594    500.550    507.272    500.550    501.683    500.550
 46.170    469.046    508.650    -39.604    500.492    507.466    500.492    501.675    500.492
 46.270    518.821    508.931      9.890    500.436    507.694    500.436    501.672    500.436
 46.370    533.839    509.257     24.581    500.381    507.962    500.381    501.675    500.381
 46.470    487.000    509.637    -22.637    500.327    508.278    500.327    501.684    500.327
 46.570    515.000    510.081      4.919    500.275    508.653    500.275    501.701    500.275
 46.670    524.000    510.608     13.392    500.224    509.105    500.224    501.725    500.224
 46.770    509.000    511.252     -2.252    500.174    509.666    500.174    501.759    500.174
 46.870    531.000    512.079     18.921    500.126    510.401    500.126    501.802    500.126
 46.970    536.000    513.232     22.768    500.079    511.453    500.079    501.855    500.079
 47.070    540.707    515.003     25.704    500.033    513.110    500.033    501.922    500.033
 47.170    548.000    517.918     30.082    499.989    515.898    499.989    502.002    499.989
 47.270    540.000    522.771     17.229    499.945    520.608    499.945    502.099    499.945
 47.370    522.000    530.490     -8.490    499.904    528.164    499.904    502.215    499.904
 47.470    568.000    541.737     26.263    499.863    539.224    499.863    502.352    499.863
 47.570    554.688    556.285     -1.597    499.824    553.559    499.824    502.515    499.824
 47.670    623.000    572.363     50.637    499.786    569.395    499.786    502.709    499.786
 47.770    618.000    586.301     31.699    499.749    583.056    499.749    502.939    499.749
 47.870    597.205    593.230      3.975    499.714    589.672    499.714    503.215    499.714
 47.970    571.963    590.329    -18.367    499.679    586.408    499.679    503.547    499.679
 48.070    594.000    579.614     14.386    499.647    575.264    499.647    503.954    499.647
 48.170    609.865    565.851     44.014    499.615    560.975    499.615    504.459    499.615
 48.270    578.573    553.148     25.425    499.585    547.609    499.585    505.101    499.585
 48.370    504.000    543.770    -39.770    499.555    537.374    499.555    505.937    499.555
 48.470    557.000    538.360     18.640    499.528    530.832    499.528    507.046    499.528
 48.570    494.977    536.565    -41.588    499.501    527.520    499.501    508.539    499.501
 48.670    539.000    537.687      1.313    499.475    526.599    499.475    510.558    499.475
 48.770    558.026    541.139     16.886    499.451    527.317    499.451    513.270    499.451
 48.870    584.107    546.626     37.481    499.428    529.204    499.428    516.846    499.428
 48.970    548.000    554.132     -6.132    499.407    532.100    499.407    521.434    499.407
 49.070    590.000    563.883     26.117    499.386    536.161    499.386    527.101    499.386
 49.170    537.000    576.461    -39.461    499.367    542.055    499.367    533.765    499.367
 49.270    578.000    593.367    -15.367    499.349    551.634    499.349    541.072    499.349
 49.370    609.000    618.458     -9.458    499.332    569.524    499.332    548.251    499.332
 49.470    661.172    660.577      0.596    499.316    605.822    499.316    554.044    499.316
 49.570    779.452    736.784     42.668    499.302    679.045    499.302    556.994    499.302
 49.670    942.000    873.150     68.850    499.288    816.169    499.288    556.190    499.288
 49.770   1052.170   1097.655    -45.484    499.276   1044.907    499.276    551.904    499.276
 49.870   1484.510   1421.960     62.550    499.265   1375.694    499.265    545.374    499.265
 49.970   1898.000   1817.837     80.163    499.255   1778.894    499.255    538.028    499.255
 50.070   2232.000   2203.080     28.920    499.247   2171.269    499.247    530.923    499.247
 50.170   2492.000   2455.424     36.576    499.239   2429.979    499.239    524.641    499.239
 50.270   2323.000   2471.021   -148.021    499.233   2450.919    499.233    519.411    499.233
 50.370   2186.000   2240.982    -54.982    499.227   2225.130    499.227    515.244    499.227
 50.470   1888.229   1860.173     28.056    499.223   1847.558    499.223    512.034    499.223
 50.570   1319.000   1454.595   -135.595    499.220   1444.375    499.220    509.619    499.220
 50.670   1125.462   1115.577      9.885    499.219   1107.107    499.219    507.827    499.219
 50.770    838.746    879.997    -41.250    499.218    872.811    499.218    506.499    499.218
 50.870    699.000    740.790    -41.790    499.218    734.566    499.218    505.507    499.218
 50.970    618.830    669.284    -50.454    499.220    663.797    499.220    504.754    499.220
 51.070    587.917    634.831    -46.914    499.222    629.924    499.222    504.168    499.222
 51.170    600.656    615.326    -14.670    499.226    610.882    499.226    503.703    499.226
 51.270    569.000    599.595    -30.595    499.231    595.528    499.231    503.326    499.231
 51.370    614.493    584.571     29.922    499.237    580.815    499.237    503.015    499.237
 51.470    521.561    570.767    -49.207    499.244    567.271    499.244    502.757    499.244
 51.570    557.000    559.248     -2.248    499.252    555.971    499.252    502.540    499.252
 51.670    526.707    550.566    -23.859    499.261    547.477    499.261    502.358    499.261
 51.770    539.798    544.664     -4.866    499.271    541.736    499.271    502.205    499.271
 51.870    580.000    541.096     38.904    499.282    538.306    499.282    502.076    499.282
 51.970    495.416    539.306    -43.890    499.294    536.634    499.294    501.968    499.294
 52.070    544.654    538.835      5.819    499.307    536.265    499.307    501.879    499.307
 52.170    521.000    539.422    -18.422    499.322    536.940    499.322    501.806    499.322
 52.270    558.000    541.044     16.956    499.337    538.635    499.337    501.747    499.337
 52.370    558.000    543.976     14.024    499.353    541.630    499.353    501.701    499.353
 52.470    579.000    548.977     30.023    499.370    546.682    499.370    501.666    499.370
 52.570    595.000    557.623     37.377    499.389    555.371    499.389    501.641    499.389
 52.670    575.000    572.769      2.231    499.408    570.550    499.408    501.626    499.408
 52.770    611.000    598.875     12.125    499.428    596.681    499.428    501.619    499.428
 52.870    592.597    641.748    -49.151    499.450    639.572    499.450    501.621    499.450
 52.970    724.000    707.146     16.854    499.472    704.981    499.472    501.630    499.472
 53.070    833.424    798.057     35.367    499.495    795.898    499.495    501.646    499.495
 53.170    943.000    911.159     31.841    499.519    909.000    499.519    501.669    499.519
 53.270   1064.000   1033.489     30.511    499.544   1031.329    499.544    501.699    499.544
 53.370   1175.252   1140.828     34.424    499.570   1138.664    499.570    501.734    499.570
 53.470   1192.000   1201.945     -9.945    499.597   1199.777    499.597    501.777    499.597
 53.570   1177.000   1194.317    -17.317    499.625   1192.140    499.625    501.825    499.625
 53.670   1086.000   1121.295    -35.295    499.654   1119.101    499.654    501.879    499.654
 53.770    989.524   1009.007    -19.484    499.684   1006.783    499.684    501.939    499.684
 53.870    937.000    887.825     49.175    499.714    885.562    499.714    502.006    499.714
 53.970    723.000    779.533    -56.533    499.746    777.223    499.746    502.079    499.746
 54.070    680.000    694.797    -14.797    499.778    692.434    499.778    502.158    499.778
 54.170    625.000    635.295    -10.295    499.812    632.874    499.812    502.243    499.812
 54.270    601.740    597.183      4.557    499.846    594.700    499.846    502.335    499.846
 54.370    547.443    574.539    -27.095    499.881    571.990    499.881    502.435    499.881
 54.470    586.000    561.791     24.209    499.917    559.170    499.917    502.541    499.917
 54.570    543.639    554.837    -11.198    499.954    552.137    499.954    502.656    499.954
 54.670    533.391    551.129    -17.738    499.992    548.344    499.992    502.778    499.992
 54.770    542.895    549.283     -6.389    500.030    546.405    500.030    502.910    500.030
 54.870    578.000    548.622     29.378    500.069    545.642    500.069    503.050    500.069
 54.970    554.000    548.845      5.155    500.109    545.754    500.109    503.201    500.109
 55.070    536.380    549.834    -13.455    500.150    546.623    500.150    503.362    500.150
 55.170    602.000    551.568     50.432    500.192    548.226    500.192    503.535    500.192
 55.270    577.000    554.085     22.915    500.235    550.599    500.235    503.721    500.235
 55.370    586.062    557.482     28.580    500.278    553.840    500.278    503.920    500.278
 55.470    556.000    561.950     -5.950    500.322    558.137    500.322    504.135    500.322
 55.570    577.000    567.858      9.142    500.367    563.859    500.367    504.367    500.367
 55.670    570.000    575.978     -5.978    500.413    571.774    500.413    504.617    500.413
 55.770    626.376    587.943     38.433    500.459    583.514    500.459    504.887    500.459
 55.870    601.203    607.092     -5.889    500.506    602.415    500.506    505.181    500.506
 55.970    598.974    639.710    -40.736    500.554    634.757    500.554    505.500    500.554
 56.070    708.643    696.321     12.322    500.603    691.062    500.603    505.848    500.603
 56.170    735.000    792.090    -57.090    500.653    786.489    500.653    506.228    500.653
 56.270    922.487    944.840    -22.353    500.703    938.857    500.703    506.646    500.703
 56.370   1209.086   1169.447     39.639    500.754   1163.040    500.754    507.106    500.754
 56.470   1550.000   1468.904     81.096    500.805   1462.028    500.805    507.614    500.805
 56.570   1778.996   1824.534    -45.538    500.857   1817.149    500.857    508.179    500.857
 56.670   2170.623   2189.073    -18.450    500.910   2181.135    500.910    508.808    500.910
 56.770   2399.849   2487.091    -87.242    500.964   2478.554    500.964    509.513    500.964
 56.870   2633.000   2633.235     -0.235    501.018   2624.035    501.018    510.307    501.018
 56.970   2497.946   2577.055    -79.110    501.073   2567.088    501.073    511.210    501.073
 57.070   2245.000   2340.349    -95.349    501.129   2329.456    501.129    512.244    501.129
 57.170   2093.000   1999.036     93.964    501.185   1987.011    501.185    513.444    501.185
 57.270   1652.000   1635.991     16.009    501.242   1622.587    501.242    514.859    501.242
 57.370   1286.000   1311.704    -25.704    501.299   1296.616    501.299    516.560    501.299
 57.470   1021.000   1057.283    -36.283    501.357   1040.115    501.357    518.651    501.357
 57.570    832.000    878.679    -46.679    501.416    858.893    501.416    521.286    501.416
 57.670    722.382    765.747    -43.365    501.476    742.596    501.476    524.678    501.476
 57.770    667.737    702.108    -34.371    501.536    674.555    501.536    529.116    501.536
 57.870    695.000    672.571     22.429    501.596    639.214    501.596    534.965    501.596
 57.970    647.612    666.841    -19.229    501.657    625.839    501.657    542.659    501.657
 58.070    732.822    680.058     52.763    501.719    629.103    501.719    552.664    501.719
 58.170    696.000    711.486    -15.486    501.781    647.824    501.781    565.421    501.781
 58.270    770.000    762.410      7.590    501.844    682.958    501.844    581.264    501.844
 58.370    831.000    833.905     -2.905    501.907    735.468    501.907    600.301    501.907
 58.470    984.859    924.811     60.048    501.971    804.462    501.971    622.268    501.971
 58.570    973.000   1030.189    -57.189    502.036    885.854    502.036    646.316    502.036
 58.670   1104.161   1140.751    -36.590    502.100    972.079    502.100    670.721    502.100
 58.770   1305.156   1244.294     60.862    502.166   1053.774    502.166    692.644    502.166
 58.870   1357.000   1328.731     28.269    502.232   1122.623    502.232    708.314    502.232
 58.970   1409.000   1383.816     25.184    502.298   1171.937    502.298    714.170    502.298
 59.070   1404.731   1401.557      3.174    502.365   1195.251    502.365    708.682    502.365
 59.170   1406.000   1379.407     26.593    502.433   1188.537    502.433    693.327    502.433
 59.270   1408.000   1324.757     83.243    502.500   1155.643    502.500    671.642    502.500
 59.370   1348.000   1253.542     94.458    502.569   1108.722    502.569    647.404    502.569
 59.470   1195.391   1183.748     11.643    502.637   1062.900    502.637    623.476    502.637
 59.570   1157.000   1131.351     25.649    502.707   1032.412    502.707    601.601    502.707
 59.670   1200.000   1110.273     89.727    502.776   1030.315    502.776    582.645    502.776
 59.770   1147.000   1131.110     15.890    502.846   1066.932    502.846    566.884    502.846
 59.870   1205.000   1196.552      8.448    502.917   1145.060    502.917    554.213    502.917
 59.970   1261.595   1297.073    -35.478    502.988   1255.509    502.988    544.306    502.988
 60.070   1437.000   1409.804     27.196    503.059   1375.859    503.059    536.721    503.059
 60.170   1548.000   1501.222     46.778    503.131   1473.065    503.131    530.994    503.131
 60.270   1465.570   1536.132    -70.561    503.203   1512.373    503.203    526.691    503.203
 60.370   1495.128   1494.383      0.744    503.275   1473.992    503.275    523.447    503.275
 60.470   1379.507   1383.167     -3.660    503.348   1365.383    503.348    520.975    503.348
 60.570   1193.881   1230.280    -36.399    503.421   1214.541    503.421    519.061    503.421
 60.670   1145.000   1067.645     77.355    503.495   1053.528    503.495    517.558    503.495
 60.770    977.310    920.217     57.093    503.568    907.398    503.568    516.362    503.568
 60.870    767.149    802.285    -35.135    503.642    790.509    503.642    515.408    503.642
 60.970    705.000    718.210    -13.210    503.717    707.269    503.717    514.651    503.717
 61.070    659.000    665.636     -6.636    503.792    655.358    503.792    514.062    503.792
 61.170    683.287    639.609     43.678    503.867    629.844    503.867    513.619    503.867
 61.270    660.000    636.077     23.923    503.942    626.693    503.942    513.304    503.942
 61.370    721.000    653.848     67.152    504.018    644.733    504.018    513.099    504.018
 61.470    736.000    694.750     41.250    504.094    685.811    504.094    512.980    504.094
 61.570    739.000    762.128    -23.128    504.170    753.306    504.170    512.916    504.170
 61.670    900.551    858.115     42.437    504.246    849.389    504.246    512.867    504.246
 61.770    982.000    980.355      1.645    504.323    971.760    504.323    512.782    504.323
 61.870   1073.000   1119.197    -46.197    504.400   1110.817    504.400    512.615    504.400
 61.970   1284.000   1256.312     27.688    504.477   1248.264    504.477    512.343    504.477
 62.070   1329.639   1365.868    -36.229    504.554   1358.270    504.554    511.971    504.554
 62.170   1334.000   1420.655    -86.655    504.632   1413.594    504.632    511.534    504.632
 62.270   1326.000   1404.383    -78.383    504.709   1397.901    504.709    511.072    504.709
 62.370   1246.000   1321.809    -75.809    504.787   1315.901    504.787    510.621    504.787
 62.470   1153.215   1195.339    -42.124    504.865   1189.965    504.865    510.203    504.865
 62.570   1011.013   1052.544    -41.531    504.944   1047.645    504.944    509.832    504.944
 62.670    923.000    916.375      6.625    505.022    911.889    505.022    509.513    505.022
 62.770    810.773    801.340      9.433    505.101    797.205    505.101    509.245    505.101
 62.870    711.000    713.403     -2.403    505.180    709.565    505.180    509.026    505.180
 62.970    650.000    651.858     -1.858    505.258    648.272    505.258    508.850    505.258
 63.070    635.614    612.094     23.520    505.338    608.721    505.338    508.712    505.338
 63.170    617.000    588.258     28.742    505.417    585.069    505.417    508.605    505.417
 63.270    541.754    575.116    -33.362    505.496    572.085    505.496    508.523    505.496
 63.370    606.032    568.945     37.086    505.575    566.052    505.575    508.463    505.575
 63.470    581.000    567.715     13.285    505.655    564.943    505.655    508.419    505.655
 63.570    567.672    570.913     -3.241    505.734    568.248    505.734    508.388    505.734
 63.670    548.624    579.281    -30.657    505.814    576.711    505.814    508.369    505.814
 63.770    612.000    594.513     17.487    505.893    592.025    505.893    508.359    505.893
 63.870    657.000    618.855     38.145    505.973    616.438    505.973    508.357    505.973
 63.970    692.999    654.489     38.510    506.053    652.133    506.053    508.361    506.053
 64.070    734.000    702.681     31.319    506.133    700.376    506.133    508.372    506.133
 64.170    781.922    762.781     19.141    506.213    760.519    506.213    508.389    506.213
 64.270    834.524    831.305      3.219    506.292    829.081    506.292    508.410    506.292
 64.370    841.878    901.331    -59.453    506.372    899.144    506.372    508.436    506.372
 64.470    989.780    962.721     27.059    506.452    960.575    506.452    508.466    506.452
 64.570    982.000   1004.249    -22.249    506.532   1002.150    506.532    508.499    506.532
 64.670   1001.000   1017.975    -16.975    506.612   1015.932    506.612    508.536    506.612
 64.770   1058.000   1002.763     55.237    506.692   1000.783    506.692    508.577    506.692
 64.870   1014.000    963.793     50.207    506.772    961.877    506.772    508.620    506.772
 64.970    941.547    909.767     31.780    506.851    907.911    506.851    508.667    506.851
 65.070    835.000    850.074    -15.074    506.931    848.273    506.931    508.716    506.931
 65.170    829.000    792.347     36.653    507.011    790.593    507.011    508.767    507.011
 65.270    697.417    741.088    -43.671    507.090    739.372    507.090    508.821    507.090
 65.370    673.000    697.872    -24.872    507.170    696.186    507.170    508.877    507.170
 65.470    709.925    662.562     47.363    507.249    660.898    507.249    508.935    507.249
 65.570    606.000    634.424    -28.424    507.328    632.777    507.328    508.996    507.328
 65.670    565.000    612.575    -47.575    507.407    610.940    507.407    509.058    507.407
 65.770    616.000    596.057     19.943    507.487    594.433    507.487    509.122    507.487
 65.870    604.000    583.936     20.064    507.566    582.320    507.566    509.188    507.566
 65.970    544.000    575.392    -31.392    507.644    573.783    507.644    509.256    507.644
 66.070    616.736    569.755     46.981    507.723    568.153    507.723    509.326    507.723
 66.170    540.621    566.491    -25.870    507.802    564.895    507.802    509.397    507.802
 66.270    518.472    565.183    -46.711    507.880    563.592    507.880    509.470    507.880
 66.370    564.000    565.535     -1.535    507.958    563.948    507.958    509.545    507.958
 66.470    598.465    567.408     31.057    508.036    565.823    508.036    509.621    508.036
 66.570    558.000    570.888    -12.888    508.114    569.304    508.114    509.699    508.114
 66.670    554.000    576.422    -22.422    508.192    574.836    508.192    509.778    508.192
 66.770    572.000    585.029    -13.029    508.269    583.439    508.269    509.859    508.269
 66.870    557.057    598.644    -41.586    508.346    597.047    508.346    509.942    508.346
 66.970    601.714    620.551    -18.837    508.423    618.946    508.423    510.026    508.423
 67.070    679.000    655.811     23.189    508.500    654.193    508.500    510.112    508.500
 67.170    685.000    711.440    -26.440    508.577    709.806    508.577    510.200    508.577
 67.270    776.501    795.995    -19.495    508.653    794.343    508.653    510.290    508.653
 67.370    923.000    918.231      4.769    508.729    916.558    508.729    510.381    508.729
 67.470   1059.239   1084.683    -25.443    508.805   1082.990    508.805    510.475    508.805
 67.570   1299.069   1296.460      2.609    508.880   1294.752    508.880    510.571    508.880
 67.670   1576.000   1545.975     30.025    508.956   1544.258    508.956    510.668    508.956
 67.770   1809.000   1814.509     -5.509    509.031   1812.796    509.031    510.768    509.031
 67.870   2025.057   2071.477    -46.420    509.105   2069.780    509.105    510.871    509.105
 67.970   2324.000   2276.770     47.230    509.180   2275.101    509.180    510.976    509.180
 68.070   2388.000   2389.184     -1.184    509.254   2387.548    509.254    511.084    509.254
 68.170   2472.575   2382.084     90.491    509.327   2380.471    509.327    511.194    509.327
 68.270   2283.000   2257.363     25.637    509.401   2255.749    509.401    511.308    509.401
 68.370   2036.000   2044.277     -8.277    509.474   2042.627    509.474    511.425    509.474
 68.470   1849.157   1784.507     64.650    509.546   1782.791    509.546    511.546    509.546
 68.570   1487.000   1517.277    -30.277    509.619   1515.473    509.619    511.671    509.619
 68.670   1245.000   1271.823    -26.823    509.691   1269.916    509.691    511.800    509.691
 68.770   1038.069   1065.490    -27.422    509.762   1063.475    509.762    511.933    509.762
 68.870    914.000    904.713      9.287    509.833    902.588    509.833    512.072    509.833
 68.970    737.918    787.583    -49.665    509.904    785.349    509.904    512.217    509.904
 69.070    706.232    707.162     -0.929    509.975    704.822    509.975    512.367    509.975
 69.170    693.000    654.620     38.380    510.045    652.175    510.045    512.525    510.045
 69.270    663.000    621.532     41.468    510.114    618.979    510.114    512.689    510.114
 69.370    635.000    601.093     33.907    510.183    598.428    510.183    512.863    510.183
 69.470    619.000    588.441     30.559    510.252    585.657    510.252    513.045    510.252
 69.570    588.000    580.432      7.568    510.321    577.521    510.321    513.238    510.321
 69.670    620.308    575.191     45.117    510.388    572.141    510.388    513.443    510.388
 69.770    582.947    571.674     11.272    510.456    568.473    510.456    513.661    510.456
 69.870    587.336    569.331     18.005    510.523    565.963    510.523    513.893    510.523
 69.970    559.461    567.884     -8.423    510.589    564.332    510.589    514.142    510.589
 70.070    569.000    567.203      1.797    510.655    563.449    510.655    514.410    510.655
 70.170    549.248    567.253    -18.005    510.721    563.273    510.721    514.699    510.721
 70.270    567.000    568.072     -1.072    510.786    563.842    510.786    515.014    510.786
 70.370    545.381    569.799    -24.417    510.850    565.289    510.850    515.356    510.850
 70.470    526.884    572.731    -45.847    510.914    567.908    510.914    515.732    510.914
 70.570    570.000    577.432     -7.432    510.977    572.255    510.977    516.147    510.977
 70.670    547.000    584.895    -37.895    511.040    579.316    511.040    516.610    511.040
 70.770    641.542    596.762     44.780    511.103    590.720    511.103    517.130    511.103
 70.870    574.850    615.549    -40.700    511.165    608.968    511.165    517.724    511.165
 70.970    638.000    644.812     -6.812    511.226    637.592    511.226    518.414    511.226
 71.070    706.000    689.096     16.904    511.286    681.102    511.286    519.233    511.286
 71.170    737.000    753.530    -16.530    511.347    744.580    511.347    520.230    511.347
 71.270    859.162    842.934     16.228    511.406    832.771    511.406    521.476    511.406
 71.370    943.000    960.448    -17.448    511.465    948.719    511.465    523.072    511.465
 71.470   1084.000   1105.885    -21.885    511.524   1092.102    511.524    525.153    511.524
 71.570   1221.000   1274.161    -53.161    511.581   1257.660    511.581    527.897    511.581
 71.670   1458.547   1454.190      4.357    511.639   1434.095    511.639    531.524    511.639
 71.770   1631.000   1628.605      2.395    511.695   1603.792    511.695    536.284    511.695
 71.870   1859.000   1774.874     84.126    511.751   1743.964    511.751    542.439    511.751
 71.970   1871.000   1869.146      1.854    511.806   1830.516    511.806    550.234    511.806
 72.070   1925.000   1893.732     31.268    511.861   1845.577    511.861    559.847    511.861
 72.170   1823.000   1845.210    -22.210    511.915   1785.659    511.915    571.337    511.915
 72.270   1744.000   1736.300      7.700    511.968   1663.591    511.968    584.586    511.968
 72.370   1598.000   1589.423      8.577    512.021   1502.156    512.021    599.227    512.021
 72.470   1408.315   1427.975    -19.660    512.073   1325.430    512.073    614.581    512.073
 72.570   1266.800   1270.816     -4.017    512.125   1153.343    512.125    629.576    512.125
 72.670   1063.000   1130.265    -67.265    512.175    999.698    512.175    642.728    512.175
 72.770    965.899   1012.094    -46.195    512.225    872.022    512.225    652.287    512.225
 72.870    956.135    916.796     39.339    512.275    772.402    512.275    656.659    512.275
 72.970    860.351    841.629     18.723    512.323    698.921    512.323    655.022    512.323
 73.070    751.629    782.678    -31.049    512.371    647.328    512.371    647.713    512.371
 73.170    752.772    736.203     16.569    512.418    612.557    512.418    636.056    512.418
 73.270    694.000    699.162     -5.162    512.465    589.826    512.465    621.793    512.465
 73.370    696.279    669.282     26.998    512.510    575.236    512.510    606.550    512.510
 73.470    581.000    644.976    -63.976    512.555    565.942    512.555    591.586    512.555
 73.570    570.000    625.213    -55.213    512.600    560.063    512.600    577.747    512.600
 73.670    612.000    609.348      2.652    512.643    556.458    512.643    565.534    512.643
 73.770    593.000    596.963     -3.963    512.686    554.484    512.686    555.168    512.686
 73.870    600.806    587.720     13.086    512.728    553.792    512.728    546.664    512.728
 73.970    549.760    581.272    -31.512    512.769    554.166    512.769    539.888    512.769
 74.070    563.000    577.209    -14.209    512.809    555.415    512.809    534.621    512.809
 74.170    582.286    575.037      7.248    512.849    557.304    512.849    530.606    512.849
 74.270    570.571    574.182     -3.611    512.888    559.518    512.888    527.582    512.888
 74.370    524.554    574.001    -49.447    512.926    561.647    512.926    525.315    512.926
 74.470    580.743    573.825      6.918    512.963    563.219    512.963    523.609    512.963
 74.570    601.000    573.052     27.948    513.000    563.785    513.000    522.310    513.000
 74.670    558.947    571.291    -12.343    513.035    563.069    513.035    521.300    513.035
 74.770    525.929    568.478    -42.549    513.070    561.092    513.070    520.497    513.070
 74.870    635.000    564.872     70.128    513.104    558.170    513.104    519.843    513.104
 74.970    629.000    560.922     68.078    513.137    554.793    513.137    519.298    513.137
 75.070    617.000    557.141     59.859    513.169    551.500    513.169    518.835    513.169
 75.170    592.000    554.028     37.972    513.201    548.811    513.201    518.437    513.201
 75.270    574.000    552.066     21.934    513.231    547.221    513.231    518.089    513.231
 75.370    566.000    551.733     14.267    513.261    547.217    513.261    517.784    513.261
 75.470    601.488    553.518     47.970    513.290    549.294    513.290    517.514    513.290
 75.570    582.000    557.924     24.076    513.317    553.962    513.317    517.275    513.317
 75.670    577.000    565.429     11.571    513.344    561.701    513.344    517.061    513.344
 75.770    567.000    576.408     -9.408    513.371    572.891    513.371    516.869    513.371
 75.870    608.000    591.009     16.991    513.396    587.681    513.396    516.698    513.396
 75.970    659.096    609.007     50.089    513.420    605.850    513.420    516.543    513.420
 76.070    633.000    629.668      3.332    513.444    626.665    513.444    516.403    513.444
 76.170    662.000    651.657     10.343    513.466    648.794    513.466    516.276    513.466
 76.270    683.000    673.018      9.982    513.488    670.285    513.488    516.161    513.488
 76.370    724.000    691.260     32.740    513.509    688.648    513.509    516.056    513.509
 76.470    724.506    703.668     20.838    513.528    701.169    513.528    515.961    513.528
 76.570    757.334    707.978     49.355    513.547    705.588    513.547    515.873    513.547
 76.670    711.000    703.272      7.728    513.565    700.986    513.565    515.792    513.565
 76.770    684.000    690.417     -6.417    513.582    688.231    513.582    515.717    513.582
 76.870    705.050    671.641     33.410    513.598    669.548    513.598    515.649    513.598
 76.970    628.000    649.639    -21.639    513.613    647.633    513.613    515.586    513.613
 77.070    609.000    626.891    -17.891    513.627    624.967    513.627    515.527    513.627
 77.170    565.187    605.337    -40.150    513.640    603.487    513.640    515.473    513.640
 77.270    531.000    586.279    -55.279    513.652    584.497    513.652    515.422    513.652
 77.370    541.000    570.400    -29.400    513.664    568.681    513.664    515.374    513.664
 77.470    534.000    557.854    -23.854    513.674    556.193    513.674    515.329    513.674
 77.570    557.000    548.404      8.596    513.683    546.795    513.683    515.287    513.683
 77.670    575.950    541.579     34.371    513.691    540.020    513.691    515.247    513.691
 77.770    468.000    536.820    -68.820    513.698    535.307    513.698    515.210    513.698
 77.870    534.000    533.588      0.412    513.705    532.117    513.705    515.174    513.705
 77.970    494.367    531.425    -37.058    513.710    529.994    513.710    515.140    513.710
 78.070    526.000    529.979     -3.979    513.714    528.585    513.714    515.107    513.714
 78.170    520.000    529.000     -9.000    513.717    527.641    513.717    515.075    513.717
 78.270    502.000    528.324    -26.324    513.719    526.997    513.719    515.045    513.719
 78.370    503.182    527.832    -24.649    513.720    526.535    513.720    515.016    513.720
 78.470    527.056    527.482     -0.426    513.720    526.213    513.720    514.988    513.720
 78.570    507.000    527.276    -20.276    513.719    526.034    513.719    514.961    513.719
 78.670    570.366    527.186     43.180    513.717    525.968    513.717    514.935    513.717
 78.770    561.967    527.215     34.753    513.714    526.018    513.714    514.910    513.714
 78.870    489.000    527.378    -38.378    513.710    526.201    513.710    514.886    513.710
 78.970    529.000    527.697      1.303    513.705    526.538    513.705    514.863    513.705
 79.070    502.922    528.199    -25.277    513.699    527.054    513.699    514.842    513.699
 79.170    504.000    528.911    -24.911    513.692    527.778    513.692    514.823    513.692
 79.270    510.000    529.860    -19.860    513.683    528.736    513.683    514.805    513.683
 79.370    510.000    531.074    -21.074    513.674    529.954    513.674    514.790    513.674
 79.470    494.000    532.583    -38.583    513.664    531.464    513.664    514.778    513.664
 79.570    504.000    534.427    -30.427    513.652    533.305    513.652    514.769    513.652
 79.670    552.000    536.671     15.329    513.639    535.541    513.639    514.764    513.639
 79.770    561.000    539.414     21.586    513.626    538.273    513.626    514.761    513.626
 79.870    532.000    542.815    -10.815    513.611    541.658    513.611    514.762    513.611
 79.970    590.398    547.108     43.289    513.595    545.932    513.595    514.766    513.595
 80.070    540.938    552.636    -11.697    513.578    551.437    513.578    514.773    513.578
 80.170    568.000    559.825      8.175    513.560    558.602    513.560    514.780    513.560
 80.270    563.165    569.150     -5.985    513.541    567.903    513.541    514.787    513.541
 80.370    582.000    581.030      0.970    513.520    579.761    513.520    514.792    513.520
 80.470    573.000    595.719    -22.719    513.499    594.432    513.499    514.791    513.499
 80.570    571.000    613.198    -42.198    513.477    611.903    513.477    514.781    513.477
 80.670    623.000    633.099    -10.099    513.453    631.806    513.453    514.760    513.453
 80.770    629.000    654.665    -25.665    513.428    653.386    513.428    514.726    513.428
 80.870    693.733    676.777     16.955    513.402    675.526    513.402    514.679    513.402
 80.970    654.009    698.079    -44.070    513.375    696.866    513.375    514.621    513.375
 81.070    747.049    717.165     29.884    513.347    715.998    513.347    514.554    513.347
 81.170    721.000    732.771    -11.771    513.318    731.653    513.318    514.481    513.318
 81.270    717.052    743.884    -26.832    513.288    742.818    513.288    514.406    513.288
 81.370    763.000    749.826     13.174    513.256    748.810    513.256    514.330    513.256
 81.470    726.000    750.323    -24.323    513.223    749.354    513.223    514.254    513.223
 81.570    762.591    745.512     17.079    513.190    744.586    513.190    514.181    513.190
 81.670    707.908    735.898    -27.990    513.155    735.010    513.155    514.110    513.155
 81.770    737.000    722.328     14.672    513.119    721.472    513.119    514.043    513.119
 81.870    703.000    705.953     -2.953    513.081    705.123    513.081    513.978    513.081
 81.970    675.000    688.065    -13.065    513.043    687.257    513.043    513.916    513.043
 82.070    691.399    669.836     21.563    513.003    669.045    513.003    513.856    513.003
 82.170    675.000    652.104     22.896    512.963    651.327    512.963    513.798    512.963
 82.270    642.000    635.334      6.666    512.921    634.567    512.921    513.742    512.921
 82.370    590.961    619.726    -28.765    512.878    618.966    512.878    513.687    512.878
 82.470    638.000    605.381     32.619    512.834    604.626    512.834    513.633    512.834
 82.570    605.415    592.424     12.992    512.788    591.671    512.788    513.579    512.788
 82.670    556.293    581.026    -24.733    512.742    580.274    512.742    513.526    512.742
 82.770    631.000    571.368     59.632    512.694    570.616    512.694    513.472    512.694
 82.870    565.000    563.607      1.393    512.645    562.852    512.645    513.418    512.645
 82.970    546.391    557.854    -11.463    512.595    557.096    512.595    513.364    512.595
 83.070    538.000    554.164    -16.164    512.544    553.403    512.544    513.309    512.544
 83.170    583.000    552.521     30.479    512.492    551.755    512.492    513.254    512.492
 83.270    567.000    552.815     14.185    512.438    552.044    512.438    513.197    512.438
 83.370    511.559    554.829    -43.270    512.383    554.054    512.383    513.141    512.383
 83.470    522.000    558.231    -36.231    512.327    557.450    512.327    513.083    512.327
 83.570    540.000    562.570    -22.570    512.270    561.784    512.270    513.024    512.270
 83.670    544.000    567.294    -23.294    512.212    566.504    512.212    512.965    512.212
 83.770    545.000    571.778    -26.778    512.153    570.984    512.153    512.905    512.153
 83.870    589.479    575.366     14.113    512.092    574.570    512.092    512.844    512.092
 83.970    564.000    577.465    -13.465    512.030    576.668    512.030    512.782    512.030
 84.070    547.000    577.660    -30.660    511.967    576.864    511.967    512.719    511.967
 84.170    582.183    575.829      6.353    511.903    575.035    511.903    512.655    511.903
 84.270    590.505    572.169     18.336    511.838    571.378    511.838    512.591    511.838
 84.370    515.000    567.115    -52.115    511.771    566.328    511.771    512.525    511.771
 84.470    517.147    561.208    -44.062    511.703    560.424    511.703    512.459    511.703
 84.570    542.000    554.981    -12.981    511.634    554.200    511.634    512.391    511.634
 84.670    541.000    548.890     -7.890    511.564    548.112    511.564    512.323    511.564
 84.770    559.000    543.283     15.717    511.493    542.507    511.493    512.254    511.493
 84.870    516.000    538.390    -22.390    511.421    537.615    511.421    512.184    511.421
 84.970    491.281    534.324    -43.043    511.347    533.549    511.347    512.113    511.347
 85.070    572.805    531.103     41.702    511.272    530.327    511.272    512.041    511.272
 85.170    499.000    528.676    -29.676    511.196    527.898    511.196    511.968    511.196
 85.270    505.348    526.948    -21.600    511.119    526.167    511.119    511.894    511.119
 85.370    534.000    525.810      8.190    511.041    525.026    511.041    511.820    511.041
 85.470    537.288    525.163     12.125    510.961    524.375    510.961    511.744    510.961
 85.570    535.000    524.933     10.067    510.880    524.140    510.880    511.668    510.880
 85.670    480.013    525.077    -45.064    510.798    524.278    510.798    511.590    510.798
 85.770    492.902    525.592    -32.690    510.715    524.787    510.715    511.512    510.715
 85.870    541.000    526.518     14.482    510.631    525.707    510.631    511.433    510.631
 85.970    538.000    527.937     10.063    510.545    527.119    510.545    511.353    510.545
 86.070    506.378    529.971    -23.593    510.459    529.144    510.459    511.272    510.459
 86.170    538.000    532.770      5.230    510.371    531.932    510.371    511.191    510.371
 86.270    527.000    536.504     -9.504    510.282    535.655    510.282    511.108    510.282
 86.370    561.000    541.342     19.658    510.192    540.480    510.192    511.025    510.192
 86.470    532.000    547.424    -15.424    510.100    546.547    510.100    510.941    510.100
 86.570    596.000    554.829     41.171    510.008    553.935    510.008    510.856    510.008
 86.670    603.082    563.536     39.545    509.914    562.624    509.914    510.770    509.914
 86.770    591.589    573.396     18.193    509.819    572.464    509.819    510.684    509.819
 86.870    602.000    584.096     17.904    509.723    583.144    509.723    510.597    509.723
 86.970    617.000    595.154     21.846    509.626    594.180    509.626    510.509    509.626
 87.070    642.000    605.912     36.088    509.527    604.918    509.527    510.420    509.527
 87.170    628.000    615.574     12.426    509.428    614.561    509.428    510.331    509.428
 87.270    650.238    623.271     26.968    509.327    622.241    509.327    510.241    509.327
 87.370    602.540    628.201    -25.661    509.225    627.159    509.225    510.151    509.225
 87.470    646.000    629.820     16.180    509.122    628.769    509.122    510.060    509.122
 87.570    611.227    628.000    -16.773    509.018    626.943    509.018    509.968    509.018
 87.670    667.495    623.072     44.423    508.913    622.012    508.913    509.876    508.913
 87.770    614.236    615.721     -1.486    508.806    614.659    508.806    509.783    508.806
 87.870    573.082    606.823    -33.741    508.698    605.760    508.698    509.690    508.698
 87.970    555.617    597.297    -41.679    508.590    596.231    508.590    509.596    508.590
 88.070    614.000    588.008     25.992    508.480    586.939    508.480    509.502    508.480
 88.170    616.786    579.706     37.081    508.369    578.633    508.369    509.408    508.369
 88.270    542.717    572.983    -30.265    508.256    571.903    508.256    509.313    508.256
 88.370    579.050    568.250     10.800    508.143    567.162    508.143    509.219    508.143
 88.470    591.000    565.728     25.272    508.028    564.629    508.028    509.124    508.028
 88.570    626.000    565.449     60.551    507.913    564.338    507.913    509.029    507.913
 88.670    576.000    567.256      8.744    507.796    566.131    507.796    508.934    507.796
 88.770    556.475    570.861    -14.386    507.678    569.721    507.678    508.839    507.678
 88.870    602.000    575.822     26.178    507.559    574.665    507.559    508.745    507.559
 88.970    584.718    581.565      3.154    507.439    580.389    507.439    508.650    507.439
 89.070    613.000    587.435     25.565    507.318    586.240    507.318    508.556    507.318
 89.170    615.000    592.729     22.271    507.196    591.511    507.196    508.463    507.196
 89.270    601.000    596.750      4.250    507.072    595.507    507.072    508.370    507.072
 89.370    560.521    598.905    -38.384    506.948    597.634    506.948    508.278    506.948
 89.470    580.000    598.816    -18.816    506.822    597.513    506.822    508.188    506.822
 89.570    580.918    596.406    -15.489    506.695    595.066    506.695    508.098    506.695
 89.670    574.000    591.904    -17.904    506.568    590.523    506.568    508.010    506.568
 89.770    554.000    585.766    -31.766    506.439    584.339    506.439    507.923    506.439
 89.870    561.000    578.554    -17.554    506.309    577.076    506.309    507.839    506.309
 89.970    519.000    570.834    -51.834    506.178    569.300    506.178    507.756    506.178
 90.070    559.000    563.108     -4.108    506.046    561.515    506.046    507.677    506.046
 90.170    558.000    555.785      2.215    505.913    554.129    505.913    507.601    505.913
 90.270    522.000    549.163    -27.163    505.778    547.439    505.778    507.528    505.778
 90.370    497.892    543.428    -45.536    505.643    541.631    505.643    507.461    505.643
 90.470    556.642    538.664     17.978    505.507    536.788    505.507    507.399    505.507
 90.570    517.000    534.872    -17.872    505.370    532.909    505.370    507.344    505.370
 90.670    512.173    531.991    -19.817    505.231    529.932    505.231    507.298    505.231
 90.770    513.951    529.924    -15.973    505.092    527.758    505.092    507.262    505.092
 90.870    533.000    528.563      4.437    504.951    526.276    504.951    507.241    504.951
 90.970    557.470    527.804     29.666    504.810    525.378    504.810    507.237    504.810
 91.070    554.000    527.568     26.432    504.667    524.979    504.667    507.256    504.667
 91.170    567.257    527.806     39.451    504.524    525.026    504.524    507.302    504.524
 91.270    516.000    528.509    -12.509    504.379    525.502    504.379    507.384    504.379
 91.370    523.000    529.710     -6.710    504.234    526.432    504.234    507.509    504.234
 91.470    551.514    531.487     20.027    504.087    527.883    504.087    507.687    504.087
 91.570    540.000    533.961      6.039    503.940    529.965    503.940    507.929    503.940
 91.670    546.985    537.293      9.692    503.792    532.827    503.792    508.249    503.792
 91.770    563.000    541.676     21.324    503.642    536.650    503.642    508.658    503.642
 91.870    547.000    547.330     -0.330    503.492    541.638    503.492    509.169    503.492
 91.970    555.000    554.482      0.518    503.340    548.007    503.340    509.797    503.340
 92.070    607.672    563.335     44.337    503.188    555.950    503.188    510.550    503.188
 92.170    549.000    574.023    -25.023    503.035    565.591    503.035    511.439    503.035
 92.270    573.409    586.726    -13.317    502.881    577.104    502.881    512.468    502.881
 92.370    636.000    601.445     34.555    502.726    590.493    502.726    513.637    502.726
 92.470    594.000    618.066    -24.066    502.570    605.649    502.570    514.938    502.570
 92.570    590.059    636.353    -46.294    502.413    622.351    502.413    516.359    502.413
 92.670    664.312    655.927      8.386    502.255    640.243    502.255    517.875    502.255
 92.770    718.000    676.258     41.742    502.096    658.832    502.096    519.452    502.096
 92.870    720.000    696.688     23.312    501.936    677.508    501.936    521.042    501.936
 92.970    737.000    716.485     20.515    501.776    695.600    501.776    522.582    501.776
 93.070    734.690    734.938     -0.248    501.615    712.476    501.615    523.994    501.615
 93.170    756.000    751.487      4.513    501.452    727.665    501.452    525.191    501.452
 93.270    797.000    765.826     31.174    501.289    740.953    501.289    526.079    501.289
 93.370    713.000    777.921    -64.921    501.125    752.390    501.125    526.573    501.125
 93.470    807.000    787.964     19.036    500.960    762.225    500.960    526.618    500.960
 93.570    828.907    796.274     32.633    500.795    770.796    500.795    526.195    500.795
 93.670    759.011    803.220    -44.209    500.628    778.443    500.628    525.330    500.628
 93.770    818.000    809.227      8.773    500.461    785.528    500.461    524.087    500.461
 93.870    898.000    814.802     83.198    500.293    792.471    500.293    522.553    500.293
 93.970    828.000    820.529      7.471    500.124    799.763    500.124    520.822    500.124
 94.070    851.090    826.988     24.102    499.954    807.897    499.954    518.980    499.954
 94.170    811.000    834.600    -23.600    499.784    817.217    499.784    517.103    499.784
 94.270    872.000    843.457     28.543    499.612    827.758    499.612    515.250    499.612
 94.370    898.000    853.226     44.774    499.440    839.141    499.440    513.467    499.440
 94.470    895.000    863.120     31.880    499.267    850.548    499.267    511.785    499.267
 94.570    888.000    871.964     16.036    499.094    860.781    499.094    510.227    499.094
 94.670    864.451    878.326    -13.875    498.920    868.396    498.920    508.805    498.920
 94.770    890.000    880.731      9.269    498.745    871.914    498.745    507.525    498.745
 94.870    878.944    877.941      1.003    498.569    870.096    498.569    506.386    498.569
 94.970    928.000    869.249     58.751    498.393    862.241    498.393    505.381    498.393
 95.070    808.096    854.677    -46.581    498.215    848.379    498.215    504.503    498.215
 95.170    855.662    834.988     20.673    498.038    829.283    498.038    503.739    498.038
 95.270    856.000    811.527     44.473    497.859    806.310    497.859    503.078    497.859
 95.370    828.000    785.989     42.011    497.680    781.168    497.680    502.505    497.680
 95.470    799.503    760.207     39.296    497.500    755.705    497.500    502.009    497.500
 95.570    786.000    736.005     49.995    497.320    731.754    497.320    501.578    497.320
 95.670    702.000    715.103    -13.103    497.139    711.046    497.139    501.200    497.139
 95.770    698.000    699.059     -1.059    496.957    695.150    496.957    500.867    496.957
 95.870    696.000    689.241      6.759    496.775    685.441    496.775    500.571    496.775
 95.970    688.000    686.817      1.183    496.592    683.094    496.592    500.304    496.592
 96.070    711.157    692.745     18.412    496.409    689.072    496.409    500.062    496.409
 96.170    702.000    707.761     -5.761    496.225    704.116    496.225    499.841    496.225
 96.270    732.078    732.418     -0.340    496.040    728.782    496.040    499.637    496.040
 96.370    768.000    766.962      1.038    495.855    763.318    495.855    499.447    495.855
 96.470    780.000    811.309    -31.309    495.669    807.644    495.669    499.271    495.669
 96.570    851.000    864.966    -13.966    495.483    861.267    495.483    499.107    495.483
 96.670    960.000    926.941     33.059    495.296    923.197    495.296    498.954    495.296
 96.770   1005.000    995.668      9.332    495.109    991.869    495.109    498.812    495.109
 96.870   1127.000   1068.958     58.042    494.921   1065.096    494.921    498.680    494.921
 96.970   1146.000   1143.989      2.011    494.733   1140.055    494.733    498.558    494.733
 97.070   1222.000   1217.339      4.661    494.544   1213.326    494.544    498.447    494.544
 97.170   1310.000   1285.101     24.899    494.355   1281.002    494.355    498.346    494.355
 97.270   1405.000   1343.108     61.892    494.166   1338.917    494.166    498.257    494.166
 97.370   1396.721   1387.337      9.385    493.976   1383.045    493.976    498.181    493.976
 97.470   1416.000   1414.471      1.529    493.785   1410.069    493.785    498.117    493.785
 97.570   1393.606   1422.510    -28.904    493.595   1417.986    493.595    498.068    493.595
 97.670   1357.320   1411.169    -53.849    493.404   1406.508    493.404    498.036    493.404
 97.770   1399.592   1381.888     17.704    493.212   1377.069    493.212    498.022    493.212
 97.870   1411.666   1337.458     74.207    493.020   1332.457    493.020    498.030    493.020
 97.970   1280.000   1281.480     -1.480    492.828   1276.267    492.828    498.064    492.828
 98.070   1245.000   1217.868     27.132    492.635   1212.410    492.635    498.129    492.635
 98.170   1081.000   1150.507    -69.507    492.443   1144.762    492.443    498.230    492.443
 98.270   1072.000   1083.027    -11.027    492.249   1076.945    492.249    498.377    492.249
 98.370    963.777   1018.674    -54.897    492.056   1012.196    492.056    498.579    492.056
 98.470    922.000    960.248    -38.248    491.862    953.303    491.862    498.849    491.862
 98.570    876.185    910.082    -33.897    491.668    902.582    491.668    499.204    491.668
 98.670    927.609    870.043     57.566    491.474    861.882    491.474    499.664    491.474
 98.770    845.000    841.575      3.425    491.280    832.625    491.280    500.250    491.280
 98.870    792.000    825.754    -33.754    491.085    815.860    491.085    500.991    491.085
 98.970    859.000    823.344     35.656    490.890    812.318    490.890    501.919    490.890
 99.070    844.254    834.845      9.409    490.695    822.467    490.695    503.067    490.695
 99.170    875.000    860.523     14.477    490.500    846.534    490.500    504.475    490.500
 99.270    943.000    900.404     42.596    490.305    884.505    490.305    506.182    490.305
 99.370    963.000    954.240      8.760    490.109    936.092    490.109    508.230    490.109
 99.470   1051.000   1021.447     29.553    489.913   1000.673    489.913    510.659    489.913
 99.570   1108.000   1101.029      6.971    489.718   1077.214    489.718    513.503    489.718
 99.670   1223.000   1191.498     31.502    489.522   1164.201    489.522    516.792    489.522
 99.770   1314.335   1290.799     23.536    489.326   1259.557    489.326    520.547    489.326
 99.870   1419.000   1396.263     22.737    489.130   1360.606    489.130    524.775    489.130
 99.970   1476.435   1504.594    -28.158    488.934   1464.063    488.934    529.466    488.934
100.070   1624.000   1611.998     12.002    488.738   1566.162    488.738    534.593    488.738
100.170   1760.000   1714.319     45.681    488.542   1662.795    488.542    540.105    488.542
100.270   1739.513   1807.362    -67.849    488.346   1749.845    488.346    545.925    488.346
100.370   1921.000   1887.283     33.717    488.151   1823.573    488.151    551.946    488.151
100.470   1932.733   1950.881    -18.147    487.955   1880.919    487.955    558.026    487.955
100.570   2094.000   1995.743     98.257    487.759   1919.644    487.759    563.990    487.759
100.670   2074.000   2020.221     53.779    487.563   1938.315    487.563    569.621    487.563
100.770   2092.585   2023.405     69.180    487.368   1936.267    487.368    574.674    487.368
100.870   2055.000   2005.217     49.783    487.172   1913.688    487.172    578.882    487.172
100.970   2032.000   1966.647     65.353    486.977   1871.830    486.977    581.983    486.977
101.070   1910.902   1909.959      0.943    486.782   1813.177    486.782    583.757    486.782
101.170   1723.000   1838.666   -115.666    486.587   1741.385    486.587    584.060    486.587
101.270   1703.432   1757.190    -53.758    486.392   1660.914    486.392    582.854    486.392
101.370   1558.000   1670.331   -112.331    486.197   1576.488    486.197    580.217    486.197
101.470   1603.000   1582.713     20.287    486.003   1492.557    486.003    576.322    486.003
101.570   1529.000   1498.366     30.634    485.809   1412.914    485.809    571.411    485.809
101.670   1426.000   1420.465      5.535    485.615   1340.466    485.615    565.749    485.615
101.770   1290.000   1351.213    -61.213    485.421   1277.156    485.421    559.599    485.421
101.870   1268.000   1291.817    -23.817    485.228   1223.956    485.228    553.198    485.228
101.970   1196.000   1242.535    -46.535    485.035   1180.920    485.035    546.747    485.035
102.070   1196.258   1202.756     -6.499    484.843   1147.275    484.843    540.411    484.843
102.170   1215.794   1171.132     44.662    484.650   1121.545    484.650    534.318    484.650
102.270   1083.641   1145.735    -62.094    484.459   1101.705    484.459    528.563    484.459
102.370   1091.777   1124.262    -32.486    484.267   1085.387    484.267    523.215    484.267
102.470   1134.000   1104.292     29.708    484.076   1070.125    484.076    518.316    484.076
102.570   1087.000   1083.577      3.423    483.886   1053.650    483.886    513.886    483.886
102.670   1025.000   1060.333    -35.333    483.696   1034.175    483.696    509.929    483.696
102.770    978.991   1033.457    -54.466    483.506   1010.607    483.506    506.431    483.506
102.870   1048.881   1002.587     46.294    483.317    982.610    483.317    503.370    483.317
102.970   1029.200    968.026     61.175    483.128    950.515    483.128    500.714    483.128
103.070    909.000    930.545    -21.545    482.940    915.134    482.940    498.425    482.940
103.170    899.000    891.182      7.818    482.753    877.543    482.753    496.462    482.753
103.270    804.000    851.067    -47.067    482.566    838.913    482.566    494.786    482.566
103.370    801.000    811.298    -10.298    482.380    800.383    482.380    493.355    482.380
103.470    806.627    772.865     33.762    482.194    762.981    482.194    492.134    482.194
103.570    733.000    736.602     -3.602    482.010    727.573    482.010    491.087    482.010
103.670    728.491    703.153     25.338    481.825    694.835    481.825    490.186    481.825
103.770    672.000    672.962     -0.962    481.642    665.237    481.642    489.404    481.642
103.870    643.000    646.278     -3.278    481.459    639.048    481.459    488.720    481.459
103.970    636.000    623.165     12.835    481.277    616.353    481.277    488.115    481.277
104.070    562.000    603.533    -41.533    481.096    597.076    481.096    487.574    481.096
104.170    552.000    587.172    -35.172    480.915    581.019    480.915    487.085    480.915
104.270    560.000    573.788    -13.788    480.736    567.897    480.736    486.639    480.736
104.370    570.000    563.041      6.959    480.557    557.379    480.557    486.228    480.557
104.470    556.000    554.573      1.427    480.379    549.112    480.379    485.846    480.379
104.570    580.000    548.037     31.963    480.202    542.756    480.202    485.488    480.202
104.670    577.690    543.122     34.568    480.026    537.998    480.026    485.151    480.026
104.770    585.000    539.551     45.449    479.850    534.569    479.850    484.833    479.850
104.870    547.000    537.102      9.898    479.676    532.245    479.676    484.532    479.676
104.970    544.000    535.604      8.396    479.503    530.860    479.503    484.244    479.503
105.070    557.000    534.940     22.060    479.331    530.296    479.331    483.970    479.331
105.170    508.663    535.037    -26.374    479.159    530.483    479.159    483.708    479.159
105.270    551.000    535.868     15.132    478.989    531.394    478.989    483.456    478.989
105.370    538.000    537.445      0.555    478.820    533.041    478.820    483.215    478.820
105.470    554.025    539.810     14.216    478.652    535.468    478.652    482.983    478.652
105.570    516.082    543.026    -26.943    478.485    538.738    478.485    482.760    478.485
105.670    559.000    547.191     11.809    478.320    542.949    478.320    482.546    478.320
105.770    510.368    552.388    -42.020    478.155    548.185    478.155    482.340    478.155
105.870    561.883    558.692      3.191    477.992    554.521    477.992    482.142    477.992
105.970    611.000    566.155     44.845    477.830    562.010    477.830    481.951    477.830
106.070    591.000    574.792     16.208    477.669    570.666    477.669    481.768    477.669
106.170    580.000    584.569     -4.569    477.509    580.457    477.509    481.592    477.509
106.270    621.000    595.395     25.605    477.351    591.291    477.351    481.422    477.351
106.370    572.013    607.118    -35.105    477.194    603.016    477.194    481.259    477.194
106.470    615.000    619.521     -4.521    477.039    615.417    477.039    481.103    477.039
106.570    631.060    632.328     -1.267    476.885    628.216    476.885    480.954    476.885
106.670    643.000    645.204     -2.204    476.732    641.080    476.732    480.810    476.732
106.770    676.000    657.772     18.228    476.581    653.633    476.581    480.673    476.581
106.870    688.328    669.626     18.702    476.431    665.466    476.431    480.543    476.431
106.970    645.000    680.355    -35.355    476.283    676.172    476.283    480.419    476.283
107.070    739.552    689.583     49.969    476.136    685.372    476.136    480.301    476.136
107.170    654.000    697.013    -43.013    475.991    692.770    475.991    480.189    475.991
107.270    665.000    702.475    -37.475    475.847    698.196    475.847    480.084    475.847
107.370    710.416    705.967      4.448    475.705    701.648    475.705    479.985    475.705
107.470    730.535    707.657     22.879    475.564    703.293    475.564    479.893    475.564
107.570    685.000    707.858    -22.858    475.426    703.444    475.426    479.808    475.426
107.670    687.000    706.975    -19.975    475.289    702.507    475.289    479.729    475.289
107.770    682.000    705.445    -23.445    475.153    700.918    475.153    479.658    475.153
107.870    697.000    703.677     -6.677    475.020    699.085    475.020    479.594    475.020
107.970    734.982    702.015     32.968    474.888    697.352    474.888    479.537    474.888
108.070    688.000    700.705    -12.705    474.758    695.965    474.758    479.487    474.758
108.170    647.000    699.882    -52.882    474.630    695.060    474.630    479.445    474.630
108.270    720.826    699.563     21.263    474.504    694.652    474.504    479.412    474.504
108.370    705.000    699.644      5.356    474.379    694.638    474.379    479.386    474.379
108.470    688.371    699.913    -11.542    474.257    694.804    474.257    479.370    474.257
108.570    688.000    700.060    -12.060    474.137    694.841    474.137    479.362    474.137
108.670    667.000    699.715    -32.715    474.018    694.379    474.018    479.364    474.018
108.770    664.000    698.486    -34.486    473.902    693.025    473.902    479.375    473.902
108.870    697.000    696.014      0.986    473.787    690.419    473.787    479.397    473.787
108.970    665.000    692.030    -27.030    473.675    686.292    473.675    479.429    473.675
109.070    674.000    686.395    -12.395    473.565    680.505    473.565    479.473    473.565
109.170    636.626    679.120    -42.495    473.457    673.068    473.457    479.529    473.457
109.270    643.487    670.357    -26.870    473.351    664.131    473.351    479.597    473.351
109.370    611.601    660.358    -48.757    473.247    653.947    473.247    479.678    473.247
109.470    688.688    649.443     39.245    473.146    642.834    473.146    479.774    473.146
109.570    632.000    637.956     -5.956    473.047    631.136    473.047    479.885    473.047
109.670    569.000    626.238    -57.238    472.950    619.193    472.950    480.013    472.950
109.770    647.051    614.607     32.444    472.855    607.320    472.855    480.158    472.855
109.870    601.000    603.346     -2.346    472.763    595.800    472.763    480.322    472.763
109.970    610.000    592.694     17.306    472.673    584.872    472.673    480.508    472.673
110.070    623.000    582.846     40.154    472.586    574.725    472.586    480.717    472.586
110.170    573.000    573.945     -0.945    472.501    565.502    472.501    480.952    472.501
110.270    581.000    566.086     14.914    472.419    557.296    472.419    481.216    472.419
110.370    609.000    559.321     49.679    472.339    550.151    472.339    481.514    472.339
110.470    557.478    553.659      3.820    472.261    544.075    472.261    481.849    472.261
110.570    546.539    549.075     -2.536    472.187    539.036    472.187    482.227    472.187
110.670    555.000    545.519      9.481    472.115    534.977    472.115    482.657    472.115
110.770    568.000    542.922     25.078    472.045    531.821    472.045    483.145    472.045
110.870    569.000    541.201     27.799    471.979    529.474    471.979    483.703    471.979
110.970    542.000    540.247      1.753    471.915    527.816    471.915    484.342    471.915
111.070    572.347    540.009     32.337    471.853    526.782    471.853    485.076    471.853
111.170    549.000    540.428      8.572    471.795    526.293    471.795    485.924    471.795
111.270    519.234    541.416    -22.182    471.739    526.244    471.739    486.905    471.739
111.370    589.000    542.916     46.084    471.687    526.552    471.687    488.043    471.687
111.470    542.000    544.884     -2.884    471.637    527.150    471.637    489.363    471.637
111.570    539.000    547.292     -8.292    471.590    527.977    471.590    490.896    471.590
111.670    552.000    550.126      1.874    471.546    528.987    471.546    492.676    471.546
111.770    552.000    553.386     -1.386    471.505    530.141    471.505    494.740    471.505
111.870    539.000    557.085    -18.085    471.468    531.414    471.468    497.128    471.468
111.970    596.000    561.252     34.748    471.433    532.791    471.433    499.883    471.433
112.070    557.202    565.926     -8.725    471.401    534.267    471.401    503.050    471.401
112.170    558.610    571.160    -12.551    471.373    535.848    471.373    506.674    471.373
112.270    521.000    577.014    -56.014    471.348    537.549    471.348    510.802    471.348
112.370    542.988    583.557    -40.569    471.326    539.395    471.326    515.476    471.326
112.470    590.680    590.861     -0.182    471.307    541.419    471.307    520.737    471.307
112.570    617.121    599.005     18.115    471.292    543.663    471.292    526.621    471.292
112.670    619.211    608.070     11.141    471.279    546.182    471.279    533.155    471.279
112.770    593.000    618.142    -25.142    471.271    549.043    471.271    540.357    471.271
112.870    627.000    629.318     -2.318    471.265    552.336    471.265    548.233    471.265
112.970    620.000    641.702    -21.702    471.264    556.176    471.264    556.775    471.264
113.070    699.723    655.423     44.300    471.265    560.712    471.265    565.960    471.265
113.170    642.000    670.633    -28.633    471.270    566.142    471.270    575.743    471.270
113.270    673.000    687.525    -14.525    471.279    572.722    471.279    586.062    471.279
113.370    690.000    706.348    -16.348    471.292    580.788    471.292    596.830    471.292
113.470    735.000    727.421      7.579    471.308    590.770    471.308    607.934    471.308
113.570    700.000    751.156    -51.156    471.327    603.220    471.327    619.235    471.327
113.670    830.291    778.079     52.212    471.351    618.833    471.351    630.563    471.351
113.770    751.000    808.854    -57.854    471.378    638.476    471.378    641.716    471.378
113.870    814.000    844.309    -30.309    471.409    663.207    471.409    652.463    471.409
113.970    837.000    885.461    -48.461    471.444    694.304    471.444    662.543    471.444
114.070    984.545    933.538     51.007    471.483    733.278    471.483    671.673    471.483
114.170    983.000    990.000     -7.000    471.525    781.881    471.525    679.559    471.525
114.270   1044.000   1056.553    -12.553    471.572    842.104    471.572    685.917    471.572
114.370   1127.000   1135.151     -8.151    471.623    916.154    471.623    690.495    471.623
114.470   1254.000   1227.983     26.017    471.677   1006.414    471.677    693.095    471.677
114.570   1354.000   1337.425     16.575    471.736   1115.377    471.736    693.603    471.736
114.670   1514.000   1465.971     48.029    471.799   1245.558    471.799    691.997    471.799
114.770   1750.000   1616.118    133.882    471.866   1399.376    471.866    688.353    471.866
114.870   1889.000   1790.211     98.789    471.938   1579.014    471.938    682.837    471.938
114.970   2135.000   1990.267    144.733    472.013   1786.256    472.013    675.679    472.013
115.070   2357.000   2217.773    139.227    472.093   2022.316    472.093    667.155    472.093
115.170   2571.186   2473.478     97.708    472.177   2287.652    472.177    657.557    472.177
115.270   2865.000   2757.204    107.796    472.266   2581.798    472.266    647.174    472.266
115.370   3108.000   3067.671     40.329    472.359   2903.202    472.359    636.278    472.359
115.470   3490.000   3402.365     87.635    472.457   3249.110    472.457    625.114    472.457
115.570   3837.913   3757.454     80.459    472.559   3615.476    472.559    613.896    472.559
115.670   4238.000   4127.752    110.248    472.665   3996.933    472.665    602.807    472.665
115.770   4574.000   4506.744     67.256    472.776   4386.816    472.776    592.000    472.776
115.870   4954.000   4886.675     67.325    472.892   4777.250    472.892    581.599    472.892
115.970   5289.000   5258.700     30.300    473.013   5159.292    473.013    571.700    473.013
116.070   5613.310   5613.098      0.211    473.138   5523.152    473.138    562.377    473.138
116.170   5882.178   5939.579    -57.401    473.268   5858.487    473.268    553.682    473.268
116.270   6371.651   6227.676    143.975    473.403   6154.805    473.403    545.643    473.403
116.370   6616.000   6467.281    148.719    473.542   6401.974    473.542    538.282    473.542
116.470   6780.000   6649.268    130.732    473.687   6590.871    473.687    531.594    473.687
116.570   6802.000   6766.229     35.771    473.836   6714.099    473.836    525.567    473.836
116.670   6927.000   6813.180    113.820    473.991   6766.695    473.991    520.177    473.991
116.770   6662.148   6788.094   -125.945    474.151   6746.660    474.151    515.392    474.151
116.870   6707.025   6692.129     14.896    474.315   6655.185    474.315    511.172    474.315
116.970   6407.000   6529.482   -122.482    474.485   6496.503    474.485    507.477    474.485
117.070   6301.894   6306.899     -5.005    474.660   6277.404    474.660    504.261    474.660
117.170   5921.000   6033.003   -112.003    474.840   6006.553    474.840    501.478    474.840
117.270   5586.000   5717.564   -131.564    475.026   5693.761    475.026    499.083    475.026
117.370   5086.000   5370.835   -284.835    475.217   5349.326    475.217    497.032    475.217
117.470   5093.185   5003.011     90.173    475.413   4983.485    475.413    495.284    475.413
117.570   4511.000   4623.812   -112.812    475.614   4605.996    475.614    493.800    475.614
117.670   4152.000   4242.162    -90.162    475.821   4225.824    475.821    492.539    475.821
117.770   3722.000   3865.983   -143.983    476.034   3850.913    476.034    491.483    476.034
117.870   3350.000   3502.010   -152.010    476.252   3488.034    476.252    490.596    476.252
117.970   3169.000   3155.730     13.270    476.476   3142.698    476.476    489.855    476.476
118.070   2820.000   2831.348    -11.348    476.705   2819.137    476.705    489.238    476.705
118.170   2446.000   2531.821    -85.821    476.940   2520.326    476.940    488.727    476.940
118.270   2274.000   2258.957     15.043    477.181   2248.091    477.181    488.307    477.181
118.370   2055.206   2013.559     41.647    477.428   2003.250    477.428    487.963    477.428
118.470   1792.000   1795.483     -3.483    477.680   1785.669    477.680    487.687    477.680
118.570   1628.619   1603.861     24.757    477.939   1594.495    477.939    487.467    477.939
118.670   1422.000   1437.257    -15.257    478.203   1428.295    478.203    487.298    478.203
118.770   1242.000   1293.816    -51.816    478.473   1285.223    478.473    487.173    478.473
118.870   1139.646   1171.418    -31.772    478.750   1163.165    478.750    487.086    478.750
118.970   1085.000   1067.810     17.190    479.032   1059.871    479.032    487.035    479.032
119.070    972.000    980.723     -8.723    479.321    973.076    479.321    487.016    479.321
119.170    969.661    907.957     61.704    479.616    900.582    479.616    487.025    479.616
119.270    821.000    847.452    -26.452    479.917    840.331    479.917    487.062    479.917
119.370    761.295    797.331    -36.036    480.224    790.447    480.224    487.124    480.224
119.470    723.000    755.922    -32.922    480.538    749.260    480.538    487.210    480.538
119.570    767.000    721.769     45.231    480.858    715.314    480.858    487.319    480.858
119.670    737.483    693.625     43.858    481.184    687.363    481.184    487.450    481.184
119.770    690.000    670.442     19.558    481.517    664.358    481.517    487.602    481.517
119.870    612.000    651.347    -39.347    481.857    645.429    481.857    487.776    481.857
119.970    589.433    635.628    -46.195    482.203    629.861    482.203    487.970    482.203
120.070    576.000    622.706    -46.706    482.556    617.077    482.556    488.184    482.556
120.170    597.000    612.115    -15.115    482.916    606.611    482.916    488.420    482.916
120.270    580.000    603.484    -23.484    483.282    598.092    483.282    488.675    483.282
120.370    589.000    596.521     -7.521    483.655    591.226    483.655    488.951    483.655
120.470    584.000    590.992     -6.992    484.035    585.781    484.035    489.248    484.035
120.570    592.361    586.716      5.645    484.422    581.575    484.422    489.565    484.422
120.670    584.000    583.549      0.451    484.816    578.464    484.816    489.903    484.816
120.770    593.117    581.377     11.740    485.217    576.335    485.217    490.263    485.217
120.870    600.000    580.110     19.890    485.625    575.097    485.625    490.643    485.625
120.970    611.000    579.674     31.326    486.040    574.676    486.040    491.045    486.040
121.070    543.000    580.007    -37.007    486.463    575.010    486.463    491.467    486.463
121.170    609.000    581.054     27.946    486.892    576.043    486.892    491.911    486.892
121.270    522.000    582.762    -60.762    487.329    577.724    487.329    492.376    487.329
121.370    593.000    585.079      7.921    487.773    580.002    487.773    492.862    487.773
121.470    559.000    587.952    -28.952    488.225    582.823    488.225    493.368    488.225
121.570    606.000    591.322     14.678    488.684    586.128    488.684    493.894    488.684
121.670    623.000    595.124     27.876    489.151    589.854    489.151    494.438    489.151
121.770    615.000    599.285     15.715    489.625    593.929    489.625    495.001    489.625
121.870    628.000    603.726     24.274    490.107    598.276    490.107    495.580    490.107
121.970    647.000    608.360     38.640    490.597    602.807    490.597    496.175    490.597
122.070    625.243    613.090     12.152    491.094    607.429    491.094    496.783    491.094
122.170    625.000    617.815      7.185    491.599    612.042    491.599    497.403    491.599
122.270    661.000    622.427     38.573    492.112    616.540    492.112    498.033    492.112
122.370    584.164    626.816    -42.652    492.633    620.815    492.633    498.669    492.633
122.470    590.895    630.871    -39.975    493.162    624.761    493.162    499.310    493.162
122.570    597.934    634.486    -36.552    493.699    628.274    493.699    499.951    493.699
122.670    626.345    637.566    -11.220    494.244    631.261    494.244    500.591    494.244
122.770    609.429    640.027    -30.598    494.798    633.643    494.798    501.225    494.798
122.870    593.567    641.810    -48.243    495.359    635.363    495.359    501.850    495.359
122.970    622.058    642.876    -20.818    495.929    636.387    495.929    502.463    495.929
123.070    674.000    643.215     30.785    496.507    636.707    496.507    503.061    496.507
123.170    646.000    642.843      3.157    497.093    636.341    497.093    503.641    497.093
123.270    633.186    641.797     -8.611    497.688    635.327    497.688    504.203    497.688
123.370    682.000    640.134     41.866    498.291    633.723    498.291    504.746    498.291
123.470    655.000    637.922     17.078    498.903    631.598    498.903    505.270    498.903
123.570    591.611    635.241    -43.630    499.524    629.029    499.524    505.777    499.524
123.670    649.000    632.174     16.826    500.153    626.097    500.153    506.269    500.153
123.770    671.897    628.802     43.095    500.791    622.881    500.791    506.748    500.791
123.870    626.000    625.207      0.793    501.438    619.460    501.438    507.218    501.438
123.970    581.000    621.462    -40.462    502.094    615.903    502.094    507.682    502.094
124.070    637.000    617.635     19.365    502.759    612.276    502.759    508.144    502.759
124.170    635.825    613.784     22.041    503.432    608.634    503.432    508.606    503.432
124.270    582.000    609.959    -27.959    504.115    605.022    504.115    509.072    504.115
124.370    614.484    606.196      8.287    504.807    601.476    504.807    509.545    504.807
124.470    617.000    602.525     14.475    505.508    598.021    505.508    510.027    505.508
124.570    624.000    598.962     25.038    506.218    594.673    506.218    510.520    506.218
124.670    613.000    595.518     17.482    506.938    591.440    506.938    511.027    506.938
124.770    573.000    592.196    -19.196    507.666    588.324    507.666    511.548    507.666
124.870    595.996    588.995      7.002    508.405    585.322    508.405    512.085    508.405
124.970    528.000    585.909    -57.909    509.153    582.429    509.153    512.639    509.153
