neutron_powder_diffraction_0241
R_wp: 3.995
Temperature (K): 993.018
Counts: 84121.00
Wavelength (Ã…): 2.52098
COMMENTS
Test file for demonstrating the .xyy file format in Reel1.0
END OF HEADER
   tth       Y_obs     Y_calc      Y_res    Background    Phase_1_Nuc    Phase_1_Mag    Phase_2_Nuc    Phase_2_Mag
  9.970    589.000    576.790     12.210    576.093    576.766    576.093    576.117    576.093
 10.070    648.000    576.859     71.141    576.105    576.835    576.105    576.129    576.105
 10.170    600.000    576.931     23.069    576.111    576.907    576.111    576.135    576.111
 10.270    604.540    577.009     27.531    576.113    576.984    576.113    576.136    576.113
 10.370    574.639    577.093     -2.454    576.108    577.068    576.108    576.132    576.108
 10.470    597.000    577.187     19.813    576.099    577.162    576.099    576.123    576.099
 10.570    615.110    577.294     37.816    576.085    577.270    576.085    576.109    576.085
 10.670    578.000    577.420      0.580    576.065    577.395    576.065    576.090    576.065
 10.770    604.347    577.571     26.776    576.041    577.546    576.041    576.065    576.041
 10.870    619.263    577.758     41.504    576.011    577.730    576.011    576.039    576.011
 10.970    566.000    577.989    -11.989    575.977    577.959    575.977    576.006    575.977
 11.070    592.000    578.282     13.718    575.938    578.252    575.938    575.967    575.938
 11.170    572.000    578.664     -6.664    575.894    578.633    575.894    575.923    575.894
 11.270    546.376    579.171    -32.795    575.845    579.139    575.845    575.874    575.845
 11.370    554.901    579.871    -24.970    575.791    579.839    575.791    575.821    575.791
 11.470    556.988    580.903    -23.915    575.733    580.870    575.733    575.763    575.733
 11.570    568.483    582.645    -14.162    575.670    582.611    575.670    575.700    575.670
 11.670    588.000    586.126      1.874    575.602    586.090    575.602    575.633    575.602
 11.770    636.000    593.699     42.301    575.530    593.658    575.530    575.561    575.530
 11.870    671.000    609.197     61.803    575.454    609.147    575.454    575.484    575.454
 11.970    626.000    635.888     -9.888    575.373    635.823    575.373    575.404    575.373
 12.070    632.000    671.278    -39.278    575.287    671.193    575.287    575.319    575.287
 12.170    692.000    701.636     -9.636    575.198    701.533    575.198    575.231    575.198
 12.270    689.000    706.954    -17.954    575.104    706.848    575.104    575.137    575.104
 12.370    676.000    682.421     -6.421    575.005    682.328    575.005    575.039    575.005
 12.470    618.000    646.019    -28.019    574.903    645.946    574.903    574.937    574.903
 12.570    646.000    615.498     30.502    574.796    615.441    574.796    574.830    574.796
 12.670    571.269    596.493    -25.225    574.686    596.447    574.686    574.720    574.686
 12.770    560.598    586.776    -26.178    574.571    586.735    574.571    574.605    574.571
 12.870    560.551    582.229    -21.678    574.452    582.190    574.452    574.487    574.452
 12.970    548.000    579.953    -31.953    574.329    579.916    574.329    574.364    574.329
 13.070    612.977    578.589     34.388    574.202    578.551    574.202    574.238    574.202
 13.170    577.000    577.629     -0.629    574.072    577.591    574.072    574.108    574.072
 13.270    522.000    576.896    -54.896    573.937    576.852    573.937    573.979    573.937
 13.370    613.127    576.308     36.820    573.799    576.257    573.799    573.849    573.799
 13.470    538.000    575.812    -37.812    573.657    575.760    573.657    573.708    573.657
 13.570    571.000    575.386     -4.386    573.511    575.334    573.511    573.562    573.511
 13.670    584.000    575.011      8.989    573.362    574.959    573.362    573.413    573.362
 13.770    582.064    574.676      7.388    573.209    574.623    573.209    573.261    573.209
 13.870    533.843    574.368    -40.525    573.052    574.315    573.052    573.105    573.052
 13.970    601.000    574.082     26.918    572.892    574.028    572.892    572.945    572.892
 14.070    593.369    573.817     19.552    572.729    573.760    572.729    572.785    572.729
 14.170    563.000    573.567    -10.567    572.561    573.506    572.561    572.622    572.561
 14.270    567.000    573.320     -6.320    572.391    573.258    572.391    572.452    572.391
 14.370    573.000    573.080     -0.080    572.217    573.018    572.217    572.278    572.217
 14.470    528.051    572.845    -44.794    572.040    572.783    572.040    572.102    572.040
 14.570    569.000    572.615     -3.615    571.859    572.553    571.859    571.921    571.859
 14.670    556.000    572.387    -16.387    571.676    572.325    571.676    571.738    571.676
 14.770    550.000    572.162    -22.162    571.489    572.099    571.489    571.552    571.489
 14.870    571.000    571.938     -0.938    571.299    571.875    571.299    571.362    571.299
 14.970    548.000    571.717    -23.717    571.106    571.653    571.106    571.169    571.106
 15.070    579.000    571.495      7.505    570.909    571.431    570.909    570.973    570.909
 15.170    619.828    571.272     48.556    570.710    571.208    570.710    570.774    570.710
 15.270    618.000    571.049     46.951    570.508    570.984    570.508    570.572    570.508
 15.370    589.000    570.824     18.176    570.303    570.759    570.303    570.367    570.303
 15.470    613.932    570.599     43.333    570.094    570.534    570.094    570.160    570.094
 15.570    593.000    570.373     22.627    569.883    570.307    569.883    569.949    569.883
 15.670    538.000    570.146    -32.146    569.670    570.079    569.670    569.736    569.670
 15.770    570.000    569.917      0.083    569.453    569.850    569.453    569.519    569.453
 15.870    533.495    569.686    -36.192    569.233    569.619    569.233    569.300    569.233
 15.970    544.000    569.454    -25.454    569.011    569.387    569.011    569.079    569.011
 16.070    575.000    569.221      5.779    568.786    569.153    568.786    568.854    568.786
 16.170    554.260    568.985    -14.725    568.559    568.917    568.559    568.627    568.559
 16.270    587.000    568.748     18.252    568.329    568.679    568.329    568.398    568.329
 16.370    522.526    568.509    -45.983    568.096    568.440    568.096    568.165    568.096
 16.470    597.752    568.268     29.484    567.861    568.199    567.861    567.931    567.861
 16.570    547.000    568.026    -21.026    567.624    567.956    567.624    567.694    567.624
 16.670    582.213    567.785     14.428    567.383    567.711    567.383    567.457    567.383
 16.770    554.000    567.540    -13.540    567.141    567.465    567.141    567.216    567.141
 16.870    526.000    567.294    -41.294    566.896    567.218    566.896    566.971    566.896
 16.970    590.000    567.045     22.955    566.649    566.968    566.649    566.726    566.649
 17.070    548.000    566.794    -18.794    566.399    566.716    566.399    566.477    566.399
 17.170    546.364    566.540    -20.177    566.147    566.462    566.147    566.226    566.147
 17.270    524.608    566.285    -41.677    565.893    566.206    565.893    565.973    565.893
 17.370    566.000    566.028     -0.028    565.637    565.948    565.637    565.717    565.637
 17.470    561.000    565.769     -4.769    565.379    565.689    565.379    565.459    565.379
 17.570    536.627    565.508    -28.881    565.118    565.427    565.118    565.199    565.118
 17.670    583.846    565.246     18.600    564.856    565.164    564.856    564.937    564.856
 17.770    589.000    564.981     24.019    564.591    564.899    564.591    564.673    564.591
 17.870    556.870    564.715     -7.845    564.324    564.633    564.324    564.407    564.324
 17.970    590.100    564.448     25.652    564.056    564.365    564.056    564.139    564.056
 18.070    544.000    564.179    -20.179    563.785    564.095    563.785    563.869    563.785
 18.170    546.489    563.908    -17.418    563.513    563.823    563.513    563.597    563.513
 18.270    552.000    563.635    -11.635    563.238    563.550    563.238    563.323    563.238
 18.370    552.000    563.361    -11.361    562.962    563.276    562.962    563.048    562.962
 18.470    585.823    563.086     22.737    562.684    563.000    562.684    562.770    562.684
 18.570    551.779    562.809    -11.030    562.404    562.722    562.404    562.491    562.404
 18.670    581.000    562.532     18.468    562.122    562.444    562.122    562.210    562.122
 18.770    573.000    562.253     10.747    561.839    562.164    561.839    561.928    561.839
 18.870    541.000    561.973    -20.973    561.554    561.882    561.554    561.645    561.554
 18.970    610.782    561.691     49.091    561.268    561.599    561.268    561.359    561.268
 19.070    568.000    561.407      6.593    560.979    561.314    560.979    561.072    560.979
 19.170    589.000    561.122     27.878    560.689    561.028    560.689    560.783    560.689
 19.270    574.000    560.835     13.165    560.398    560.741    560.398    560.492    560.398
 19.370    564.000    560.551      3.449    560.105    560.456    560.105    560.200    560.105
 19.470    528.000    560.283    -32.283    559.811    560.188    559.811    559.906    559.811
 19.570    556.000    559.996     -3.996    559.515    559.900    559.515    559.611    559.515
 19.670    535.340    559.705    -24.366    559.218    559.608    559.218    559.315    559.218
 19.770    581.000    559.414     21.586    558.919    559.315    558.919    559.017    558.919
 19.870    540.000    559.121    -19.121    558.619    559.022    558.619    558.718    558.619
 19.970    594.000    558.827     35.173    558.318    558.727    558.318    558.418    558.318
 20.070    528.840    558.533    -29.693    558.015    558.432    558.015    558.116    558.015
 20.170    589.379    558.238     31.141    557.711    558.136    557.711    557.813    557.711
 20.270    552.000    557.942     -5.942    557.406    557.839    557.406    557.509    557.406
 20.370    602.336    557.645     44.691    557.100    557.542    557.100    557.204    557.100
 20.470    566.000    557.348      8.652    556.792    557.243    556.792    556.897    556.792
 20.570    533.000    557.051    -24.051    556.484    556.944    556.484    556.590    556.484
 20.670    552.000    556.759     -4.759    556.174    556.645    556.174    556.288    556.174
 20.770    550.000    556.461     -6.461    555.863    556.345    555.863    555.979    555.863
 20.870    561.191    556.162      5.029    555.551    556.045    555.551    555.668    555.551
 20.970    541.000    555.863    -14.863    555.238    555.745    555.238    555.356    555.238
 21.070    564.000    555.563      8.437    554.925    555.445    554.925    555.043    554.925
 21.170    557.901    555.264      2.637    554.610    555.144    554.610    554.730    554.610
 21.270    529.000    554.965    -25.965    554.294    554.844    554.294    554.415    554.294
 21.370    591.486    554.666     36.820    553.977    554.543    553.977    554.100    553.977
 21.470    575.562    554.367     21.195    553.659    554.243    553.659    553.783    553.659
 21.570    534.000    554.069    -20.069    553.341    553.944    553.341    553.466    553.341
 21.670    504.000    553.772    -49.772    553.022    553.645    553.022    553.148    553.022
 21.770    565.000    553.476     11.524    552.701    553.347    552.701    552.830    552.701
 21.870    552.000    553.184     -1.184    552.381    553.054    552.381    552.510    552.381
 21.970    559.000    552.892      6.108    552.059    552.761    552.059    552.190    552.059
 22.070    554.000    552.600      1.400    551.737    552.467    551.737    551.870    551.737
 22.170    547.000    552.312     -5.312    551.414    552.178    551.414    551.548    551.414
 22.270    543.000    552.055     -9.055    551.090    551.918    551.090    551.226    551.090
 22.370    563.000    551.853     11.147    550.765    551.715    550.765    550.904    550.765
 22.470    561.428    551.587      9.841    550.441    551.447    550.441    550.581    550.441
 22.570    551.665    551.380      0.285    550.115    551.239    550.115    550.257    550.115
 22.670    544.000    551.147     -7.147    549.789    551.004    549.789    549.933    549.789
 22.770    537.155    550.886    -13.731    549.462    550.740    549.462    549.608    549.462
 22.870    553.000    550.628      2.372    549.135    550.481    549.135    549.283    549.135
 22.970    525.000    550.380    -25.380    548.807    550.229    548.807    548.958    548.807
 23.070    567.087    550.142     16.945    548.479    549.989    548.479    548.632    548.479
 23.170    563.926    549.917     14.008    548.151    549.763    548.151    548.306    548.151
 23.270    548.000    549.710     -1.710    547.822    549.553    547.822    547.979    547.822
 23.370    574.834    549.525     25.309    547.492    549.366    547.492    547.653    547.492
 23.470    508.000    549.368    -41.368    547.163    549.206    547.163    547.326    547.163
 23.570    520.000    549.248    -29.248    546.833    549.083    546.833    546.998    546.833
 23.670    515.376    549.176    -33.801    546.502    549.009    546.502    546.671    546.502
 23.770    517.129    549.172    -32.044    546.172    549.002    546.172    546.344    546.172
 23.870    569.000    549.264     19.736    545.841    549.090    545.841    546.016    545.841
 23.970    559.608    549.500     10.108    545.510    549.324    545.510    545.688    545.510
 24.070    544.252    549.994     -5.742    545.179    549.815    545.179    545.360    545.179
 24.170    526.000    551.046    -25.046    544.847    550.864    544.847    545.033    544.847
 24.270    579.351    553.439     25.913    544.515    553.251    544.515    544.708    544.515
 24.370    587.000    558.812     28.188    544.184    558.625    544.184    544.380    544.184
 24.470    602.000    569.598     32.402    543.852    569.414    543.852    544.053    543.852
 24.570    504.000    587.496    -83.496    543.519    587.321    543.519    543.725    543.519
 24.670    577.000    610.250    -33.250    543.187    610.087    543.187    543.398    543.187
 24.770    595.410    628.683    -33.273    542.855    628.528    542.855    543.071    542.855
 24.870    616.000    630.684    -14.684    542.523    630.526    542.523    542.744    542.523
 24.970    612.000    614.295     -2.295    542.191    614.120    542.191    542.417    542.191
 25.070    590.000    590.751     -0.751    541.859    590.553    541.859    542.091    541.859
 25.170    559.000    570.817    -11.817    541.526    570.598    541.526    541.765    541.526
 25.270    513.000    558.049    -45.049    541.194    557.814    541.194    541.440    541.194
 25.370    591.000    551.226     39.774    540.862    550.980    540.862    541.115    540.862
 25.470    513.000    547.868    -34.868    540.530    547.611    540.530    540.791    540.530
 25.570    516.075    546.099    -30.024    540.198    545.833    540.198    540.467    540.198
 25.670    526.000    544.992    -18.992    539.867    544.717    539.867    540.144    539.867
 25.770    548.000    544.186      3.814    539.535    543.901    539.535    539.822    539.535
 25.870    521.000    543.550    -22.550    539.204    543.254    539.204    539.501    539.204
 25.970    535.266    543.028     -7.762    538.873    542.721    538.873    539.180    538.873
 26.070    518.860    542.592    -23.732    538.542    542.274    538.542    538.861    538.542
 26.170    523.000    542.235    -19.235    538.211    541.903    538.211    538.543    538.211
 26.270    569.000    541.974     27.026    537.881    541.629    537.881    538.226    537.881
 26.370    572.000    541.728     30.272    537.551    541.368    537.551    537.911    537.551
 26.470    562.000    541.544     20.456    537.221    541.167    537.221    537.598    537.221
 26.570    547.000    541.399      5.601    536.891    541.004    536.891    537.286    536.891
 26.670    567.680    541.315     26.365    536.562    540.900    536.562    536.976    536.562
 26.770    529.000    541.289    -12.289    536.233    540.853    536.233    536.669    536.233
 26.870    586.000    541.342     44.658    535.905    540.882    535.905    536.364    535.905
 26.970    495.702    541.510    -45.808    535.577    541.024    535.577    536.063    535.577
 27.070    539.000    541.788     -2.788    535.249    541.272    535.249    535.764    535.249
 27.170    558.035    542.208     15.827    534.922    541.660    534.922    535.469    534.922
 27.270    579.000    542.835     36.165    534.595    542.250    534.595    535.179    534.595
 27.370    578.000    543.752     34.248    534.269    543.126    534.269    534.894    534.269
 27.470    494.000    545.104    -51.104    533.943    544.430    533.943    534.615    533.943
 27.570    593.000    547.248     45.752    533.618    546.521    533.618    534.342    533.618
 27.670    549.000    551.405     -2.405    533.293    550.616    533.293    534.078    533.293
 27.770    584.000    561.661     22.339    532.969    560.799    532.969    533.824    532.969
 27.870    562.664    588.468    -25.804    532.645    587.515    532.645    533.581    532.645
 27.970    665.353    648.792     16.561    532.322    647.724    532.322    533.353    532.322
 28.070    708.212    752.442    -44.230    532.000    751.232    532.000    533.142    532.000
 28.170    883.000    875.195      7.805    531.678    873.825    531.678    532.953    531.678
 28.270    899.096    948.737    -49.640    531.357    947.206    531.357    532.791    531.357
 28.370    887.045    917.327    -30.282    531.036    915.635    531.036    532.665    531.036
 28.470    861.000    815.727     45.273    530.716    813.830    530.716    532.585    530.716
 28.570    731.000    723.951      7.049    530.397    721.769    530.397    532.568    530.397
 28.670    700.000    693.337      6.663    530.078    690.761    530.078    532.642    530.078
 28.770    761.000    727.704     33.296    529.761    724.586    529.761    532.858    529.761
 28.870    786.151    793.326     -7.175    529.443    789.433    529.443    533.311    529.443
 28.970    897.000    833.600     63.400    529.127    828.533    529.127    534.177    529.127
 29.070    798.000    807.899     -9.899    528.811    800.971    528.811    535.739    528.811
 29.170    735.000    735.428     -0.428    528.497    725.552    528.497    538.385    528.497
 29.270    667.000    661.436      5.564    528.183    647.114    528.183    542.517    528.183
 29.370    626.490    612.406     14.084    527.869    591.936    527.869    548.347    527.869
 29.470    612.000    589.982     22.018    527.557    562.020    527.557    555.521    527.557
 29.570    640.000    583.620     56.380    527.245    548.311    527.245    562.554    527.245
 29.670    591.000    581.920      9.080    526.934    542.213    526.934    566.640    526.934
 29.770    572.418    577.882     -5.464    526.625    539.094    526.625    565.411    526.625
 29.870    592.000    570.293     21.707    526.316    537.155    526.316    559.452    526.316
 29.970    584.000    561.353     22.647    526.007    535.811    526.007    551.548    526.007
 30.070    569.000    553.281     15.719    525.700    534.874    525.700    544.106    525.700
 30.170    609.000    547.099     61.901    525.394    534.298    525.394    538.193    525.394
 30.270    595.000    543.020     51.980    525.088    534.164    525.088    533.942    525.088
 30.370    569.000    541.115     27.885    524.784    534.838    524.784    531.058    524.784
 30.470    557.000    541.959     15.041    524.480    537.307    524.480    529.127    524.480
 30.570    517.308    547.067    -29.759    524.178    543.441    524.178    527.792    524.178
 30.670    597.825    558.397     39.428    523.876    555.445    523.876    526.807    523.876
 30.770    577.000    576.210      0.790    523.576    573.727    523.576    526.025    523.576
 30.870    587.000    596.009     -9.009    523.276    593.871    523.276    525.365    523.276
 30.970    626.000    607.525     18.475    522.978    605.661    522.978    524.788    522.978
 31.070    593.000    602.175     -9.175    522.680    600.542    522.680    524.267    522.680
 31.170    565.000    583.756    -18.756    522.384    582.318    522.384    523.789    522.384
 31.270    529.192    562.905    -33.713    522.089    561.629    522.089    523.345    522.089
 31.370    550.000    546.861      3.139    521.794    545.718    521.794    522.926    521.794
 31.470    530.000    537.186     -7.186    521.501    536.153    521.501    522.529    521.501
 31.570    507.515    532.230    -24.715    521.209    531.287    521.209    522.148    521.209
 31.670    499.206    529.834    -30.628    520.918    528.968    520.918    521.781    520.918
 31.770    516.051    528.578    -12.527    520.628    527.778    520.628    521.426    520.628
 31.870    515.037    527.806    -12.769    520.340    527.063    520.340    521.081    520.340
 31.970    545.486    527.273     18.213    520.052    526.579    520.052    520.744    520.052
 32.070    553.000    526.895     26.105    519.766    526.245    519.766    520.415    519.766
 32.170    541.000    526.642     14.358    519.480    526.030    519.480    520.092    519.480
 32.270    520.281    526.502     -6.222    519.196    525.924    519.196    519.774    519.196
 32.370    534.000    526.474      7.526    518.913    525.925    518.913    519.461    518.913
 32.470    524.000    526.566     -2.566    518.632    526.043    518.632    519.153    518.632
 32.570    511.000    526.790    -15.790    518.351    526.291    518.351    518.849    518.351
 32.670    563.000    527.175     35.825    518.072    526.697    518.072    518.548    518.072
 32.770    529.000    527.750      1.250    517.794    527.292    517.794    518.251    517.794
 32.870    506.136    528.570    -22.434    517.517    528.129    517.517    517.957    517.517
 32.970    501.218    529.713    -28.495    517.242    529.287    517.242    517.666    517.242
 33.070    531.000    531.299     -0.299    516.967    530.887    516.967    517.377    516.967
 33.170    563.226    533.539     29.687    516.694    533.140    516.694    517.092    516.694
 33.270    535.000    536.902     -1.902    516.423    536.514    516.423    516.808    516.423
 33.370    575.000    542.616     32.384    516.152    542.237    516.152    516.527    516.152
 33.470    604.000    553.854     50.146    515.883    553.482    515.883    516.248    515.883
 33.570    559.791    577.518    -17.727    515.615    577.150    515.615    515.972    515.615
 33.670    622.000    624.903     -2.903    515.349    624.534    515.349    515.697    515.349
 33.770    748.000    707.486     40.514    515.084    707.108    515.084    515.424    515.084
 33.870    874.000    825.489     48.511    514.820    825.100    514.820    515.154    514.820
 33.970   1054.000    953.020    100.980    514.557    952.626    514.557    514.885    514.557
 34.070   1015.883   1033.528    -17.645    514.296   1033.145    514.296    514.618    514.296
 34.170   1009.000   1016.459     -7.459    514.036   1016.105    514.036    514.353    514.036
 34.270    904.085    914.272    -10.187    513.778    913.946    513.778    514.090    513.778
 34.370    774.000    785.164    -11.164    513.521    784.856    513.521    513.829    513.521
 34.470    670.581    676.636     -6.056    513.265    676.336    513.265    513.569    513.265
 34.570    599.000    605.159     -6.159    513.011    604.862    513.011    513.311    513.011
 34.670    555.051    565.657    -10.606    512.758    565.361    512.758    513.055    512.758
 34.770    500.456    546.032    -45.576    512.507    545.738    512.507    512.801    512.507
 34.870    527.495    536.303     -8.808    512.257    536.011    512.257    512.548    512.257
 34.970    565.345    530.886     34.459    512.008    530.596    512.008    512.297    512.008
 35.070    553.000    527.344     25.656    511.761    527.057    511.761    512.047    511.761
 35.170    526.410    524.744      1.667    511.515    524.459    511.515    511.800    511.515
 35.270    472.000    522.716    -50.716    511.271    522.432    511.271    511.553    511.271
 35.370    510.000    521.081    -11.081    511.028    520.799    511.028    511.309    511.028
 35.470    542.049    519.733     22.316    510.787    519.453    510.787    511.066    510.787
 35.570    527.956    518.601      9.356    510.547    518.322    510.547    510.825    510.547
 35.670    508.000    517.634     -9.634    510.308    517.356    510.308    510.586    510.308
 35.770    484.000    516.797    -32.797    510.071    516.520    510.071    510.348    510.071
 35.870    540.802    516.063     24.739    509.836    515.787    509.836    510.112    509.836
 35.970    478.215    515.412    -37.198    509.602    515.137    509.602    509.877    509.602
 36.070    499.187    514.831    -15.644    509.369    514.556    509.369    509.644    509.369
 36.170    508.000    514.307     -6.307    509.139    514.033    509.139    509.413    509.139
 36.270    544.996    513.833     31.163    508.909    513.559    508.909    509.183    508.909
 36.370    541.519    513.402     28.117    508.681    513.128    508.681    508.955    508.681
 36.470    522.000    513.012      8.988    508.455    512.737    508.455    508.729    508.455
 36.570    510.000    512.658     -2.658    508.230    512.384    508.230    508.504    508.230
 36.670    506.000    512.343     -6.343    508.006    512.069    508.006    508.281    508.006
 36.770    478.949    512.070    -33.121    507.785    511.795    507.785    508.059    507.785
 36.870    560.000    511.852     48.148    507.564    511.576    507.564    507.840    507.564
 36.970    484.630    511.724    -27.094    507.346    511.449    507.346    507.621    507.346
 37.070    479.000    511.776    -32.776    507.129    511.500    507.129    507.405    507.129
 37.170    471.000    512.186    -41.186    506.913    511.910    506.913    507.190    506.913
 37.270    539.000    513.237     25.763    506.699    512.959    506.699    506.977    506.699
 37.370    533.000    515.227     17.773    506.486    514.949    506.486    506.765    506.486
 37.470    488.000    518.240    -30.240    506.275    517.961    506.275    506.556    506.275
 37.570    503.988    521.817    -17.829    506.066    521.539    506.066    506.347    506.066
 37.670    491.268    524.765    -33.497    505.858    524.486    505.858    506.141    505.858
 37.770    545.353    525.583     19.770    505.652    525.305    505.652    505.936    505.652
 37.870    540.000    523.792     16.208    505.448    523.515    505.448    505.733    505.448
 37.970    530.000    520.475      9.525    505.245    520.198    505.245    505.531    505.245
 38.070    509.289    516.942     -7.653    505.043    516.664    505.043    505.331    505.043
 38.170    501.487    513.873    -12.387    504.844    513.593    504.844    505.133    504.844
 38.270    512.000    511.510      0.490    504.645    511.226    504.645    504.937    504.645
 38.370    511.000    509.846      1.154    504.449    509.558    504.449    504.742    504.449
 38.470    514.000    508.731      5.269    504.254    508.439    504.254    504.549    504.254
 38.570    488.835    507.991    -19.156    504.061    507.696    504.061    504.358    504.061
 38.670    494.000    507.484    -13.484    503.869    507.186    503.869    504.168    503.869
 38.770    468.000    507.110    -39.110    503.679    506.810    503.679    503.980    503.679
 38.870    497.000    506.810     -9.810    503.490    506.507    503.490    503.794    503.490
 38.970    563.000    506.551     56.449    503.303    506.246    503.303    503.609    503.303
 39.070    459.000    506.317    -47.317    503.118    506.009    503.118    503.426    503.118
 39.170    511.756    506.100      5.655    502.935    505.790    502.935    503.245    502.935
 39.270    514.000    505.897      8.103    502.753    505.584    502.753    503.066    502.753
 39.370    491.000    505.706    -14.706    502.572    505.390    502.572    502.888    502.572
 39.470    546.000    505.525     40.475    502.394    505.206    502.394    502.712    502.394
 39.570    485.573    505.353    -19.780    502.217    505.032    502.217    502.538    502.217
 39.670    479.000    505.190    -26.190    502.041    504.865    502.041    502.366    502.041
 39.770    493.000    505.035    -12.035    501.868    504.707    501.868    502.195    501.868
 39.870    502.000    504.888     -2.888    501.695    504.557    501.695    502.026    501.695
 39.970    499.086    504.749     -5.663    501.525    504.415    501.525    501.859    501.525
 40.070    477.000    504.619    -27.619    501.356    504.282    501.356    501.694    501.356
 40.170    484.000    504.497    -20.497    501.189    504.156    501.189    501.530    501.189
 40.270    521.789    504.385     17.404    501.024    504.040    501.024    501.368    501.024
 40.370    495.000    504.282     -9.282    500.860    503.934    500.860    501.208    500.860
 40.470    489.733    504.191    -14.458    500.698    503.839    500.698    501.050    500.698
 40.570    501.000    504.112     -3.112    500.537    503.756    500.537    500.893    500.537
 40.670    524.478    504.046     20.432    500.378    503.686    500.378    500.738    500.378
 40.770    529.000    503.997     25.003    500.221    503.633    500.221    500.586    500.221
 40.870    530.000    503.965     26.035    500.065    503.597    500.065    500.434    500.065
 40.970    481.016    503.956    -22.940    499.912    503.583    499.912    500.285    499.912
 41.070    499.000    503.972     -4.972    499.759    503.595    499.759    500.137    499.759
 41.170    498.000    504.020     -6.020    499.609    503.638    499.609    499.992    499.609
 41.270    478.129    504.107    -25.978    499.460    503.720    499.460    499.848    499.460
 41.370    542.477    504.244     38.233    499.313    503.852    499.313    499.706    499.313
 41.470    488.000    504.444    -16.444    499.167    504.047    499.167    499.565    499.167
 41.570    530.000    504.730     25.270    499.023    504.328    499.023    499.427    499.023
 41.670    490.000    505.139    -15.139    498.881    504.731    498.881    499.291    498.881
 41.770    509.792    505.749      4.043    498.741    505.335    498.741    499.156    498.741
 41.870    487.000    506.740    -19.740    498.602    506.322    498.602    499.023    498.602
 41.970    503.000    508.532     -5.532    498.464    508.107    498.464    498.892    498.464
 42.070    483.738    511.976    -28.238    498.329    511.547    498.329    498.763    498.329
 42.170    518.000    518.522     -0.522    498.195    518.088    498.195    498.636    498.195
 42.270    501.000    530.028    -29.028    498.063    529.592    498.063    498.510    498.063
 42.370    600.000    547.921     52.079    497.932    547.487    497.932    498.387    497.932
 42.470    543.000    571.678    -28.678    497.803    571.248    497.803    498.266    497.803
 42.570    633.894    597.179     36.715    497.676    596.756    497.676    498.146    497.676
 42.670    595.000    616.205    -21.205    497.550    615.786    497.550    498.029    497.550
 42.770    653.827    619.786     34.041    497.427    619.364    497.427    497.913    497.427
 42.870    566.000    605.754    -39.754    497.304    605.318    497.304    497.799    497.304
 42.970    558.000    581.313    -23.313    497.184    580.856    497.184    497.688    497.184
 43.070    541.000    555.892    -14.892    497.065    555.412    497.065    497.578    497.065
 43.170    508.000    535.311    -27.311    496.947    534.809    496.947    497.471    496.947
 43.270    525.000    521.295      3.705    496.832    520.774    496.832    497.365    496.832
 43.370    512.000    512.941     -0.941    496.718    512.405    496.718    497.262    496.718
 43.470    477.725    508.391    -30.666    496.605    507.841    496.605    497.160    496.605
 43.570    535.889    505.971     29.917    496.495    505.408    496.495    497.061    496.495
 43.670    512.000    504.605      7.395    496.386    504.029    496.386    496.964    496.386
 43.770    494.000    503.736     -9.736    496.278    503.147    496.278    496.869    496.278
 43.870    536.540    503.118     33.422    496.173    502.516    496.173    496.776    496.173
 43.970    538.027    502.646     35.381    496.068    502.030    496.068    496.686    496.068
 44.070    500.000    502.272     -2.272    495.966    501.642    495.966    496.598    495.966
 44.170    491.417    501.972    -10.555    495.865    501.326    495.865    496.512    495.865
 44.270    480.397    501.728    -21.331    495.766    501.066    495.766    496.429    495.766
 44.370    542.907    501.530     41.377    495.668    500.852    495.668    496.348    495.668
 44.470    455.000    501.370    -46.370    495.572    500.673    495.572    496.269    495.572
 44.570    523.000    501.240     21.760    495.478    500.526    495.478    496.193    495.478
 44.670    488.000    501.138    -13.138    495.385    500.405    495.385    496.120    495.385
 44.770    477.000    501.060    -24.060    495.294    500.306    495.294    496.049    495.294
 44.870    516.430    501.004     15.426    495.205    500.228    495.205    495.981    495.205
 44.970    474.000    500.967    -26.967    495.117    500.168    495.117    495.916    495.117
 45.070    481.000    500.948    -19.948    495.031    500.126    495.031    495.854    495.031
 45.170    530.837    500.948     29.890    494.946    500.100    494.946    495.795    494.946
 45.270    506.000    500.965      5.035    494.863    500.089    494.863    495.739    494.863
 45.370    549.000    500.999     48.001    494.782    500.095    494.782    495.686    494.782
 45.470    499.000    501.051     -2.051    494.702    500.116    494.702    495.637    494.702
 45.570    517.000    501.121     15.879    494.624    500.154    494.624    495.592    494.624
 45.670    481.000    501.211    -20.211    494.548    500.208    494.548    495.550    494.548
 45.770    481.000    501.321    -20.321    494.473    500.280    494.473    495.513    494.473
 45.870    455.327    501.453    -46.126    494.399    500.372    494.399    495.480    494.399
 45.970    497.000    501.609     -4.609    494.327    500.485    494.327    495.451    494.327
 46.070    495.000    501.792     -6.792    494.257    500.621    494.257    495.428    494.257
 46.170    504.205    502.005      2.200    494.189    500.784    494.189    495.410    494.189
 46.270    454.000    502.253    -48.253    494.121    500.977    494.121    495.397    494.121
 46.370    474.000    502.540    -28.540    494.056    501.205    494.056    495.391    494.056
 46.470    461.530    502.875    -41.345    493.992    501.475    493.992    495.392    493.992
 46.570    482.000    503.266    -21.266    493.930    501.795    493.930    495.400    493.930
 46.670    500.000    503.728     -3.728    493.869    502.179    493.869    495.416    493.869
 46.770    479.756    504.282    -24.526    493.810    502.649    493.810    495.441    493.810
 46.870    513.000    504.973      8.027    493.752    503.246    493.752    495.477    493.752
 46.970    496.000    505.894     -9.894    493.696    504.064    493.696    495.524    493.696
 47.070    486.000    507.248    -21.248    493.641    505.302    493.641    495.584    493.641
 47.170    474.072    509.427    -35.355    493.588    507.352    493.588    495.659    493.588
 47.270    553.000    513.097     39.903    493.536    510.876    493.536    495.750    493.536
 47.370    472.000    519.161    -47.161    493.486    516.774    493.486    495.862    493.486
 47.470    549.363    528.501     20.862    493.438    525.925    493.438    495.995    493.438
 47.570    533.104    541.422     -8.318    493.391    538.630    493.391    496.155    493.391
 47.670    567.335    556.952     10.383    493.346    553.912    493.346    496.347    493.346
 47.770    611.000    572.270     38.730    493.302    568.946    493.302    496.576    493.302
 47.870    558.251    582.881    -24.630    493.259    579.235    493.259    496.851    493.259
 47.970    648.000    584.696     63.304    493.218    580.681    493.218    497.180    493.218
 48.070    576.000    577.358     -1.358    493.179    572.912    493.179    497.578    493.179
 48.170    534.701    564.628    -29.927    493.141    559.669    493.141    498.063    493.141
 48.270    567.000    551.231     15.769    493.104    545.645    493.104    498.665    493.104
 48.370    545.000    540.386      4.614    493.069    534.008    493.069    499.430    493.069
 48.470    491.794    533.449    -41.654    493.036    526.031    493.036    500.443    493.036
 48.570    494.386    530.460    -36.074    493.004    521.604    493.004    501.852    493.004
 48.670    518.000    530.901    -12.901    492.973    519.953    492.973    503.916    492.973
 48.770    515.202    534.338    -19.136    492.944    520.229    492.944    507.049    492.944
 48.870    540.000    540.769     -0.769    492.916    521.829    492.916    511.852    492.916
 48.970    530.000    550.664    -20.664    492.890    524.469    492.890    519.081    492.890
 49.070    527.085    564.797    -37.712    492.865    528.161    492.865    529.496    492.865
 49.170    554.000    584.034    -30.034    492.842    533.279    492.842    543.591    492.842
 49.270    638.000    609.311     28.689    492.820    540.935    492.820    561.186    492.820
 49.370    656.000    642.253     13.747    492.799    554.097    492.799    580.941    492.799
 49.470    670.000    687.020    -17.020    492.780    579.941    492.780    599.835    492.780
 49.570    808.469    753.822     54.648    492.762    633.381    492.762    613.159    492.762
 49.670    908.068    863.279     44.790    492.746    739.717    492.746    616.231    492.746
 49.770   1067.000   1046.445     20.555    492.731    931.323    492.731    607.733    492.731
 49.870   1357.000   1331.224     25.776    492.717   1232.814    492.717    590.964    492.717
 49.970   1773.000   1714.112     58.888    492.705   1635.565    492.705    571.072    492.705
 50.070   2214.246   2133.736     80.510    492.694   2074.222    492.694    552.063    492.694
 50.170   2393.000   2468.435    -75.435    492.685   2424.993    492.685    536.078    492.685
 50.270   2535.000   2579.311    -44.311    492.677   2548.255    492.677    523.810    492.677
 50.370   2400.000   2406.477     -6.477    492.670   2384.271    492.670    515.047    492.670
 50.470   1998.000   2027.762    -29.762    492.665   2011.515    492.665    509.114    492.665
 50.570   1567.000   1586.821    -19.821    492.661   1574.440    492.661    505.223    492.661
 50.670   1164.000   1200.273    -36.273    492.658   1190.386    492.658    502.682    492.658
 50.770    879.000    923.517    -44.517    492.657    915.285    492.657    500.982    492.657
 50.870    709.249    757.264    -48.015    492.657    750.193    492.657    499.789    492.657
 50.970    640.237    672.286    -32.049    492.658    666.082    492.658    498.907    492.658
 51.070    602.234    633.771    -31.537    492.661    628.246    492.661    498.224    492.661
 51.170    610.000    614.800     -4.800    492.665    609.822    492.665    497.677    492.665
 51.270    625.865    600.229     25.637    492.670    595.699    492.670    497.232    492.670
 51.370    590.000    585.135      4.865    492.677    580.975    492.677    496.863    492.677
 51.470    568.000    570.036     -2.036    492.685    566.184    492.685    496.556    492.685
 51.570    545.419    556.652    -11.234    492.694    553.061    492.694    496.300    492.694
 51.670    505.769    546.129    -40.360    492.704    542.758    492.704    496.085    492.704
 51.770    552.000    538.726     13.274    492.716    535.544    492.716    495.904    492.716
 51.870    525.000    534.056     -9.056    492.728    531.035    492.728    495.754    492.728
 51.970    547.000    531.462     15.538    492.743    528.580    492.743    495.628    492.743
 52.070    561.000    530.335     30.665    492.758    527.571    492.758    495.524    492.758
 52.170    583.000    530.273     52.727    492.774    527.611    492.774    495.438    492.774
 52.270    538.000    531.109      6.891    492.792    528.534    492.792    495.369    492.792
 52.370    543.000    532.918     10.082    492.811    530.415    492.811    495.315    492.811
 52.470    549.000    536.086     12.914    492.831    533.645    492.831    495.274    492.831
 52.570    493.062    541.558    -48.496    492.853    539.167    492.853    495.244    492.853
 52.670    527.505    551.259    -23.754    492.875    548.908    492.875    495.225    492.875
 52.770    566.311    568.641     -2.330    492.899    566.322    492.899    495.216    492.899
 52.870    635.000    598.984     36.016    492.924    596.688    492.924    495.216    492.924
 52.970    677.000    648.852     28.148    492.950    646.571    492.950    495.225    492.950
 53.070    694.882    724.067    -29.186    492.978    721.795    492.978    495.241    492.978
 53.170    866.065    826.178     39.888    493.006    823.910    493.006    495.265    493.006
 53.270   1037.000    948.346     88.654    493.036    946.080    493.036    495.296    493.036
 53.370   1029.158   1072.147    -42.989    493.066   1069.882    493.066    495.335    493.066
 53.470   1148.000   1167.456    -19.456    493.098   1165.191    493.098    495.380    493.098
 53.570   1184.000   1201.206    -17.206    493.131   1198.936    493.131    495.431    493.131
 53.670   1124.000   1159.015    -35.015    493.165   1156.729    493.165    495.489    493.165
 53.770   1069.000   1058.605     10.395    493.201   1056.289    493.201    495.554    493.201
 53.870    898.000    933.917    -35.917    493.237    931.562    493.237    495.625    493.237
 53.970    824.000    813.989     10.011    493.274    811.586    493.274    495.703    493.274
 54.070    729.000    715.685     13.315    493.313    713.228    493.313    495.788    493.313
 54.170    668.000    644.554     23.446    493.352    642.039    493.352    495.880    493.352
 54.270    625.000    598.251     26.749    493.393    595.673    493.393    495.978    493.393
 54.370    597.000    570.658     26.342    493.434    568.013    493.434    496.085    493.434
 54.470    565.000    555.273      9.727    493.477    552.555    493.477    496.199    493.477
 54.570    558.447    547.029     11.418    493.521    544.231    493.521    496.321    493.521
 54.670    554.000    542.695     11.305    493.566    539.811    493.566    496.451    493.566
 54.770    540.000    540.499     -0.499    493.611    537.521    493.611    496.591    493.611
 54.870    510.502    539.580    -29.078    493.658    536.499    493.658    496.741    493.658
 54.970    542.000    539.555      2.445    493.706    536.361    493.706    496.900    493.706
 55.070    556.000    540.271     15.729    493.755    536.955    493.755    497.071    493.755
 55.170    565.000    541.683     23.317    493.804    538.234    493.804    497.254    493.804
 55.270    580.403    543.809     36.594    493.855    540.214    493.855    497.450    493.855
 55.370    501.242    546.717    -45.475    493.907    542.963    493.907    497.661    493.907
 55.470    555.000    550.540      4.460    493.960    546.612    493.960    497.887    493.960
 55.570    569.705    555.523     14.182    494.013    551.406    494.013    498.130    494.013
 55.670    539.000    562.162    -23.162    494.068    557.836    494.068    498.393    494.068
 55.770    598.000    571.505     26.495    494.123    566.951    494.123    498.676    494.123
 55.870    620.198    585.788     34.410    494.180    580.981    494.180    498.983    494.180
 55.970    647.000    609.509     37.491    494.237    604.422    494.237    499.316    494.237
 56.070    692.268    650.872     41.396    494.295    645.473    494.295    499.679    494.295
 56.170    698.000    722.988    -24.988    494.354    717.240    494.354    500.075    494.354
 56.270    846.000    843.486      2.514    494.414    837.347    494.414    500.509    494.414
 56.370   1043.000   1030.842     12.158    494.475   1024.266    494.475    500.986    494.475
 56.470   1231.000   1296.521    -65.521    494.537   1289.465    494.537    501.513    494.537
 56.570   1560.000   1634.276    -74.276    494.599   1626.696    494.599    502.097    494.599
 56.670   2064.142   2010.286     53.857    494.663   2002.141    494.663    502.747    494.663
 56.770   2320.476   2358.953    -38.478    494.727   2350.199    494.727    503.474    494.727
 56.870   2585.000   2592.110     -7.110    494.792   2582.687    494.792    504.292    494.792
 56.970   2609.000   2633.294    -24.294    494.858   2623.102    494.858    505.218    494.858
 57.070   2544.000   2467.145     76.855    494.925   2456.027    494.925    506.272    494.925
 57.170   2176.000   2152.472     23.528    494.992   2140.229    494.992    507.480    494.992
 57.270   1842.000   1779.710     62.290    495.060   1766.114    495.060    508.879    495.060
 57.370   1443.805   1425.440     18.365    495.129   1410.229    495.129    510.519    495.129
 57.470   1192.000   1135.262     56.738    495.199   1118.114    495.199    512.477    495.199
 57.570    939.000    924.718     14.282    495.270    905.194    495.270    514.879    495.270
 57.670    819.137    787.828     31.309    495.341    765.283    495.341    517.938    495.341
 57.770    745.000    708.200     36.800    495.413    681.627    495.413    522.015    495.413
 57.870    669.000    668.564      0.436    495.486    636.357    495.486    527.707    495.486
 57.970    687.000    656.361     30.639    495.560    615.984    495.560    535.941    495.560
 58.070    662.000    665.438     -3.438    495.634    613.021    495.634    548.047    495.634
 58.170    665.522    695.186    -29.663    495.709    625.138    495.709    565.743    495.709
 58.270    722.000    748.387    -26.387    495.785    653.184    495.785    590.963    495.785
 58.370    787.000    828.536    -41.536    495.861    698.893    495.861    625.467    495.861
 58.470    955.000    937.072     17.928    495.938    762.709    495.938    670.251    495.938
 58.570   1081.000   1070.892     10.108    496.016    842.052    496.016    724.795    496.016
 58.670   1213.000   1220.512     -7.512    496.094    930.313    496.094    786.230    496.094
 58.770   1339.000   1369.946    -30.946    496.173   1017.587    496.173    848.477    496.173
 58.870   1488.000   1499.823    -11.823    496.253   1094.252    496.253    901.789    496.253
 58.970   1598.957   1591.339      7.618    496.333   1153.452    496.333    934.212    496.333
 59.070   1721.000   1628.717     92.283    496.414   1188.646    496.414    936.506    496.414
 59.170   1616.086   1604.283     11.803    496.495   1192.877    496.495    907.946    496.495
 59.270   1449.449   1525.669    -76.220    496.577   1165.414    496.577    856.884    496.577
 59.370   1481.659   1415.574     66.085    496.660   1116.956    496.660    795.317    496.660
 59.470   1284.000   1301.049    -17.049    496.743   1064.327    496.743    733.477    496.743
 59.570   1166.000   1204.433    -38.433    496.827   1023.299    496.827    677.935    496.827
 59.670   1130.000   1142.388    -12.388    496.911   1007.293    496.911    631.935    496.911
 59.770   1125.000   1127.245     -2.245    496.996   1027.858    496.996    596.260    496.996
 59.870   1142.000   1164.826    -22.826    497.081   1091.658    497.081    570.071    497.081
 59.970   1263.000   1249.933     13.067    497.167   1195.202    497.167    551.667    497.167
 60.070   1463.000   1363.541     99.459    497.254   1321.413    497.254    539.110    497.254
 60.170   1494.000   1473.579     20.421    497.341   1439.995    497.341    530.636    497.341
 60.270   1620.483   1541.129     79.354    497.428   1513.423    497.428    524.860    497.428
 60.370   1573.000   1534.887     38.113    497.516   1511.369    497.516    520.804    497.516
 60.470   1493.878   1448.477     45.401    497.604   1428.073    497.604    517.837    497.604
 60.570   1309.741   1303.563      6.178    497.693   1285.566    497.693    515.575    497.693
 60.670   1190.000   1134.666     55.334    497.782   1118.583    497.782    513.796    497.782
 60.770    970.722    972.743     -2.021    497.872    958.203    497.872    512.374    497.872
 60.870    822.000    837.755    -15.755    497.962    824.456    497.962    511.241    497.962
 60.970    728.780    737.907     -9.127    498.053    725.584    498.053    510.363    498.053
 61.070    694.293    672.432     21.861    498.144    660.841    498.144    509.723    498.144
 61.170    640.000    636.028      3.972    498.235    624.932    498.235    509.317    498.235
 61.270    616.408    623.159     -6.751    498.327    612.323    498.327    509.141    498.327
 61.370    635.000    630.929      4.071    498.419    620.130    498.419    509.187    498.419
 61.470    632.000    660.082    -28.082    498.512    649.116    498.512    509.431    498.512
 61.570    693.261    714.184    -20.923    498.605    702.897    498.605    509.823    498.605
 61.670    852.000    797.273     54.727    498.698    785.594    498.698    510.279    498.698
 61.770    868.885    910.432    -41.546    498.792    898.416    498.792    510.678    498.792
 61.870   1027.000   1048.187    -21.187    498.886   1036.046    498.886    510.868    498.886
 61.970   1159.000   1195.933    -36.933    498.980   1184.012    498.980    510.723    498.980
 62.070   1315.450   1329.576    -14.127    499.074   1318.262    499.074    510.207    499.074
 62.170   1325.000   1419.141    -94.141    499.169   1408.749    499.169    509.399    499.169
 62.270   1464.743   1438.979     25.764    499.264   1429.680    499.264    508.437    499.264
 62.370   1363.000   1382.133    -19.133    499.360   1373.956    499.360    507.453    499.360
 62.470   1201.767   1265.479    -63.712    499.455   1258.349    499.455    506.539    499.455
 62.570   1110.000   1118.725     -8.725    499.551   1112.509    499.551    505.748    499.551
 62.670    961.228    970.191     -8.963    499.647    964.734    499.647    505.101    499.647
 62.770    862.418    839.684     22.734    499.744    834.836    499.744    504.596    499.744
 62.870    744.000    737.091      6.909    499.841    732.719    499.841    504.217    499.841
 62.970    698.000    663.839     34.161    499.937    659.836    499.937    503.943    499.937
 63.070    631.000    615.842     15.158    500.034    612.128    500.034    503.748    500.034
 63.170    614.000    586.730     27.270    500.132    583.247    500.132    503.612    500.132
 63.270    523.270    570.317    -47.048    500.229    567.023    500.229    503.519    500.229
 63.370    554.626    561.916     -7.291    500.327    558.782    500.327    503.455    500.327
 63.470    557.000    558.678     -1.678    500.424    555.682    500.424    503.414    500.424
 63.570    587.000    559.425     27.575    500.522    556.550    500.522    503.388    500.522
 63.670    570.000    564.344      5.656    500.620    561.576    500.620    503.376    500.620
 63.770    601.000    574.711     26.289    500.719    572.039    500.719    503.372    500.719
 63.870    603.105    592.610     10.494    500.817    590.022    500.817    503.378    500.817
 63.970    632.000    620.497     11.503    500.915    617.980    500.915    503.393    500.915
 64.070    712.000    660.491     51.509    501.014    658.036    501.014    503.415    501.014
 64.170    731.000    713.414     17.586    501.112    711.011    501.112    503.442    501.112
 64.270    751.018    777.705    -26.686    501.211    775.347    501.211    503.476    501.211
 64.370    882.508    848.506     34.002    501.310    846.189    501.310    503.515    501.310
 64.470    986.000    917.299     68.701    501.408    915.025    501.408    503.558    501.408
 64.570   1039.292    972.850     66.442    501.507    970.623    501.507    503.606    501.507
 64.670   1013.000   1004.391      8.609    501.606   1002.217    501.606    503.657    501.606
 64.770   1021.000   1006.079     14.921    501.705   1003.965    501.705    503.712    501.705
 64.870   1012.000    979.257     32.743    501.804    977.207    501.804    503.771    501.804
 64.970    959.000    931.128     27.872    501.903    929.142    501.903    503.833    501.903
 65.070    861.000    871.816    -10.816    502.002    869.891    502.002    503.898    502.002
 65.170    846.000    811.043     34.957    502.101    809.171    502.101    503.966    502.101
 65.270    713.575    755.570    -41.995    502.200    753.744    502.200    504.036    502.200
 65.370    674.000    708.482    -34.482    502.298    706.693    502.298    504.109    502.298
 65.470    694.929    670.075     24.854    502.397    668.313    502.397    504.184    502.397
 65.570    607.000    639.362    -32.362    502.496    637.621    502.496    504.261    502.496
 65.670    582.000    615.163    -33.163    502.595    613.438    502.595    504.341    502.595
 65.770    604.133    596.429      7.704    502.693    594.716    502.693    504.423    502.693
 65.870    609.768    582.254     27.514    502.792    580.550    502.792    504.507    502.792
 65.970    554.000    571.870    -17.870    502.890    570.174    502.890    504.592    502.890
 66.070    574.000    564.642      9.358    502.988    562.953    502.988    504.680    502.988
 66.170    545.000    560.036    -15.036    503.087    558.354    503.087    504.770    503.087
 66.270    570.000    557.600     12.400    503.185    555.923    503.185    504.861    503.185
 66.370    486.000    556.956    -70.956    503.283    555.284    503.283    504.954    503.283
 66.470    530.000    557.837    -27.837    503.380    556.169    503.380    505.049    503.380
 66.570    563.000    560.138      2.862    503.478    558.470    503.478    505.145    503.478
 66.670    570.000    563.994      6.006    503.575    562.327    503.575    505.244    503.575
 66.770    572.420    569.936      2.484    503.672    568.266    503.672    505.344    503.672
 66.870    588.000    579.140      8.860    503.770    577.465    503.770    505.445    503.770
 66.970    638.829    593.830     44.999    503.866    592.148    503.866    505.549    503.866
 67.070    630.796    617.796     13.000    503.963    616.104    503.963    505.654    503.963
 67.170    606.523    656.879    -50.357    504.059    655.174    504.059    505.762    504.059
 67.270    741.000    719.130     21.870    504.156    717.408    504.156    505.871    504.156
 67.370    821.000    814.188      6.812    504.251    812.447    504.251    505.982    504.251
 67.470    912.000    951.498    -39.498    504.347    949.736    504.347    506.095    504.347
 67.570   1166.658   1137.260     29.397    504.443   1135.479    504.443    506.211    504.443
 67.670   1378.000   1370.594      7.406    504.538   1368.795    504.538    506.328    504.538
 67.770   1626.000   1639.921    -13.921    504.633   1638.113    504.633    506.448    504.633
 67.870   1867.000   1920.708    -53.708    504.727   1918.901    504.727    506.570    504.727
 67.970   2176.000   2175.496      0.504    504.821   2173.702    504.821    506.696    504.821
 68.070   2356.000   2358.157     -2.157    504.915   2356.387    504.915    506.823    504.915
 68.170   2394.000   2426.475    -32.475    505.009   2424.732    505.009    506.954    505.009
 68.270   2239.000   2362.289   -123.289    505.102   2360.561    505.102    507.088    505.102
 68.370   2093.000   2182.850    -89.850    505.195   2181.111    505.195    507.226    505.195
 68.470   1989.000   1929.943     59.057    505.288   1928.160    505.288    507.367    505.288
 68.570   1623.824   1649.765    -25.942    505.380   1647.909    505.380    507.512    505.380
 68.670   1402.989   1380.102     22.887    505.472   1378.149    505.472    507.661    505.472
 68.770   1110.192   1145.883    -35.691    505.563   1143.821    505.563    507.816    505.563
 68.870    911.755    959.045    -47.291    505.654    956.869    505.654    507.975    505.654
 68.970    849.000    820.742     28.258    505.745    818.450    505.745    508.140    505.745
 69.070    719.943    724.929     -4.986    505.835    722.524    505.835    508.311    505.835
 69.170    671.845    662.215      9.631    505.925    659.696    505.925    508.490    505.925
 69.270    662.688    622.931     39.757    506.015    620.300    506.015    508.675    506.015
 69.370    626.000    598.962     27.038    506.104    596.215    506.104    508.869    506.104
 69.470    593.000    584.385      8.615    506.192    581.517    506.192    509.073    506.192
 69.570    609.000    575.327     33.673    506.280    572.329    506.280    509.287    506.280
 69.670    576.000    569.475      6.525    506.368    566.337    506.368    509.512    506.368
 69.770    578.641    565.549     13.092    506.455    562.258    506.455    509.751    506.455
 69.870    586.406    562.876     23.529    506.541    559.417    506.541    510.004    506.541
 69.970    564.000    561.118      2.882    506.628    557.473    506.628    510.274    506.628
 70.070    594.819    560.109     34.710    506.713    556.260    506.713    510.563    506.713
 70.170    542.741    559.779    -17.038    506.798    555.704    506.798    510.874    506.798
 70.270    506.000    560.122    -54.122    506.883    555.796    506.883    511.208    506.883
 70.370    548.529    561.199    -12.670    506.967    556.593    506.967    511.572    506.967
 70.470    566.233    563.168      3.065    507.050    558.249    507.050    511.967    507.050
 70.570    574.000    566.361      7.639    507.133    561.089    507.133    512.400    507.133
 70.670    588.000    571.401     16.599    507.215    565.732    507.215    512.878    507.215
 70.770    534.000    579.396    -45.396    507.297    573.276    507.297    513.408    507.297
 70.870    605.000    592.179     12.821    507.378    585.544    507.378    514.000    507.378
 70.970    564.000    612.565    -48.565    507.459    605.334    507.459    514.670    507.459
 71.070    683.736    644.513     39.222    507.539    636.583    507.539    515.439    507.539
 71.170    661.000    693.026    -32.026    507.618    684.258    507.618    516.340    507.618
 71.270    760.000    763.621     -3.621    507.697    753.821    507.697    517.430    507.697
 71.370    837.536    861.233    -23.696    507.775    850.116    507.775    518.799    507.775
 71.470    985.000    988.618     -3.618    507.853    975.749    507.853    520.597    507.853
 71.570   1190.277   1144.528     45.749    507.929   1129.238    507.929    523.062    507.929
 71.670   1262.879   1322.077    -59.198    508.006   1303.342    508.006    526.551    508.006
 71.770   1446.000   1507.800    -61.800    508.081   1484.090    508.081    531.575    508.081
 71.870   1693.989   1681.747     12.241    508.156   1650.865    508.156    538.810    508.156
 71.970   1848.000   1819.499     28.501    508.230   1778.437    508.230    549.068    508.230
 72.070   1818.000   1897.701    -79.701    508.303   1842.585    508.303    563.220    508.303
 72.170   1928.000   1903.077     24.923    508.376   1829.251    508.376    582.042    508.376
 72.270   1812.000   1839.217    -27.217    508.448   1741.545    508.448    606.004    508.448
 72.370   1782.000   1724.557     57.443    508.519   1597.982    508.519    635.020    508.519
 72.470   1628.000   1583.540     44.460    508.590   1423.878    508.590    668.209    508.590
 72.570   1407.000   1438.296    -31.296    508.660   1243.244    508.660    703.693    508.660
 72.670   1388.000   1304.289     83.711    508.729   1074.547    508.729    738.467    508.729
 72.770   1236.863   1189.073     47.790    508.797    929.441    508.797    768.431    508.797
 72.870   1039.000   1093.095    -54.095    508.865    813.088    508.865    788.876    508.865
 72.970    996.000   1012.266    -16.266    508.931    725.417    508.931    795.786    508.931
 73.070    882.446    941.527    -59.081    508.997    662.900    508.997    787.629    508.997
 73.170    800.000    877.525    -77.525    509.063    620.374    509.063    766.217    509.063
 73.270    750.000    819.081    -69.081    509.127    592.498    509.127    735.713    509.127
 73.370    707.000    766.288    -59.288    509.190    574.660    509.190    700.822    509.190
 73.470    708.324    719.660    -11.336    509.253    563.358    509.253    665.558    509.253
 73.570    616.000    679.699    -63.699    509.315    556.198    509.315    632.819    509.315
 73.670    654.000    646.692      7.308    509.376    551.692    509.376    604.381    509.376
 73.770    565.000    620.589    -55.589    509.437    548.993    509.437    581.039    509.437
 73.870    572.000    600.967    -28.967    509.496    547.656    509.496    562.814    509.496
 73.970    645.000    587.084     57.916    509.554    547.451    509.554    549.199    509.554
 74.070    528.077    577.990    -49.914    509.612    548.221    509.612    539.396    509.612
 74.170    579.000    572.646      6.354    509.669    549.798    509.669    532.536    509.669
 74.270    613.000    570.008     42.992    509.725    551.943    509.725    527.815    509.725
 74.370    551.312    569.080    -17.768    509.780    554.319    509.780    524.573    509.780
 74.470    581.000    568.933     12.067    509.834    556.491    509.834    522.314    509.834
 74.570    573.886    568.734      5.153    509.887    557.970    509.887    520.692    509.887
 74.670    614.483    567.818     46.665    509.940    558.319    509.940    519.482    509.940
 74.770    602.042    565.827     36.215    509.991    557.322    509.991    518.539    509.991
 74.870    658.000    562.781     95.219    510.041    555.086    510.041    517.777    510.041
 74.970    635.000    559.016     75.984    510.091    551.999    510.091    517.143    510.091
 75.070    572.000    555.021     16.979    510.139    548.584    510.139    516.606    510.139
 75.170    569.971    551.313     18.658    510.187    545.381    510.187    516.143    510.187
 75.270    573.000    548.389     24.611    510.234    542.897    510.234    515.742    510.234
 75.370    584.968    546.719     38.250    510.279    541.618    510.279    515.391    510.279
 75.470    588.000    546.774     41.226    510.324    542.020    510.324    515.084    510.324
 75.570    579.828    549.044     30.784    510.368    544.598    510.368    514.813    510.368
 75.670    556.000    554.034      1.966    510.411    549.864    510.411    514.573    510.411
 75.770    574.853    562.224     12.629    510.452    558.301    510.452    514.361    510.452
 75.870    584.000    573.974     10.026    510.493    570.273    510.493    514.172    510.493
 75.970    589.000    589.384     -0.384    510.533    585.883    510.533    514.004    510.533
 76.070    599.000    608.134     -9.134    510.571    604.813    510.571    513.854    510.571
 76.170    599.497    629.341    -29.844    510.609    626.184    510.609    513.720    510.609
 76.270    649.000    651.480     -2.480    510.646    648.472    510.646    513.600    510.646
 76.370    685.055    672.384     12.670    510.681    669.514    510.681    513.492    510.681
 76.470    740.000    689.406     50.594    510.716    686.664    510.716    513.394    510.716
 76.570    669.334    699.846    -30.512    510.749    697.226    510.749    513.306    510.749
 76.670    690.000    701.728    -11.728    510.782    699.223    510.782    513.227    510.782
 76.770    671.000    694.606    -23.606    510.813    692.211    510.813    513.155    510.813
 76.870    688.000    679.789      8.211    510.843    677.498    510.843    513.090    510.843
 76.970    648.514    659.744    -11.230    510.872    657.549    510.872    513.031    510.872
 77.070    615.000    637.215    -22.215    510.901    635.110    510.901    512.977    510.901
 77.170    606.000    614.612     -8.612    510.928    612.591    510.928    512.927    510.928
 77.270    564.545    593.739    -29.194    510.953    591.795    510.953    512.882    510.953
 77.370    567.000    575.727     -8.727    510.978    573.853    510.978    512.841    510.978
 77.470    537.000    561.077    -24.077    511.002    559.268    511.002    512.803    511.002
 77.570    562.000    549.777     12.223    511.024    548.029    511.024    512.768    511.024
 77.670    522.000    541.469    -19.469    511.046    539.775    511.046    512.735    511.046
 77.770    544.013    535.607      8.406    511.066    533.965    511.066    512.705    511.066
 77.870    499.035    531.608    -32.573    511.085    530.014    511.085    512.677    511.085
 77.970    509.000    528.943    -19.943    511.103    527.394    511.103    512.651    511.103
 78.070    569.291    527.183     42.107    511.120    525.676    511.120    512.626    511.120
 78.170    483.626    526.009    -42.383    511.136    524.540    511.136    512.603    511.136
 78.270    522.168    525.179     -3.011    511.150    523.747    511.150    512.581    511.150
 78.370    504.850    524.631    -19.781    511.164    523.233    511.164    512.561    511.164
 78.470    547.000    524.251     22.749    511.176    522.884    511.176    512.541    511.176
 78.570    535.214    523.993     11.222    511.187    522.656    511.187    512.523    511.187
 78.670    514.161    523.838     -9.677    511.197    522.528    511.197    512.505    511.197
 78.770    508.058    523.784    -15.727    511.205    522.500    511.205    512.488    511.205
 78.870    540.000    523.842     16.158    511.213    522.581    511.213    512.473    511.213
 78.970    524.000    524.028     -0.028    511.219    522.787    511.219    512.458    511.219
 79.070    557.910    524.367     33.543    511.224    523.144    511.224    512.445    511.224
 79.170    525.000    524.888      0.112    511.227    523.680    511.227    512.434    511.227
 79.270    559.413    525.626     33.788    511.230    524.428    511.230    512.426    511.230
 79.370    534.000    526.609      7.391    511.231    525.417    511.231    512.421    511.231
 79.470    541.000    527.868     13.132    511.231    526.676    511.231    512.421    511.231
 79.570    541.000    529.439     11.561    511.230    528.239    511.230    512.427    511.230
 79.670    550.000    531.366     18.634    511.228    530.149    511.228    512.440    511.228
 79.770    544.381    533.720     10.661    511.224    532.476    511.224    512.463    511.224
 79.870    488.000    536.617    -48.617    511.219    535.335    511.219    512.496    511.219
 79.970    562.026    540.233     21.793    511.213    538.902    511.213    512.539    511.213
 80.070    516.929    544.837    -27.908    511.206    543.444    511.206    512.593    511.206
 80.170    565.000    550.798     14.202    511.197    549.335    511.197    512.655    511.197
 80.270    550.734    558.582     -7.848    511.187    557.043    511.187    512.724    511.187
 80.370    575.000    568.684      6.316    511.176    567.065    511.176    512.794    511.176
 80.470    572.247    581.515     -9.267    511.163    579.821    511.163    512.859    511.163
 80.570    543.000    597.278    -54.278    511.150    595.522    511.150    512.911    511.150
 80.670    624.933    615.856      9.077    511.135    614.059    511.135    512.942    511.135
 80.770    631.435    636.731     -5.297    511.118    634.923    511.118    512.942    511.118
 80.870    704.106    658.966     45.140    511.101    657.180    511.101    512.909    511.101
 80.970    676.000    681.261     -5.261    511.082    679.528    511.082    512.843    511.082
 81.070    676.000    702.131    -26.131    511.061    700.478    511.061    512.750    511.061
 81.170    699.489    720.143    -20.654    511.040    718.587    511.040    512.638    511.040
 81.270    725.926    734.102     -8.176    511.017    732.651    511.017    512.515    511.017
 81.370    700.000    743.149    -43.149    510.993    741.804    510.993    512.390    510.993
 81.470    741.000    746.824     -5.824    510.967    745.580    510.967    512.268    510.967
 81.570    711.000    745.109    -34.109    510.940    743.958    510.940    512.153    510.940
 81.670    684.580    738.364    -53.784    510.912    737.294    510.912    512.047    510.912
 81.770    717.000    727.235    -10.235    510.883    726.232    510.883    511.951    510.883
 81.870    747.000    712.642     34.358    510.852    711.695    510.852    511.865    510.852
 81.970    699.616    695.758      3.858    510.820    694.854    510.820    511.789    510.820
 82.070    676.000    677.826     -1.826    510.786    676.957    510.786    511.720    510.786
 82.170    669.000    659.891      9.109    510.751    659.046    510.751    511.657    510.751
 82.270    670.000    642.625     27.375    510.715    641.798    510.715    511.599    510.715
 82.370    614.871    626.353    -11.483    510.678    625.540    510.678    511.545    510.678
 82.470    580.000    611.202    -31.202    510.639    610.397    510.639    511.493    510.639
 82.570    595.000    597.268     -2.268    510.598    596.468    510.598    511.442    510.598
 82.670    539.963    584.706    -44.742    510.557    583.908    510.557    511.392    510.557
 82.770    548.000    573.718    -25.718    510.514    572.921    510.514    511.342    510.514
 82.870    519.482    564.510    -45.028    510.470    563.712    510.470    511.291    510.470
 82.970    534.000    557.252    -23.252    510.424    556.452    510.424    511.241    510.424
 83.070    574.565    552.061     22.504    510.377    551.258    510.377    511.189    510.377
 83.170    531.000    548.990    -17.990    510.328    548.184    510.328    511.137    510.328
 83.270    564.000    548.007     15.993    510.279    547.196    510.279    511.084    510.279
 83.370    547.000    548.977     -1.977    510.227    548.161    510.227    511.030    510.227
 83.470    545.000    551.645     -6.645    510.175    550.824    510.175    510.975    510.175
 83.570    527.000    555.634    -28.634    510.121    554.807    510.121    510.920    510.121
 83.670    519.000    560.440    -41.440    510.065    559.608    510.065    510.863    510.065
 83.770    597.000    565.457     31.543    510.009    564.621    510.009    510.805    510.009
 83.870    543.000    570.010    -27.010    509.951    569.170    509.951    510.746    509.951
 83.970    611.011    573.412     37.599    509.891    572.569    509.891    510.686    509.891
 84.070    561.000    575.075    -14.075    509.830    574.233    509.830    510.625    509.830
 84.170    557.000    574.652    -17.652    509.768    573.810    509.768    510.563    509.768
 84.270    605.091    572.126     32.965    509.704    571.288    509.704    510.500    509.704
 84.370    539.000    567.810    -28.810    509.639    566.975    509.639    510.436    509.639
 84.470    565.000    562.225      2.775    509.573    561.394    509.573    510.370    509.573
 84.570    565.000    555.957      9.043    509.505    555.131    509.505    510.304    509.505
 84.670    554.823    549.555      5.268    509.436    548.732    509.436    510.236    509.436
 84.770    559.234    543.465     15.769    509.365    542.645    509.365    510.168    509.365
 84.870    552.000    538.004     13.996    509.293    537.186    509.293    510.098    509.293
 84.970    533.000    533.362     -0.362    509.220    532.545    509.220    510.027    509.220
 85.070    571.308    529.606     41.702    509.145    528.788    509.145    509.955    509.145
 85.170    530.000    526.711      3.289    509.069    525.891    509.069    509.882    509.069
 85.270    508.000    524.589    -16.589    508.991    523.767    508.991    509.808    508.991
 85.370    502.000    523.123    -21.123    508.912    522.298    508.912    509.732    508.912
 85.470    536.760    522.193     14.566    508.832    521.364    508.832    509.656    508.832
 85.570    493.000    521.697    -28.697    508.750    520.863    508.750    509.578    508.750
 85.670    522.000    521.560      0.440    508.666    520.722    508.666    509.500    508.666
 85.770    510.680    521.749    -11.068    508.582    520.905    508.582    509.420    508.582
 85.870    491.000    522.266    -31.266    508.496    521.416    508.496    509.339    508.496
 85.970    546.000    523.161     22.839    508.408    522.304    508.408    509.257    508.408
 86.070    507.598    524.520    -16.923    508.319    523.656    508.319    509.175    508.319
 86.170    507.000    526.474    -19.474    508.229    525.600    508.229    509.091    508.229
 86.270    573.000    529.184     43.816    508.138    528.300    508.138    509.006    508.138
 86.370    553.175    532.830     20.345    508.045    531.934    508.045    508.920    508.045
 86.470    518.218    537.597    -19.379    507.950    536.687    507.950    508.832    507.950
 86.570    536.000    543.638     -7.638    507.854    542.713    507.854    508.744    507.854
 86.670    528.000    551.046    -23.046    507.757    550.104    507.757    508.655    507.757
 86.770    589.000    559.810     29.190    507.658    558.849    507.658    508.565    507.658
 86.870    598.000    569.777     28.223    507.558    568.795    507.558    508.474    507.558
 86.970    597.000    580.622     16.378    507.457    579.619    507.457    508.382    507.457
 87.070    618.751    591.838     26.913    507.354    590.813    507.354    508.290    507.354
 87.170    629.000    602.735     26.265    507.250    601.689    507.250    508.195    507.250
 87.270    626.000    612.477     13.523    507.144    611.413    507.144    508.099    507.144
 87.370    633.734    620.162     13.572    507.037    619.082    507.037    508.004    507.037
 87.470    580.655    624.970    -44.314    506.929    623.876    506.929    507.907    506.929
 87.570    611.889    626.358    -14.469    506.819    625.255    506.819    507.810    506.819
 87.670    648.000    624.226     23.774    506.708    623.117    506.708    507.713    506.708
 87.770    634.156    618.934     15.222    506.595    617.821    506.595    507.614    506.595
 87.870    598.016    611.243    -13.227    506.481    610.128    506.481    507.515    506.481
 87.970    591.000    602.046    -11.046    506.366    600.929    506.366    507.415    506.366
 88.070    629.000    592.287     36.713    506.250    591.167    506.250    507.315    506.250
 88.170    562.000    582.851    -20.851    506.131    581.727    506.131    507.214    506.131
 88.270    584.906    574.502     10.404    506.012    573.371    506.012    507.112    506.012
 88.370    615.347    567.838     47.508    505.891    566.700    505.891    507.010    505.891
 88.470    549.000    563.270    -14.270    505.769    562.121    505.769    506.908    505.769
 88.570    576.000    561.007     14.993    505.646    559.846    505.646    506.806    505.646
 88.670    548.869    561.064    -12.195    505.521    559.889    505.521    506.703    505.521
 88.770    606.047    563.270     42.776    505.395    562.079    505.395    506.600    505.395
 88.870    558.080    567.287     -9.207    505.267    566.079    505.267    506.497    505.267
 88.970    613.208    572.627     40.582    505.138    571.400    505.138    506.394    505.138
 89.070    604.000    578.681     25.319    505.008    577.434    505.008    506.292    505.008
 89.170    648.000    584.749     63.251    504.876    583.479    504.876    506.190    504.876
 89.270    631.000    590.081     40.919    504.743    588.787    504.743    506.088    504.743
 89.370    597.303    593.954      3.349    504.609    592.632    504.609    505.986    504.609
 89.470    588.000    595.772     -7.772    504.473    594.420    504.473    505.886    504.473
 89.570    549.048    595.195    -46.146    504.336    593.807    504.336    505.786    504.336
 89.670    559.000    592.214    -33.214    504.198    590.786    504.198    505.688    504.198
 89.770    632.000    587.138     44.862    504.058    585.664    504.058    505.591    504.058
 89.870    590.000    580.489      9.511    503.917    578.966    503.917    505.496    503.917
 89.970    586.913    572.875     14.038    503.775    571.297    503.775    505.403    503.775
 90.070    569.000    564.887      4.113    503.632    563.250    503.632    505.312    503.632
 90.170    561.000    557.035      3.965    503.487    555.335    503.487    505.224    503.487
 90.270    522.000    549.719    -27.719    503.341    547.952    503.341    505.139    503.341
 90.370    505.000    543.217    -38.217    503.193    541.377    503.193    505.057    503.193
 90.470    540.497    537.685      2.812    503.044    535.768    503.044    504.981    503.044
 90.570    509.000    533.175    -24.175    502.894    531.175    502.894    504.909    502.894
 90.670    501.000    529.655    -28.655    502.743    527.564    502.743    504.844    502.743
 90.770    556.000    527.035     28.965    502.591    524.845    502.591    504.787    502.591
 90.870    545.795    525.198     20.596    502.437    522.900    502.437    504.740    502.437
 90.970    532.000    524.022      7.978    502.282    521.601    502.282    504.705    502.282
 91.070    518.201    523.399     -5.198    502.125    520.837    502.125    504.688    502.125
 91.170    486.027    523.246    -37.220    501.968    520.522    501.968    504.692    501.968
 91.270    496.379    523.520    -27.141    501.809    520.602    501.809    504.726    501.809
 91.370    527.000    524.217      2.783    501.649    521.065    501.649    504.799    501.649
 91.470    506.000    525.381    -19.381    501.487    521.936    501.487    504.929    501.487
 91.570    559.040    527.092     31.949    501.325    523.278    501.325    505.134    501.325
 91.670    556.699    529.487     27.212    501.161    525.206    501.161    505.437    501.161
 91.770    564.559    532.810     31.749    500.996    527.931    500.996    505.867    500.996
 91.870    523.000    537.253    -14.253    500.830    531.613    500.830    506.460    500.830
 91.970    561.000    543.068     17.932    500.662    536.461    500.662    507.256    500.662
 92.070    537.827    550.523    -12.696    500.494    542.699    500.494    508.300    500.494
 92.170    560.917    559.872      1.045    500.324    550.536    500.324    509.638    500.324
 92.270    573.000    571.329      1.671    500.153    560.144    500.153    511.311    500.153
 92.370    529.000    585.035    -56.035    499.981    571.628    499.981    513.355    499.981
 92.470    616.000    601.024     14.976    499.808    584.997    499.808    515.793    499.808
 92.570    583.166    619.193    -36.026    499.633    600.148    499.633    518.630    499.633
 92.670    655.000    639.282     15.718    499.457    616.837    499.457    521.847    499.457
 92.770    594.000    660.858    -66.858    499.281    634.682    499.281    525.394    499.281
 92.870    674.981    683.311     -8.330    499.103    653.156    499.103    529.189    499.103
 92.970    676.061    705.873    -29.811    498.924    671.611    498.924    533.111    498.924
 93.070    689.469    727.710    -38.241    498.744    689.375    498.744    537.000    498.744
 93.170    755.157    747.984      7.173    498.562    705.811    498.562    540.654    498.562
 93.270    793.000    766.023     26.977    498.380    720.486    498.380    543.837    498.380
 93.370    816.000    781.431     34.569    498.197    733.254    498.197    546.293    498.197
 93.470    812.948    794.116     18.832    498.012    744.261    498.012    547.789    498.012
 93.570    773.436    804.254    -30.817    497.826    753.849    497.826    548.155    497.826
 93.670    804.191    812.206     -8.015    497.640    762.439    497.640    547.334    497.640
 93.770    793.423    818.466    -25.044    497.452    770.451    497.452    545.396    497.452
 93.870    852.980    823.627     29.352    497.263    778.301    497.263    542.521    497.263
 93.970    841.872    828.374     13.498    497.073    786.433    497.073    538.948    497.073
 94.070    864.270    833.443     30.827    496.882    795.331    496.882    534.931    496.882
 94.170    845.000    839.520      5.480    496.690    805.445    496.690    530.704    496.690
 94.270    836.000    847.063    -11.063    496.497    817.037    496.497    526.464    496.497
 94.370    862.000    856.134      5.866    496.303    830.012    496.303    522.367    496.303
 94.470    902.000    866.292     35.708    496.109    843.814    496.109    518.530    496.109
 94.570    866.000    876.579    -10.579    495.913    857.407    495.913    515.032    495.913
 94.670    881.532    885.601     -4.069    495.716    869.351    495.716    511.918    495.716
 94.770    912.294    891.693     20.602    495.518    877.965    495.518    509.204    495.518
 94.870    935.000    893.176     41.824    495.319    881.576    495.319    506.885    495.319
 94.970    864.810    888.698    -23.889    495.119    878.858    495.119    504.934    495.119
 95.070    923.000    877.573     45.427    494.919    869.160    494.919    503.317    494.919
 95.170    912.000    859.977     52.023    494.717    852.699    494.717    501.989    494.717
 95.270    876.278    836.910     39.368    494.515    830.520    494.515    500.906    494.515
 95.370    803.000    809.975     -6.975    494.311    804.269    494.311    500.023    494.311
 95.470    771.282    781.091     -9.809    494.107    775.906    494.107    499.302    494.107
 95.570    748.000    752.258     -4.258    493.902    747.466    493.902    498.707    493.902
 95.670    714.000    725.422    -11.422    493.696    720.921    493.696    498.209    493.696
 95.770    725.000    702.378     22.622    493.489    698.090    493.489    497.786    493.489
 95.870    733.075    684.678     48.397    493.281    680.546    493.281    497.419    493.281
 95.970    657.000    673.658    -16.658    493.072    669.636    493.072    497.094    493.072
 96.070    694.098    670.431     23.667    492.863    666.484    492.863    496.802    492.863
 96.170    698.000    675.906     22.094    492.653    672.007    492.653    496.536    492.653
 96.270    645.136    690.798    -45.662    492.442    686.924    492.442    496.290    492.442
 96.370    691.000    715.621    -24.621    492.230    711.754    492.230    496.061    492.230
 96.470    800.342    750.650     49.692    492.017    746.774    492.017    495.846    492.017
 96.570    815.658    795.848     19.810    491.804    791.948    491.804    495.644    491.804
 96.670    830.000    850.769    -20.769    491.590    846.833    491.590    495.454    491.590
 96.770    865.394    914.450    -49.056    491.375    910.466    491.375    495.275    491.375
 96.870    985.000    985.318     -0.318    491.160    981.277    491.160    495.107    491.160
 96.970    995.347   1061.125    -65.777    490.943   1057.017    490.943    494.949    490.943
 97.070   1178.041   1138.925     39.116    490.727   1134.741    490.727    494.803    490.727
 97.170   1276.000   1215.115     60.885    490.509   1210.849    490.509    494.668    490.509
 97.270   1280.611   1285.554     -4.943    490.291   1281.197    490.291    494.544    490.291
 97.370   1256.000   1345.809    -89.809    490.072   1341.354    490.072    494.432    490.072
 97.470   1357.000   1391.600    -34.600    489.852   1387.039    489.852    494.333    489.852
 97.570   1385.153   1419.401    -34.249    489.632   1414.723    489.632    494.247    489.632
 97.670   1420.000   1427.098     -7.098    489.411   1422.291    489.411    494.177    489.411
 97.770   1366.312   1414.426    -48.115    489.190   1409.475    489.190    494.122    489.190
 97.870   1380.000   1382.966     -2.966    488.968   1377.850    488.968    494.086    488.968
 97.970   1342.000   1335.730      6.270    488.746   1330.427    488.746    494.070    488.746
 98.070   1238.000   1276.579    -38.579    488.522   1271.060    488.522    494.077    488.522
 98.170   1241.807   1209.689     32.118    488.299   1203.922    488.299    494.113    488.299
 98.270   1134.000   1139.175     -5.175    488.075   1133.120    488.075    494.182    488.075
 98.370   1113.000   1068.847     44.153    487.850   1062.459    487.850    494.293    487.850
 98.470   1009.000   1002.069      6.931    487.625    995.290    487.625    494.457    487.625
 98.570    925.000    941.686    -16.686    487.400    934.445    487.400    494.689    487.400
 98.670    927.062    890.021     37.042    487.174    882.226    487.174    495.010    487.174
 98.770    864.782    848.900     15.882    486.947    840.434    486.947    495.446    486.947
 98.870    833.031    819.715     13.316    486.720    810.424    486.720    496.035    486.720
 98.970    775.000    803.495    -28.495    486.493    793.180    486.493    496.823    486.493
 99.070    802.000    800.979      1.021    486.265    789.380    486.265    497.869    486.265
 99.170    765.992    812.674    -46.682    486.037    799.460    486.037    499.246    486.037
 99.270    833.000    838.880     -5.880    485.809    823.634    485.809    501.042    485.809
 99.370    837.897    879.694    -41.797    485.580    861.893    485.580    503.361    485.580
 99.470    913.000    934.989    -21.989    485.351    913.998    485.351    506.317    485.351
 99.570   1038.000   1004.272     33.728    485.121    979.330    485.121    510.035    485.121
 99.670   1143.000   1086.646     56.354    484.892   1056.865    484.892    514.645    484.892
 99.770   1138.000   1180.700    -42.700    484.662   1145.066    484.662    520.271    484.662
 99.870   1303.093   1284.421     18.672    484.431   1241.811    484.431    527.023    484.431
 99.970   1401.000   1395.135      5.865    484.201   1344.342    484.201    534.985    484.201
100.070   1482.000   1509.497    -27.497    483.970   1449.271    483.970    544.203    483.970
100.170   1696.000   1623.575     72.425    483.739   1552.671    483.739    554.668    483.739
100.270   1786.000   1733.053     52.947    483.508   1650.302    483.508    566.306    483.508
100.370   1820.942   1833.580    -12.637    483.277   1737.962    483.277    578.968    483.277
100.470   2020.000   1921.172     98.828    483.046   1811.900    483.046    592.417    483.046
100.570   1974.807   1992.532    -17.726    482.814   1869.147    482.814    606.326    482.814
100.670   2152.000   2045.164    106.836    482.583   1907.627    482.583    620.270    482.583
100.770   2128.000   2077.290     50.710    482.351   1926.084    482.351    633.730    482.351
100.870   2193.000   2087.747    105.253    482.119   1923.960    482.119    646.098    482.119
100.970   2118.000   2076.047     41.953    481.887   1901.435    481.887    656.704    481.887
101.070   2050.000   2042.643      7.357    481.655   1859.641    481.655    664.871    481.655
101.170   2051.000   1989.249     61.751    481.423   1800.895    481.423    669.995    481.423
101.270   1855.000   1918.967    -63.967    481.192   1728.724    481.192    671.649    481.192
101.370   1789.000   1836.063    -47.063    480.960   1647.555    480.960    669.676    480.960
101.470   1702.000   1745.466    -43.466    480.728   1562.167    480.728    664.224    480.728
101.570   1606.000   1652.164    -46.164    480.496   1477.134    480.496    655.710    480.496
101.670   1537.401   1560.690    -23.289    480.265   1396.389    480.265    644.734    480.265
101.770   1477.000   1474.770      2.230    480.033   1322.982    480.033    631.972    480.033
101.870   1336.000   1397.134    -61.134    479.802   1258.975    479.802    618.095    479.802
101.970   1329.000   1329.450     -0.450    479.570   1205.426    479.570    603.714    479.570
102.070   1336.399   1272.349     64.050    479.339   1162.442    479.339    589.352    479.339
102.170   1200.000   1225.494    -25.494    479.108   1129.261    479.108    575.437    479.108
102.270   1213.281   1187.712     25.569    478.878   1104.378    478.878    562.299    478.878
102.370   1142.000   1157.152    -15.152    478.647   1085.704    478.647    550.178    478.647
102.470   1051.000   1131.501    -80.501    478.417   1070.771    478.417    539.226    478.417
102.570   1123.000   1108.242     14.758    478.187   1056.986    478.187    529.521    478.187
102.670   1056.000   1084.973    -28.973    477.958   1041.937    477.958    521.072    477.958
102.770    989.000   1059.726    -70.726    477.728   1023.698    477.728    513.836    477.728
102.870   1023.000   1031.215     -8.215    477.499   1001.064    477.499    507.731    477.499
102.970   1041.268    998.933     42.334    477.271    973.639    477.271    502.646    477.271
103.070    897.000    963.085    -66.085    477.043    941.750    477.043    498.458    477.043
103.170    872.000    924.393    -52.393    476.815    906.248    476.815    495.038    476.815
103.270    860.000    883.881    -23.881    476.587    868.283    476.587    492.260    476.587
103.370    803.000    842.688    -39.688    476.361    829.110    476.361    490.008    476.361
103.470    854.191    801.938     52.253    476.134    789.956    476.134    488.180    476.134
103.570    803.000    762.648     40.352    475.908    751.927    475.908    486.687    475.908
103.670    753.000    725.675     27.325    475.683    715.954    475.683    485.456    475.683
103.770    709.000    691.680     17.320    475.458    682.757    475.458    484.426    475.458
103.870    657.000    661.112     -4.112    475.234    652.835    475.234    483.550    475.234
103.970    622.000    634.209    -12.209    475.010    626.462    475.010    482.789    475.010
104.070    574.298    611.019    -36.721    474.787    603.715    474.787    482.118    474.787
104.170    612.000    591.431     20.569    474.565    584.498    474.565    481.519    474.565
104.270    541.901    575.198    -33.298    474.344    568.584    474.344    480.975    474.344
104.370    606.999    562.003     44.996    474.123    555.665    474.123    480.474    474.123
104.470    540.000    551.473    -11.473    473.902    545.378    473.902    480.008    473.902
104.570    552.000    543.226      8.774    473.683    537.346    473.683    479.570    473.683
104.670    544.987    536.894      8.093    473.464    531.207    473.464    479.156    473.464
104.770    534.000    532.141      1.859    473.246    526.632    473.246    478.758    473.246
104.870    488.362    528.697    -40.335    473.029    523.351    473.029    478.378    473.029
104.970    498.225    526.337    -28.112    472.813    521.130    472.813    478.020    472.813
105.070    524.000    524.881     -0.881    472.598    519.799    472.598    477.678    472.598
105.170    548.969    524.206     24.762    472.384    519.237    472.384    477.350    472.384
105.270    556.000    524.244     31.756    472.170    519.376    472.170    477.035    472.170
105.370    559.000    524.971     34.029    471.958    520.192    471.958    476.731    471.958
105.470    504.000    526.401    -22.401    471.746    521.702    471.746    476.438    471.746
105.570    509.564    528.584    -19.020    471.536    523.955    471.536    476.156    471.536
105.670    584.000    531.597     52.403    471.326    527.029    471.326    475.884    471.326
105.770    540.000    535.534      4.466    471.118    531.019    471.118    475.620    471.118
105.870    581.000    540.496     40.504    470.911    536.026    470.911    475.366    470.911
105.970    579.136    546.577     32.559    470.705    542.144    470.705    475.120    470.705
106.070    561.651    553.846      7.805    470.500    549.443    470.500    474.881    470.500
106.170    521.085    562.337    -41.252    470.296    557.957    470.296    474.651    470.296
106.270    622.569    572.031     50.539    470.093    567.667    470.093    474.428    470.093
106.370    575.602    582.848     -7.247    469.892    578.495    469.892    474.213    469.892
106.470    571.000    594.641    -23.641    469.692    590.292    469.692    474.005    469.692
106.570    631.000    607.189     23.811    469.493    602.840    469.493    473.803    469.493
106.670    575.000    620.206    -45.206    469.296    615.850    469.296    473.609    469.296
106.770    616.661    633.336    -16.675    469.100    628.969    469.100    473.421    469.100
106.870    657.366    646.176     11.190    468.905    641.793    468.905    473.240    468.905
106.970    585.000    658.284    -73.284    468.712    653.880    468.712    473.066    468.712
107.070    632.762    669.211    -36.449    468.520    664.783    468.520    472.898    468.520
107.170    629.000    678.539    -49.539    468.329    674.083    468.329    472.737    468.329
107.270    678.400    685.932     -7.532    468.141    681.443    468.141    472.583    468.141
107.370    696.000    691.189      4.811    467.953    686.662    467.953    472.435    467.953
107.470    668.000    694.289    -26.289    467.768    689.721    467.768    472.294    467.768
107.570    748.722    695.403     53.319    467.584    690.789    467.584    472.161    467.584
107.670    704.482    694.871      9.611    467.401    690.206    467.401    472.034    467.401
107.770    641.000    693.142    -52.142    467.220    688.420    467.220    471.914    467.220
107.870    676.218    690.707    -14.489    467.041    685.923    467.041    471.802    467.041
107.970    665.000    688.039    -23.039    466.864    683.188    466.864    471.697    466.864
108.070    675.000    685.545    -10.545    466.688    680.620    466.688    471.600    466.688
108.170    711.859    683.530     28.329    466.514    678.525    466.514    471.510    466.514
108.270    680.245    682.184     -1.938    466.342    677.092    466.342    471.429    466.342
108.370    653.000    681.563    -28.563    466.172    676.378    466.172    471.357    466.172
108.470    686.609    681.595      5.014    466.004    676.309    466.004    471.293    466.004
108.570    650.000    682.082    -32.082    465.837    676.687    465.837    471.238    465.837
108.670    685.234    682.717      2.517    465.673    677.207    465.673    471.192    465.673
108.770    655.000    683.115    -28.115    465.510    677.480    465.510    471.157    465.510
108.870    678.000    682.845     -4.845    465.350    677.078    465.350    471.132    465.350
108.970    673.000    681.492     -8.492    465.191    675.584    465.191    471.117    465.191
109.070    684.000    678.709      5.291    465.035    672.650    465.035    471.114    465.035
109.170    700.000    674.272     25.728    464.881    668.052    464.881    471.122    464.881
109.270    657.361    668.110    -10.750    464.729    661.718    464.729    471.144    464.729
109.370    667.465    660.308      7.157    464.579    653.732    464.579    471.178    464.579
109.470    615.868    651.078    -35.210    464.432    644.307    464.432    471.226    464.432
109.570    680.437    640.721     39.715    464.286    633.741    464.286    471.289    464.286
109.670    658.509    629.585     28.924    464.143    622.382    464.143    471.367    464.143
109.770    678.000    618.027     59.973    464.002    610.587    464.002    471.463    464.002
109.870    592.000    606.392    -14.392    463.864    598.699    463.864    471.576    463.864
109.970    600.000    594.994      5.006    463.728    587.031    463.728    471.708    463.728
110.070    608.000    584.101     23.899    463.594    575.850    463.594    471.861    463.594
110.170    567.000    573.898     -6.898    463.463    565.339    463.463    472.036    463.463
110.270    601.494    564.642     36.851    463.335    555.752    463.335    472.236    463.335
110.370    522.993    556.416    -33.423    463.209    547.171    463.209    472.463    463.209
110.470    555.598    549.283      6.315    463.085    539.656    463.085    472.721    463.085
110.570    572.000    543.268     28.732    462.965    533.226    462.965    473.012    462.965
110.670    541.000    538.354      2.646    462.846    527.862    462.846    473.343    462.846
110.770    546.000    534.496     11.504    462.731    523.512    462.731    473.718    462.731
110.870    592.000    531.627     60.373    462.618    520.100    462.618    474.146    462.618
110.970    499.474    529.666    -30.191    462.508    517.536    462.508    474.638    462.508
111.070    568.000    528.525     39.475    462.401    515.719    462.401    475.205    462.401
111.170    573.000    528.120     44.880    462.297    514.549    462.297    475.864    462.297
111.270    481.689    528.372    -46.683    462.195    513.927    462.195    476.637    462.195
111.370    519.000    529.216    -10.216    462.097    513.760    462.097    477.547    462.097
111.470    541.000    530.598     10.402    462.001    513.964    462.001    478.630    462.001
111.570    590.000    532.487     57.513    461.908    514.466    461.908    479.923    461.908
111.670    569.148    534.868     34.281    461.819    515.203    461.819    481.477    461.819
111.770    527.685    537.748    -10.062    461.732    516.122    461.732    483.351    461.732
111.870    564.026    541.155     22.870    461.649    517.183    461.649    485.614    461.649
111.970    542.281    545.144     -2.863    461.569    518.355    461.569    488.349    461.569
112.070    576.000    549.789     26.211    461.491    519.621    461.491    491.652    461.491
112.170    534.000    555.191    -21.191    461.418    520.973    461.418    495.628    461.418
112.270    518.759    561.472    -42.713    461.347    522.414    461.347    500.397    461.347
112.370    595.000    568.771     26.229    461.280    523.956    461.280    506.086    461.280
112.470    532.000    577.245    -45.245    461.216    525.619    461.216    512.833    461.216
112.570    572.000    587.062    -15.062    461.155    527.434    461.155    520.775    461.155
112.670    601.778    598.397      3.381    461.098    529.436    461.098    530.050    461.098
112.770    647.049    611.424     35.626    461.045    531.672    461.045    540.788    461.045
112.870    580.242    626.315    -46.073    460.995    534.199    460.995    553.102    460.995
112.970    628.000    643.235    -15.235    460.948    537.090    460.948    567.083    460.948
113.070    678.000    662.338     15.662    460.905    540.442    460.905    582.791    460.905
113.170    705.968    683.769     22.199    460.866    544.379    460.866    600.245    460.866
113.270    669.948    707.660    -37.712    460.830    549.066    460.830    619.413    460.830
113.370    680.266    734.142    -53.876    460.799    554.720    460.799    640.209    460.799
113.470    810.249    763.352     46.897    460.770    561.629    460.770    662.480    460.770
113.570    827.095    795.445     31.650    460.746    570.171    460.746    686.005    460.746
113.670    825.000    830.617     -5.617    460.726    580.836    460.726    710.487    460.726
113.770    906.000    869.123     36.877    460.709    594.257    460.709    735.554    460.709
113.870    955.966    911.313     44.653    460.697    611.232    460.697    760.751    460.697
113.970    965.000    957.655      7.345    460.688    632.762    460.688    785.548    460.688
114.070   1045.000   1008.773     36.227    460.683    660.077    460.683    809.338    460.683
114.170   1054.826   1065.480    -10.654    460.683    694.660    460.683    831.452    460.683
114.270   1082.833   1128.823    -45.990    460.687    738.267    460.687    851.179    460.687
114.370   1182.000   1200.116    -18.116    460.694    792.935    460.694    867.796    460.694
114.470   1203.000   1280.990    -77.990    460.706    860.973    460.706    880.623    460.706
114.570   1316.693   1373.416    -56.722    460.723    944.930    460.723    889.086    460.723
114.670   1443.946   1479.723    -35.777    460.743   1047.538    460.743    892.777    460.743
114.770   1625.000   1602.562     22.438    460.768   1171.633    460.768    891.514    460.768
114.870   1779.389   1744.817     34.572    460.797   1320.033    460.797    885.360    460.797
114.970   2004.000   1909.446     94.554    460.831   1495.393    460.831    874.622    460.831
115.070   2160.000   2099.267     60.733    460.869   1700.026    460.869    859.801    460.869
115.170   2385.000   2316.691     68.309    460.912   1935.710    460.912    841.534    460.912
115.270   2524.634   2563.451    -38.818    460.959   2203.470    460.959    820.530    460.959
115.370   2871.000   2840.333     30.667    461.011   2503.370    461.011    797.510    461.011
115.470   3128.000   3146.931    -18.931    461.068   2834.316    461.068    773.167    461.068
115.570   3410.000   3481.460    -71.460    461.129   3193.884    461.129    748.140    461.129
115.670   3723.000   3840.611   -117.611    461.195   3578.201    461.195    722.997    461.195
115.770   4162.000   4219.480    -57.480    461.266   3981.875    461.266    698.229    461.266
115.870   4561.000   4611.570    -50.570    461.342   4397.995    461.342    674.248    461.342
115.970   4921.000   5008.857    -87.857    461.423   4818.210    461.423    651.388    461.423
116.070   5304.000   5401.948    -97.948    461.508   5232.871    461.508    629.906    461.508
116.170   5568.000   5780.314   -212.314    461.599   5631.265    461.599    609.987    461.599
116.270   6240.548   6132.618    107.930    461.695   6001.938    461.695    591.749    461.695
116.370   6444.000   6447.152     -3.152    461.795   6333.127    461.795    575.250    461.795
116.470   6632.000   6712.412    -80.412    461.901   6613.322    461.901    560.493    461.901
116.570   6951.012   6917.809     33.203    462.012   6831.973    462.012    547.438    462.012
116.670   7089.000   7054.494     34.506    462.129   6980.305    462.129    536.009    462.129
116.770   7230.000   7116.184    113.816    462.250   7052.136    462.250    526.101    462.250
116.870   7276.000   7099.836    176.164    462.378   7044.540    462.378    517.592    462.378
116.970   6837.871   7005.990   -168.118    462.510   6958.185    462.510    510.347    462.510
117.070   6875.000   6838.685     36.315    462.648   6797.246    462.648    504.228    462.648
117.170   6676.000   6604.974     71.026    462.791   6568.905    462.791    499.098    462.791
117.270   6203.187   6314.160   -110.973    462.940   6282.598    462.940    494.823    462.940
117.370   5988.000   5977.035     10.965    463.095   5949.236    463.095    491.281    463.095
117.470   5313.000   5605.022   -292.022    463.255   5580.356    463.255    488.358    463.255
117.570   5031.000   5209.547   -178.547    463.421   5187.483    463.421    485.955    463.421
117.670   4825.475   4801.550     23.925    463.593   4781.647    463.593    483.982    463.593
117.770   4501.000   4391.098    109.902    463.770   4372.992    463.770    482.364    463.770
117.870   4088.000   3987.096    100.904    463.954   3970.489    463.954    481.036    463.954
117.970   3512.900   3597.102    -84.202    464.143   3581.753    464.143    479.946    464.143
118.070   3261.746   3227.216     34.530    464.338   3212.928    464.338    479.048    464.338
118.170   3057.000   2882.048    174.952    464.540   2868.666    464.540    478.307    464.540
118.270   2652.413   2564.766     87.647    464.747   2552.163    464.747    477.694    464.747
118.370   2216.699   2277.198    -60.499    464.961   2265.274    464.961    477.186    464.961
118.470   2065.000   2019.984     45.016    465.180   2008.658    465.180    476.765    465.180
118.570   1802.000   1792.758      9.242    465.406   1781.966    465.406    476.416    465.406
118.670   1653.984   1594.342     59.642    465.639   1584.031    465.639    476.128    465.639
118.770   1357.738   1422.944    -65.206    465.877   1413.073    465.877    475.893    465.877
118.870   1298.291   1276.347     21.944    466.122   1266.879    466.122    475.704    466.122
118.970   1068.000   1152.080    -84.080    466.374   1142.986    466.374    475.555    466.374
119.070   1046.000   1047.569     -1.569    466.632   1038.823    466.632    475.443    466.632
119.170    966.000    960.263      5.737    466.896    951.842    466.896    475.364    466.896
119.270    870.000    887.728    -17.728    467.168    879.612    467.168    475.316    467.168
119.370    843.000    827.717     15.283    467.446    819.888    467.446    475.297    467.446
119.470    743.000    778.211    -35.211    467.730    770.651    467.730    475.305    467.730
119.570    746.000    737.438      8.562    468.022    730.129    468.022    475.339    468.022
119.670    679.000    703.875    -24.875    468.320    696.801    468.320    475.398    468.320
119.770    712.975    676.237     36.739    468.625    669.382    468.625    475.481    468.625
119.870    658.000    653.456      4.544    468.937    646.806    468.937    475.589    468.937
119.970    591.682    634.660    -42.978    469.257    628.197    469.257    475.720    469.257
120.070    576.000    619.141    -43.141    469.583    612.848    469.583    475.875    469.583
120.170    596.000    606.331    -10.331    469.916    600.193    469.916    476.055    469.916
120.270    638.767    595.780     42.987    470.257    589.779    470.257    476.259    470.257
120.370    622.208    587.133     35.075    470.605    581.251    470.605    476.488    470.605
120.470    566.084    580.110    -14.025    470.960    574.329    470.960    476.743    470.960
120.570    541.475    574.491    -33.017    471.323    568.791    471.323    477.025    471.323
120.670    526.000    570.106    -44.106    471.693    564.467    471.693    477.335    471.693
120.770    537.000    566.822    -29.822    472.070    561.222    472.070    477.674    472.070
120.870    543.000    564.533    -21.533    472.455    558.951    472.455    478.043    472.455
120.970    549.012    563.158    -14.146    472.848    557.568    472.848    478.443    472.848
121.070    565.000    562.630      2.370    473.248    557.008    473.248    478.876    473.248
121.170    555.000    562.894     -7.894    473.656    557.215    473.656    479.343    473.656
121.270    522.559    563.902    -41.343    474.072    558.138    474.072    479.845    474.072
121.370    579.380    565.608     13.772    474.496    559.732    474.496    480.382    474.496
121.470    538.000    567.967    -29.967    474.928    561.951    474.928    480.956    474.928
121.570    551.000    570.930    -19.930    475.368    564.745    475.368    481.565    475.368
121.670    575.000    574.441      0.559    475.815    568.061    475.815    482.210    475.815
121.770    550.434    578.437    -28.003    476.271    571.837    476.271    482.888    476.271
121.870    585.000    582.851      2.149    476.735    576.004    476.735    483.602    476.735
121.970    569.000    587.601    -18.601    477.207    580.482    477.207    484.348    477.207
122.070    634.811    592.594     42.217    477.688    585.183    477.688    485.124    477.688
122.170    546.834    597.730    -50.897    478.177    590.010    478.177    485.925    478.177
122.270    572.885    602.899    -30.014    478.674    594.857    478.674    486.748    478.674
122.370    640.000    607.984     32.016    479.180    599.610    479.180    487.588    479.180
122.470    596.000    612.860    -16.860    479.694    604.151    479.694    488.440    479.694
122.570    665.000    617.403     47.597    480.217    608.362    480.217    489.297    480.217
122.670    673.000    621.488     51.512    480.749    612.126    480.749    490.153    480.749
122.770    596.000    625.001    -29.001    481.289    615.334    481.289    491.001    481.289
122.870    596.000    627.837    -31.837    481.838    617.891    481.838    491.831    481.838
122.970    619.000    629.912    -10.912    482.396    619.721    482.396    492.636    482.396
123.070    712.000    631.170     80.830    482.963    620.775    482.963    493.408    482.963
123.170    622.616    631.580     -8.964    483.539    621.030    483.539    494.139    483.539
123.270    658.000    631.143     26.857    484.124    620.493    484.124    494.823    484.124
123.370    639.617    629.885      9.732    484.718    619.198    484.718    495.455    484.718
123.470    633.000    627.860      5.140    485.322    617.200    485.322    496.030    485.322
123.570    597.000    625.138    -28.138    485.934    614.570    485.934    496.550    485.934
123.670    594.000    621.804    -27.804    486.556    611.391    486.556    497.014    486.556
123.770    641.000    617.950     23.050    487.188    607.753    487.188    497.427    487.188
123.870    647.597    613.674     33.923    487.829    603.748    487.829    497.795    487.829
123.970    588.000    609.074    -21.074    488.479    599.466    488.479    498.124    488.479
124.070    600.000    604.245     -4.245    489.139    594.996    489.139    498.422    489.139
124.170    592.906    599.276     -6.370    489.808    590.418    489.808    498.698    489.808
124.270    643.857    594.250     49.607    490.488    585.806    490.488    498.959    490.488
124.370    601.000    589.239     11.761    491.177    581.227    491.177    499.214    491.177
124.470    636.000    584.307     51.693    491.876    576.736    491.876    499.469    491.876
124.570    583.000    579.504      3.496    492.585    572.377    492.585    499.731    492.585
124.670    565.000    574.873     -9.873    493.304    568.187    493.304    500.006    493.304
124.770    560.091    570.444    -10.353    494.033    564.191    494.033    500.300    494.033
124.870    604.549    566.241     38.308    494.772    560.408    494.772    500.617    494.772
124.970    592.000    562.279     29.721    495.522    556.851    495.522    500.960    495.522
