neutron_powder_diffraction_0228
R_wp: 4.069
Temperature (K): 1074.000
Counts: 83966.00
Wavelength (Ã…): 2.52098
COMMENTS
Test file for demonstrating the .xyy file format in Reel1.0
END OF HEADER
   tth       Y_obs     Y_calc      Y_res    Background    Phase_1_Nuc    Phase_1_Mag    Phase_2_Nuc    Phase_2_Mag
  9.970    613.000    571.081     41.919    570.477    571.031    570.477    570.527    570.477
 10.070    566.000    571.225     -5.225    570.571    571.175    570.571    570.621    570.571
 10.170    572.022    571.386      0.636    570.659    571.336    570.659    570.709    570.659
 10.270    535.668    571.537    -35.869    570.741    571.486    570.741    570.792    570.741
 10.370    612.000    571.689     40.311    570.818    571.638    570.818    570.868    570.818
 10.470    549.790    571.848    -22.058    570.888    571.797    570.888    570.939    570.888
 10.570    531.263    572.019    -40.755    570.953    571.966    570.953    571.005    570.953
 10.670    594.000    572.209     21.791    571.012    572.150    571.012    571.070    571.012
 10.770    562.000    572.414    -10.414    571.066    572.355    571.066    571.124    571.066
 10.870    591.000    572.647     18.353    571.114    572.587    571.114    571.173    571.114
 10.970    553.638    572.919    -19.281    571.156    572.859    571.156    571.215    571.156
 11.070    542.000    573.245    -31.245    571.193    573.184    571.193    571.253    571.193
 11.170    591.884    573.647     18.237    571.225    573.586    571.225    571.285    571.225
 11.270    566.000    574.161     -8.161    571.251    574.099    571.251    571.311    571.251
 11.370    574.000    574.844     -0.844    571.272    574.782    571.272    571.332    571.272
 11.470    581.786    575.822      5.964    571.288    575.759    571.288    571.348    571.288
 11.570    588.000    577.452     10.548    571.298    577.387    571.298    571.359    571.298
 11.670    619.000    580.812     38.188    571.304    580.745    571.304    571.365    571.304
 11.770    619.000    588.608     30.392    571.304    588.537    571.304    571.365    571.304
 11.870    596.000    605.534     -9.534    571.299    605.453    571.299    571.361    571.299
 11.970    651.000    635.636     15.364    571.289    635.537    571.289    571.351    571.289
 12.070    717.641    675.340     42.301    571.274    675.218    571.274    571.338    571.274
 12.170    657.670    706.970    -49.299    571.255    706.826    571.255    571.321    571.255
 12.270    659.000    707.985    -48.985    571.230    707.839    571.230    571.297    571.230
 12.370    659.000    677.433    -18.433    571.201    677.304    571.201    571.269    571.201
 12.470    620.000    637.462    -17.462    571.167    637.355    571.167    571.236    571.167
 12.570    635.259    606.575     28.684    571.128    606.485    571.128    571.198    571.128
 12.670    555.043    588.982    -33.939    571.085    588.902    571.085    571.155    571.085
 12.770    580.000    580.808     -0.808    571.037    580.732    571.037    571.108    571.037
 12.870    539.000    577.271    -38.271    570.985    577.196    570.985    571.055    570.985
 12.970    573.000    575.549     -2.549    570.927    575.475    570.927    570.999    570.927
 13.070    534.000    574.508    -40.508    570.866    574.434    570.866    570.938    570.866
 13.170    574.432    573.771      0.661    570.800    573.697    570.800    570.872    570.800
 13.270    568.000    573.209     -5.209    570.730    573.135    570.730    570.802    570.730
 13.370    586.098    572.761     13.337    570.655    572.687    570.655    570.728    570.655
 13.470    598.366    572.392     25.973    570.577    572.318    570.577    570.650    570.577
 13.570    547.181    572.080    -24.899    570.494    572.006    570.494    570.567    570.494
 13.670    597.898    571.809     26.089    570.406    571.734    570.406    570.480    570.406
 13.770    578.000    571.567      6.433    570.315    571.492    570.315    570.389    570.315
 13.870    552.122    571.348    -19.225    570.220    571.273    570.220    570.294    570.220
 13.970    530.000    571.145    -41.145    570.120    571.070    570.120    570.195    570.120
 14.070    542.637    570.955    -28.318    570.017    570.879    570.017    570.092    570.017
 14.170    601.509    570.774     30.735    569.909    570.698    569.909    569.985    569.909
 14.270    576.000    570.600      5.400    569.798    570.523    569.798    569.874    569.798
 14.370    555.000    570.430    -15.430    569.683    570.353    569.683    569.760    569.683
 14.470    574.252    570.264      3.987    569.564    570.187    569.564    569.641    569.564
 14.570    558.246    570.101    -11.854    569.442    570.023    569.442    569.519    569.442
 14.670    594.000    569.939     24.061    569.315    569.861    569.315    569.393    569.315
 14.770    539.000    569.778    -30.778    569.185    569.699    569.185    569.264    569.185
 14.870    573.000    569.618      3.382    569.052    569.537    569.052    569.132    569.052
 14.970    558.939    569.456    -10.517    568.914    569.375    568.914    568.995    568.914
 15.070    539.791    569.294    -29.502    568.773    569.212    568.773    568.855    568.773
 15.170    567.000    569.133     -2.133    568.629    569.051    568.629    568.711    568.629
 15.270    556.000    568.969    -12.969    568.481    568.887    568.481    568.564    568.481
 15.370    584.000    568.803     15.197    568.330    568.720    568.330    568.413    568.330
 15.470    609.000    568.635     40.365    568.176    568.551    568.176    568.259    568.176
 15.570    567.000    568.465     -1.465    568.018    568.381    568.018    568.102    568.018
 15.670    529.000    568.293    -39.293    567.857    568.208    567.857    567.941    567.857
 15.770    565.000    568.119     -3.119    567.693    568.034    567.693    567.777    567.693
 15.870    559.000    567.942     -8.942    567.525    567.857    567.525    567.610    567.525
 15.970    642.000    567.764     74.236    567.354    567.678    567.354    567.440    567.354
 16.070    550.000    567.583    -17.583    567.180    567.497    567.180    567.267    567.180
 16.170    552.000    567.400    -15.400    567.004    567.313    567.004    567.090    567.004
 16.270    534.000    567.214    -33.214    566.824    567.127    566.824    566.911    566.824
 16.370    564.537    567.027     -2.490    566.641    566.939    566.641    566.729    566.641
 16.470    597.000    566.837     30.163    566.455    566.748    566.455    566.543    566.455
 16.570    537.000    566.644    -29.644    566.266    566.555    566.266    566.355    566.266
 16.670    560.000    566.449     -6.449    566.074    566.360    566.074    566.164    566.074
 16.770    570.000    566.252      3.748    565.880    566.162    565.880    565.970    565.880
 16.870    526.860    566.053    -39.192    565.683    565.962    565.683    565.773    565.683
 16.970    571.402    565.851      5.552    565.483    565.759    565.483    565.574    565.483
 17.070    589.324    565.646     23.678    565.280    565.555    565.280    565.372    565.280
 17.170    554.756    565.440    -10.684    565.075    565.347    565.075    565.167    565.075
 17.270    602.798    565.232     37.566    564.866    565.138    564.866    564.960    564.866
 17.370    593.162    565.026     28.136    564.656    564.926    564.656    564.755    564.656
 17.470    535.000    564.814    -29.814    564.443    564.713    564.443    564.544    564.443
 17.570    576.000    564.599     11.401    564.227    564.496    564.227    564.330    564.227
 17.670    609.000    564.381     44.619    564.009    564.278    564.009    564.112    564.009
 17.770    555.000    564.163     -9.163    563.788    564.059    563.788    563.892    563.788
 17.870    539.000    563.942    -24.942    563.565    563.838    563.565    563.670    563.565
 17.970    582.609    563.719     18.890    563.340    563.613    563.340    563.445    563.340
 18.070    532.000    563.495    -31.495    563.112    563.389    563.112    563.218    563.112
 18.170    542.052    563.267    -21.216    562.882    563.161    562.882    562.989    562.882
 18.270    570.000    563.037      6.963    562.650    562.930    562.650    562.757    562.650
 18.370    565.000    562.805      2.195    562.415    562.697    562.415    562.524    562.415
 18.470    553.000    562.571     -9.571    562.179    562.462    562.179    562.288    562.179
 18.570    566.000    562.336      3.664    561.940    562.226    561.940    562.050    561.940
 18.670    563.000    562.098      0.902    561.699    561.987    561.699    561.810    561.699
 18.770    584.000    561.858     22.142    561.456    561.747    561.456    561.567    561.456
 18.870    563.072    561.617      1.455    561.211    561.505    561.211    561.323    561.211
 18.970    549.000    561.374    -12.374    560.964    561.261    560.964    561.077    560.964
 19.070    545.000    561.129    -16.129    560.715    561.015    560.715    560.829    560.715
 19.170    578.000    560.883     17.117    560.464    560.768    560.464    560.579    560.464
 19.270    539.548    560.635    -21.087    560.211    560.519    560.211    560.327    560.211
 19.370    565.000    560.386      4.614    559.956    560.269    559.956    560.073    559.956
 19.470    600.000    560.135     39.865    559.700    560.017    559.700    559.818    559.700
 19.570    564.095    559.883      4.213    559.441    559.764    559.441    559.560    559.441
 19.670    588.948    559.629     29.319    559.181    559.509    559.181    559.301    559.181
 19.770    566.000    559.374      6.626    558.919    559.253    558.919    559.040    558.919
 19.870    571.100    559.117     11.983    558.656    558.995    558.656    558.778    558.656
 19.970    594.000    558.859     35.141    558.391    558.736    558.391    558.514    558.391
 20.070    563.000    558.600      4.400    558.124    558.476    558.124    558.248    558.124
 20.170    549.000    558.340     -9.340    557.855    558.214    557.855    557.981    557.855
 20.270    564.000    558.078      5.922    557.585    557.952    557.585    557.712    557.585
 20.370    565.000    557.816      7.184    557.314    557.688    557.314    557.442    557.314
 20.470    581.378    557.553     23.825    557.041    557.424    557.041    557.170    557.041
 20.570    543.000    557.290    -14.290    556.766    557.160    556.766    556.897    556.766
 20.670    517.000    557.025    -40.025    556.491    556.893    556.491    556.622    556.491
 20.770    516.769    556.760    -39.991    556.213    556.627    556.213    556.346    556.213
 20.870    541.000    556.506    -15.506    555.935    556.372    555.935    556.069    555.935
 20.970    579.541    556.248     23.293    555.655    556.113    555.655    555.790    555.655
 21.070    543.000    555.981    -12.981    555.373    555.845    555.373    555.510    555.373
 21.170    556.000    555.713      0.287    555.091    555.575    555.091    555.229    555.091
 21.270    589.192    555.445     33.748    554.807    555.305    554.807    554.947    554.807
 21.370    522.000    555.176    -33.176    554.522    555.035    554.522    554.663    554.522
 21.470    536.000    554.907    -18.907    554.236    554.764    554.236    554.378    554.236
 21.570    510.483    554.639    -44.156    553.948    554.494    553.948    554.093    553.948
 21.670    565.000    554.373     10.627    553.660    554.224    553.660    553.808    553.660
 21.770    569.000    554.106     14.894    553.370    553.954    553.370    553.522    553.370
 21.870    513.605    553.838    -40.234    553.079    553.685    553.079    553.233    553.079
 21.970    597.218    553.574     43.644    552.788    553.419    552.788    552.943    552.788
 22.070    554.000    553.330      0.670    552.495    553.173    552.495    552.652    552.495
 22.170    574.992    553.102     21.890    552.201    552.943    552.201    552.360    552.201
 22.270    587.000    552.926     34.074    551.907    552.765    551.907    552.068    551.907
 22.370    558.789    552.688      6.101    551.611    552.525    551.611    551.774    551.611
 22.470    579.000    552.433     26.567    551.315    552.268    551.315    551.480    551.315
 22.570    552.493    552.180      0.314    551.017    552.012    551.017    551.185    551.017
 22.670    506.695    551.931    -45.235    550.719    551.761    550.719    550.889    550.719
 22.770    535.000    551.691    -16.691    550.420    551.519    550.420    550.593    550.420
 22.870    530.000    551.497    -21.497    550.121    551.322    550.121    550.295    550.121
 22.970    585.938    551.285     34.653    549.820    551.108    549.820    549.998    549.820
 23.070    548.132    551.066     -2.934    549.519    550.886    549.519    549.699    549.519
 23.170    558.000    550.857      7.143    549.217    550.675    549.217    549.400    549.217
 23.270    562.000    550.664     11.336    548.915    550.478    548.915    549.100    548.915
 23.370    509.000    550.490    -41.490    548.611    550.302    548.611    548.800    548.611
 23.470    508.222    550.343    -42.121    548.308    550.151    548.308    548.500    548.308
 23.570    535.000    550.230    -15.230    548.003    550.036    548.003    548.199    548.003
 23.670    518.000    550.159    -32.159    547.698    549.961    547.698    547.897    547.698
 23.770    531.000    550.149    -19.149    547.393    549.948    547.393    547.595    547.393
 23.870    504.000    550.227    -46.227    547.087    550.022    547.087    547.293    547.087
 23.970    532.000    550.439    -18.439    546.780    550.231    546.780    546.990    546.780
 24.070    593.296    550.895     42.401    546.473    550.683    546.473    546.688    546.473
 24.170    556.000    551.916      4.084    546.166    551.701    546.166    546.384    546.166
 24.270    543.888    554.427    -10.539    545.858    554.209    545.858    546.081    545.858
 24.370    597.000    560.522     36.478    545.550    560.304    545.550    545.778    545.550
 24.470    616.000    573.345     42.655    545.242    573.131    545.242    545.474    545.242
 24.570    577.000    594.743    -17.743    544.933    594.539    544.933    545.171    544.933
 24.670    603.000    620.627    -17.627    544.624    620.436    544.624    544.867    544.624
 24.770    599.000    637.963    -38.963    544.314    637.778    544.314    544.564    544.314
 24.870    627.464    633.704     -6.240    544.004    633.510    544.004    544.260    544.004
 24.970    589.000    611.411    -22.411    543.694    611.195    543.694    543.957    543.694
 25.070    594.887    585.687      9.200    543.384    585.446    543.384    543.654    543.384
 25.170    585.217    566.572     18.646    543.074    566.310    543.074    543.351    543.074
 25.270    574.772    555.734     19.037    542.764    555.457    542.764    543.048    542.764
 25.370    552.000    550.542      1.458    542.453    550.253    542.453    542.746    542.453
 25.470    550.000    548.149      1.851    542.142    547.850    542.142    542.444    542.142
 25.570    588.000    546.861     41.139    541.831    546.551    541.831    542.143    541.831
 25.670    520.878    546.004    -25.126    541.520    545.683    541.520    541.842    541.520
 25.770    543.657    545.355     -1.698    541.209    545.023    541.209    541.543    541.209
 25.870    605.000    544.836     60.164    540.898    544.492    540.898    541.243    540.898
 25.970    584.000    544.412     39.588    540.587    544.054    540.587    540.945    540.587
 26.070    590.000    544.053     45.947    540.276    543.682    540.276    540.648    540.276
 26.170    554.705    543.752     10.953    539.965    543.366    539.965    540.352    539.965
 26.270    533.000    543.500    -10.500    539.655    543.097    539.655    540.057    539.655
 26.370    519.000    543.295    -24.295    539.344    542.875    539.344    539.764    539.344
 26.470    552.000    543.139      8.861    539.033    542.699    539.033    539.473    539.033
 26.570    578.000    543.033     34.967    538.723    542.572    538.723    539.183    538.723
 26.670    546.175    542.982      3.193    538.412    542.498    538.412    538.896    538.412
 26.770    535.000    542.999     -7.999    538.102    542.489    538.102    538.611    538.102
 26.870    536.000    543.117     -7.117    537.792    542.580    537.792    538.329    537.792
 26.970    525.000    543.328    -18.328    537.482    542.760    537.482    538.050    537.482
 27.070    570.000    543.641     26.359    537.172    543.037    537.172    537.775    537.172
 27.170    551.000    544.111      6.889    536.863    543.469    536.863    537.504    536.863
 27.270    609.000    544.799     64.201    536.554    544.114    536.554    537.238    536.554
 27.370    558.000    545.791     12.209    536.245    545.057    536.245    536.978    536.245
 27.470    598.000    547.247     50.753    535.936    546.458    535.936    536.724    535.936
 27.570    525.507    549.578    -24.070    535.628    548.725    535.628    536.479    535.628
 27.670    575.000    554.193     20.807    535.320    553.267    535.320    536.243    535.320
 27.770    541.959    565.762    -23.804    535.013    564.749    535.013    536.018    535.013
 27.870    624.000    595.848     28.152    534.706    594.728    534.706    535.807    534.706
 27.970    662.187    662.017      0.169    534.399    660.763    534.399    535.613    534.399
 28.070    805.349    771.704     33.646    534.093    770.284    534.093    535.440    534.093
 28.170    922.000    894.018     27.982    533.787    892.412    533.787    535.292    533.787
 28.270    998.839    954.425     44.414    533.482    952.630    533.482    535.177    533.482
 28.370    940.224    903.441     36.783    533.177    901.450    533.177    535.104    533.177
 28.470    845.275    793.673     51.601    532.873    791.431    532.873    535.087    532.873
 28.570    702.000    708.616     -6.616    532.569    706.023    532.569    535.148    532.569
 28.670    695.000    691.212      3.788    532.265    688.134    532.265    535.327    532.265
 28.770    706.317    736.927    -30.610    531.963    733.181    531.963    535.688    531.963
 28.870    760.000    806.065    -46.065    531.660    801.363    531.660    536.346    531.660
 28.970    821.678    838.936    -17.257    531.359    832.812    531.359    537.481    531.359
 29.070    763.058    800.094    -37.036    531.058    791.818    531.058    539.343    531.058
 29.170    702.000    720.700    -18.700    530.757    709.250    530.757    542.217    530.757
 29.270    695.000    648.515     46.485    530.458    632.638    530.458    546.341    530.458
 29.370    597.000    604.809     -7.809    530.159    583.241    530.159    551.728    530.159
 29.470    581.000    586.511     -5.511    529.860    558.506    529.860    557.864    529.860
 29.570    554.000    581.508    -27.508    529.562    547.800    529.562    563.267    529.562
 29.670    599.129    579.367     19.762    529.265    543.036    529.265    565.594    529.265
 29.770    587.000    574.891     12.109    528.969    540.453    528.969    563.404    528.969
 29.870    588.000    567.880     20.120    528.674    538.759    528.674    557.792    528.674
 29.970    534.529    560.265    -25.737    528.379    537.561    528.379    551.081    528.379
 30.070    570.092    553.567     16.525    528.085    536.727    528.085    544.923    528.085
 30.170    585.875    548.419     37.456    527.791    536.232    527.791    539.976    527.791
 30.270    602.000    544.983     57.017    527.499    536.180    527.499    536.299    527.499
 30.370    580.192    543.474     36.718    527.207    536.995    527.207    533.682    527.207
 30.470    565.290    544.764     20.526    526.916    539.831    526.916    531.843    526.916
 30.570    519.000    550.780    -31.780    526.626    546.873    526.626    530.521    526.626
 30.670    556.000    563.785     -7.785    526.337    560.576    526.337    529.524    526.337
 30.770    603.000    583.678     19.322    526.049    580.962    526.049    528.728    526.049
 30.870    613.298    604.480      8.818    525.762    602.131    525.762    528.058    525.762
 30.970    589.000    613.979    -24.979    525.475    611.924    525.475    527.473    525.475
 31.070    619.000    604.063     14.937    525.190    602.257    525.190    526.949    525.190
 31.170    654.000    582.250     71.750    524.905    580.656    524.905    526.469    524.905
 31.270    564.000    560.743      3.257    524.621    559.325    524.621    526.024    524.621
 31.370    514.880    545.766    -30.885    524.338    544.490    524.338    525.606    524.338
 31.470    517.000    537.510    -20.510    524.057    536.352    524.057    525.210    524.057
 31.570    492.799    533.566    -40.767    523.776    532.507    523.776    524.832    523.776
 31.670    542.146    531.692     10.454    523.496    530.717    523.496    524.469    523.496
 31.770    490.473    530.660    -40.188    523.217    529.758    523.217    524.118    523.217
 31.870    488.621    529.983    -41.362    522.940    529.143    522.940    523.778    522.940
 31.970    555.000    529.497     25.503    522.663    528.711    522.663    523.447    522.663
 32.070    482.833    529.145    -46.312    522.387    528.408    522.387    523.123    522.387
 32.170    511.106    528.907    -17.800    522.113    528.212    522.113    522.806    522.113
 32.270    502.830    528.773    -25.942    521.839    528.115    521.839    522.495    521.839
 32.370    549.379    528.746     20.633    521.567    528.122    521.567    522.190    521.567
 32.470    550.000    528.830     21.170    521.295    528.236    521.295    521.889    521.295
 32.570    537.000    529.040      7.960    521.025    528.472    521.025    521.592    521.025
 32.670    562.000    529.400     32.600    520.756    528.856    520.756    521.299    520.756
 32.770    553.000    529.947     23.053    520.488    529.424    520.488    521.009    520.488
 32.870    555.000    530.733     24.267    520.221    530.230    520.221    520.723    520.221
 32.970    537.000    531.835      5.165    519.955    531.349    519.955    520.440    519.955
 33.070    556.000    533.373     22.627    519.691    532.903    519.691    520.159    519.691
 33.170    547.000    535.558     11.442    519.427    535.102    519.427    519.881    519.427
 33.270    543.262    538.884      4.378    519.165    538.440    519.165    519.606    519.165
 33.370    572.599    544.705     27.895    518.904    544.272    518.904    519.333    518.904
 33.470    533.862    556.670    -22.807    518.644    556.246    518.644    519.062    518.644
 33.570    594.265    582.928     11.337    518.386    582.509    518.386    518.794    518.386
 33.670    631.000    636.759     -5.759    518.129    636.339    518.129    518.527    518.129
 33.770    770.000    730.670     39.330    517.873    730.241    517.873    518.263    517.873
 33.870    874.343    861.542     12.800    517.618    861.102    517.618    518.000    517.618
 33.970    948.303    993.653    -45.350    517.364    993.208    517.364    517.740    517.364
 34.070   1035.507   1058.589    -23.083    517.112   1058.159    517.112    517.481    517.112
 34.170   1057.166   1009.764     47.401    516.861   1009.368    516.861    517.224    516.861
 34.270    874.000    883.696     -9.696    516.611    883.331    516.611    516.969    516.611
 34.370    738.144    749.280    -11.136    516.363    748.932    516.363    516.716    516.363
 34.470    669.000    648.050     20.950    516.116    647.708    516.116    516.464    516.116
 34.570    594.000    587.577      6.423    515.870    587.237    515.870    516.214    515.870
 34.670    545.361    556.951    -11.590    515.625    556.612    515.625    515.966    515.625
 34.770    551.000    542.560      8.440    515.382    542.223    515.382    515.720    515.382
 34.870    513.323    535.392    -22.069    515.141    535.058    515.141    515.475    515.141
 34.970    529.986    531.175     -1.189    514.900    530.843    514.900    515.232    514.900
 35.070    499.000    528.263    -29.263    514.661    527.934    514.661    514.990    514.661
 35.170    493.000    526.059    -33.059    514.423    525.732    514.423    514.750    514.423
 35.270    494.000    524.315    -30.315    514.187    523.990    514.187    514.512    514.187
 35.370    522.000    522.895     -0.895    513.952    522.572    513.952    514.275    513.952
 35.470    534.000    521.716     12.284    513.719    521.394    513.719    514.040    513.719
 35.570    543.000    520.718     22.282    513.487    520.398    513.487    513.806    513.487
 35.670    553.000    519.860     33.140    513.256    519.541    513.256    513.575    513.256
 35.770    532.000    519.113     12.887    513.027    518.795    513.027    513.344    513.027
 35.870    482.447    518.454    -36.007    512.799    518.137    512.799    513.116    512.799
 35.970    507.000    517.867    -10.867    512.572    517.550    512.572    512.888    512.572
 36.070    548.000    517.339     30.661    512.347    517.023    512.347    512.663    512.347
 36.170    479.000    516.861    -37.861    512.124    516.545    512.124    512.439    512.124
 36.270    519.000    516.426      2.574    511.902    516.111    511.902    512.217    511.902
 36.370    489.816    516.030    -26.214    511.681    515.715    511.681    511.996    511.681
 36.470    474.697    515.670    -40.972    511.462    515.354    511.462    511.777    511.462
 36.570    514.000    515.343     -1.343    511.244    515.027    511.244    511.559    511.244
 36.670    540.407    515.050     25.357    511.028    514.735    511.028    511.344    511.028
 36.770    466.000    514.797    -48.797    510.813    514.481    510.813    511.129    510.813
 36.870    519.317    514.598      4.719    510.600    514.282    510.600    510.917    510.600
 36.970    544.421    514.499     29.922    510.388    514.182    510.388    510.706    510.388
 37.070    548.622    514.616     34.006    510.178    514.298    510.178    510.496    510.178
 37.170    522.000    515.191      6.809    509.969    514.872    509.969    510.288    509.969
 37.270    491.000    516.600    -25.600    509.762    516.280    509.762    510.082    509.762
 37.370    543.000    519.189     23.811    509.557    518.869    509.557    509.878    509.557
 37.470    530.000    522.906      7.094    509.352    522.585    509.352    509.675    509.352
 37.570    484.578    526.881    -42.302    509.150    526.560    509.150    509.473    509.150
 37.670    559.000    529.380     29.620    508.949    529.059    508.949    509.274    508.949
 37.770    504.097    528.947    -24.850    508.749    528.626    508.749    509.076    508.749
 37.870    531.229    525.967      5.263    508.551    525.647    508.551    508.879    508.551
 37.970    540.000    522.048     17.952    508.355    521.728    508.355    508.685    508.355
 38.070    540.772    518.442     22.329    508.160    518.121    508.160    508.492    508.160
 38.170    501.000    515.609    -14.609    507.967    515.285    507.967    508.300    507.967
 38.270    510.000    513.585     -3.585    507.775    513.257    507.775    508.111    507.775
 38.370    484.000    512.225    -28.225    507.585    511.892    507.585    507.923    507.585
 38.470    503.131    511.333     -8.201    507.396    510.995    507.396    507.736    507.396
 38.570    528.000    510.741     17.259    507.209    510.400    507.209    507.551    507.209
 38.670    506.266    510.327     -4.061    507.024    509.984    507.024    507.369    507.024
 38.770    509.802    510.013     -0.211    506.840    509.667    506.840    507.187    506.840
 38.870    510.000    509.752      0.248    506.658    509.402    506.658    507.008    506.658
 38.970    493.000    509.519    -16.519    506.477    509.167    506.477    506.830    506.477
 39.070    525.000    509.306     15.694    506.298    508.951    506.298    506.653    506.298
 39.170    504.000    509.106     -5.106    506.121    508.748    506.121    506.479    506.121
 39.270    537.962    508.917     29.045    505.945    508.556    505.945    506.306    505.945
 39.370    514.000    508.738      5.262    505.771    508.374    505.771    506.135    505.771
 39.470    506.000    508.568     -2.568    505.598    508.201    505.598    505.966    505.598
 39.570    505.000    508.406     -3.406    505.427    508.036    505.427    505.798    505.427
 39.670    495.000    508.252    -13.252    505.258    507.878    505.258    505.632    505.258
 39.770    463.000    508.105    -45.105    505.090    507.727    505.090    505.468    505.090
 39.870    532.134    507.965     24.169    504.924    507.584    504.924    505.306    504.924
 39.970    506.000    507.832     -1.832    504.760    507.447    504.760    505.145    504.760
 40.070    506.747    507.708     -0.961    504.597    507.319    504.597    504.986    504.597
 40.170    481.000    507.591    -26.591    504.436    507.198    504.436    504.829    504.436
 40.270    525.000    507.483     17.517    504.276    507.086    504.276    504.674    504.276
 40.370    472.000    507.385    -35.385    504.118    506.983    504.118    504.520    504.118
 40.470    516.108    507.296      8.812    503.962    506.890    503.962    504.368    503.962
 40.570    476.023    507.219    -31.196    503.808    506.809    503.808    504.218    503.808
 40.670    476.000    507.155    -31.155    503.655    506.740    503.655    504.070    503.655
 40.770    486.000    507.106    -21.106    503.503    506.686    503.503    503.924    503.503
 40.870    519.585    507.075     12.510    503.354    506.649    503.354    503.779    503.354
 40.970    516.000    507.064      8.936    503.206    506.633    503.206    503.636    503.206
 41.070    490.000    507.077    -17.077    503.059    506.642    503.059    503.495    503.059
 41.170    536.925    507.122     29.803    502.914    506.681    502.914    503.356    502.914
 41.270    491.000    507.204    -16.204    502.771    506.757    502.771    503.219    502.771
 41.370    473.751    507.334    -33.583    502.630    506.881    502.630    503.084    502.630
 41.470    519.000    507.527     11.473    502.490    507.068    502.490    502.950    502.490
 41.570    546.108    507.804     38.304    502.352    507.339    502.352    502.818    502.352
 41.670    500.314    508.207     -7.893    502.216    507.735    502.216    502.688    502.216
 41.770    498.000    508.822    -10.822    502.081    508.344    502.081    502.560    502.081
 41.870    512.000    509.868      2.132    501.948    509.384    501.948    502.434    501.948
 41.970    498.000    511.867    -13.867    501.816    511.376    501.816    502.310    501.816
 42.070    500.104    515.893    -15.789    501.686    515.397    501.686    502.188    501.686
 42.170    519.000    523.728     -4.728    501.558    523.227    501.558    502.068    501.558
 42.270    503.816    537.490    -33.673    501.432    536.987    501.432    501.949    501.432
 42.370    514.038    558.381    -44.343    501.307    557.879    501.307    501.833    501.307
 42.470    555.000    584.743    -29.743    501.184    584.246    501.184    501.718    501.184
 42.570    588.000    610.371    -22.371    501.062    609.879    501.062    501.606    501.062
 42.670    588.000    625.078    -37.078    500.942    624.587    500.942    501.495    500.942
 42.770    587.273    621.071    -33.798    500.824    620.571    500.824    501.387    500.824
 42.870    548.000    600.725    -52.725    500.708    600.207    500.708    501.281    500.708
 42.970    507.000    573.755    -66.755    500.593    573.213    500.593    501.176    500.593
 43.070    539.884    549.007     -9.123    500.480    548.441    500.480    501.074    500.480
 43.170    501.595    530.777    -29.183    500.368    530.189    500.368    500.974    500.368
 43.270    531.786    519.384     12.402    500.258    518.777    500.258    500.876    500.258
 43.370    548.238    513.093     35.145    500.150    512.469    500.150    500.780    500.150
 43.470    515.000    509.846      5.154    500.043    509.207    500.043    500.686    500.043
 43.570    497.000    508.143    -11.143    499.939    507.489    499.939    500.595    499.939
 43.670    502.000    507.151     -5.151    499.835    506.483    499.835    500.505    499.835
 43.770    523.000    506.491     16.509    499.734    505.807    499.734    500.418    499.734
 43.870    508.000    506.004      1.996    499.634    505.305    499.634    500.334    499.634
 43.970    523.000    505.627     17.373    499.535    504.911    499.535    500.251    499.535
 44.070    472.000    505.326    -33.326    499.439    504.594    499.439    500.172    499.439
 44.170    501.000    505.085     -4.085    499.344    504.335    499.344    500.094    499.344
 44.270    476.173    504.891    -28.718    499.250    504.122    499.250    500.019    499.250
 44.370    543.952    504.734     39.218    499.159    503.946    499.159    499.947    499.159
 44.470    468.290    504.609    -36.319    499.069    503.800    499.069    499.877    499.069
 44.570    519.000    504.511     14.489    498.980    503.681    498.980    499.811    498.980
 44.670    531.000    504.436     26.564    498.893    503.583    498.893    499.746    498.893
 44.770    532.000    504.382     27.618    498.808    503.505    498.808    499.685    498.808
 44.870    535.184    504.347     30.837    498.725    503.445    498.725    499.627    498.725
 44.970    528.485    504.331     24.154    498.643    503.402    498.643    499.572    498.643
 45.070    538.000    504.331     33.669    498.563    503.374    498.563    499.520    498.563
 45.170    525.000    504.348     20.652    498.484    503.361    498.484    499.471    498.484
 45.270    460.908    504.381    -43.473    498.407    503.362    498.407    499.426    498.407
 45.370    491.473    504.431    -12.958    498.332    503.378    498.332    499.385    498.332
 45.470    511.000    504.498      6.502    498.258    503.408    498.258    499.348    498.258
 45.570    532.840    504.583     28.257    498.186    503.454    498.186    499.314    498.186
 45.670    496.000    504.687     -8.687    498.115    503.516    498.115    499.285    498.115
 45.770    557.000    504.810     52.190    498.046    503.596    498.046    499.261    498.046
 45.870    463.167    504.956    -41.789    497.979    503.694    497.979    499.241    497.979
 45.970    518.938    505.126     13.813    497.913    503.812    497.913    499.227    497.913
 46.070    481.000    505.322    -24.322    497.849    503.953    497.849    499.218    497.849
 46.170    492.000    505.549    -13.549    497.787    504.120    497.787    499.215    497.787
 46.270    463.000    505.810    -42.810    497.726    504.316    497.726    499.219    497.726
 46.370    519.000    506.110     12.890    497.667    504.545    497.667    499.230    497.667
 46.470    463.219    506.457    -43.238    497.609    504.816    497.609    499.250    497.609
 46.570    500.524    506.864     -6.340    497.553    505.138    497.553    499.277    497.553
 46.670    472.000    507.342    -35.342    497.498    505.524    497.498    499.315    497.498
 46.770    510.663    507.915      2.748    497.445    505.996    497.445    499.363    497.445
 46.870    514.000    508.633      5.367    497.394    506.602    497.394    499.423    497.394
 46.970    509.292    509.608     -0.316    497.344    507.452    497.344    499.497    497.344
 47.070    526.501    511.087     15.414    497.296    508.794    497.296    499.586    497.296
 47.170    558.569    513.571     44.997    497.249    511.123    497.249    499.693    497.249
 47.270    506.000    517.900    -11.900    497.204    515.276    497.204    499.820    497.204
 47.370    495.888    525.170    -29.282    497.161    522.347    497.161    499.970    497.161
 47.470    544.000    536.317      7.683    497.119    533.266    497.119    500.148    497.119
 47.570    549.545    551.334     -1.789    497.078    548.022    497.078    500.358    497.078
 47.670    610.945    568.419     42.526    497.039    564.808    497.039    500.606    497.039
 47.770    628.000    583.512     44.488    497.002    579.560    497.002    500.899    497.002
 47.870    618.000    591.164     26.836    496.966    586.823    496.966    501.248    496.966
 47.970    544.656    588.145    -43.489    496.932    583.357    496.932    501.666    496.932
 48.070    598.000    576.654     21.346    496.899    571.339    496.899    502.171    496.899
 48.170    586.000    562.037     23.963    496.868    556.083    496.868    502.790    496.868
 48.270    555.000    548.881      6.119    496.838    542.131    496.838    503.567    496.838
 48.370    559.248    539.636     19.612    496.809    531.857    496.809    504.575    496.809
 48.470    536.911    534.851      2.060    496.783    525.689    496.783    505.936    496.783
 48.570    527.886    534.009     -6.123    496.757    522.910    496.757    507.851    496.757
 48.670    527.000    536.386     -9.386    496.734    522.488    496.734    510.627    496.734
 48.770    528.543    541.591    -13.048    496.711    523.599    496.711    514.699    496.711
 48.870    530.000    549.707    -19.707    496.691    525.785    496.691    520.608    496.691
 48.970    502.000    561.177    -59.177    496.671    528.922    496.671    528.921    496.671
 49.070    579.000    576.609      2.391    496.653    533.183    496.653    540.073    496.653
 49.170    574.000    596.700    -22.700    496.637    539.202    496.637    554.126    496.637
 49.270    601.000    622.534    -21.534    496.622    548.694    496.622    570.451    496.622
 49.370    716.000    656.699     59.301    496.609    565.988    496.609    587.302    496.609
 49.470    711.000    705.706      5.294    496.597    600.773    496.597    601.502    496.597
 49.570    849.000    783.802     65.198    496.586    671.339    496.586    608.999    496.586
 49.670    889.904    915.808    -25.904    496.577    805.211    496.577    607.091    496.577
 49.770   1177.000   1132.048     44.952    496.569   1031.942    496.569    596.548    496.569
 49.870   1478.000   1449.308     28.692    496.563   1364.785    496.563    580.914    496.563
 49.970   1823.000   1843.850    -20.850    496.558   1776.197    496.558    564.020    496.558
 50.070   2290.213   2233.823     56.391    496.555   2181.753    496.555    548.465    496.555
 50.170   2542.000   2491.622     50.378    496.553   2452.591    496.553    535.515    496.553
 50.270   2559.000   2505.636     53.364    496.552   2476.745    496.552    525.497    496.552
 50.370   2300.000   2264.677     35.323    496.553   2243.203    496.553    518.175    496.553
 50.470   1908.664   1869.296     39.368    496.555   1852.993    496.555    513.042    496.555
 50.570   1322.000   1452.310   -130.310    496.559   1439.510    496.559    509.528    496.559
 50.670   1085.549   1107.936    -22.388    496.564   1097.501    496.564    507.129    496.564
 50.770    776.000    872.290    -96.290    496.570    863.489    496.570    505.461    496.570
 50.870    692.423    735.870    -43.447    496.578    728.249    496.578    504.260    496.578
 50.970    717.571    667.615     49.956    496.587    660.888    496.587    503.359    496.587
 51.070    682.000    635.312     46.688    496.597    629.290    496.597    502.658    496.597
 51.170    648.000    616.194     31.806    496.609    610.741    496.609    502.096    496.609
 51.270    582.295    599.294    -16.999    496.622    594.307    496.622    501.637    496.622
 51.370    609.621    582.345     27.276    496.636    577.746    496.636    501.258    496.636
 51.470    541.196    566.700    -25.505    496.652    562.426    496.652    500.942    496.652
 51.570    600.802    553.922     46.880    496.669    549.923    496.669    500.679    496.669
 51.670    577.000    544.648     32.352    496.687    540.883    496.687    500.459    496.687
 51.770    564.000    538.608     25.392    496.707    535.045    496.707    500.275    496.707
 51.870    509.332    535.062    -25.730    496.728    531.671    496.728    500.122    496.728
 51.970    560.440    533.227     27.213    496.750    529.984    496.750    499.995    496.750
 52.070    526.000    532.538     -6.538    496.773    529.421    496.773    499.892    496.773
 52.170    536.000    532.704      3.296    496.798    529.695    496.798    499.808    496.798
 52.270    502.000    533.678    -31.678    496.824    530.761    496.824    499.743    496.824
 52.370    600.000    535.655     64.345    496.852    532.815    496.852    499.692    496.852
 52.470    587.000    539.218     47.782    496.880    536.443    496.880    499.656    496.880
 52.570    561.938    545.689     16.248    496.910    542.966    496.910    499.633    496.910
 52.670    587.000    557.713     29.287    496.941    555.031    496.941    499.621    496.941
 52.770    598.000    579.867     18.133    496.973    577.218    496.973    499.620    496.973
 52.870    647.000    618.762     28.238    497.007    616.136    497.007    499.629    497.007
 52.970    737.000    681.786     55.214    497.042    679.173    497.042    499.647    497.042
 53.070    784.027    773.914     10.113    497.077    771.308    497.077    499.674    497.077
 53.170    891.000    893.044     -2.044    497.115    890.439    497.115    499.709    497.115
 53.270   1027.696   1025.492      2.204    497.153   1022.884    497.153    499.753    497.153
 53.370   1100.000   1143.991    -43.991    497.192   1141.379    497.192    499.804    497.192
 53.470   1188.000   1212.741    -24.741    497.233   1210.122    497.233    499.863    497.233
 53.570   1231.739   1205.447     26.292    497.275   1202.818    497.275    499.929    497.275
 53.670   1113.000   1125.430    -12.430    497.318   1122.778    497.318    500.002    497.318
 53.770   1000.000   1002.509     -2.509    497.362    999.821    497.362    500.083    497.362
 53.870    884.095    871.602     12.493    497.407    868.867    497.407    500.172    497.407
 53.970    778.887    757.478     21.408    497.454    754.687    497.454    500.268    497.454
 54.070    629.000    671.426    -42.426    497.501    668.572    497.501    500.371    497.501
 54.170    636.318    613.890     22.428    497.550    610.966    497.550    500.483    497.550
 54.270    614.495    579.157     35.338    497.600    576.159    497.600    500.603    497.600
 54.370    568.000    559.836      8.164    497.650    556.758    497.650    500.732    497.650
 54.470    617.000    549.664     67.336    497.702    546.499    497.702    500.869    497.702
 54.570    539.000    544.451     -5.451    497.755    541.192    497.755    501.016    497.755
 54.670    585.692    541.838     43.854    497.810    538.475    497.810    501.173    497.810
 54.770    553.000    540.663     12.337    497.865    537.188    497.865    501.341    497.865
 54.870    526.000    540.410    -14.410    497.921    536.812    497.921    501.520    497.921
 54.970    518.444    540.869    -22.425    497.978    537.137    497.978    501.711    497.978
 55.070    541.000    541.968     -0.968    498.037    538.089    498.037    501.916    498.037
 55.170    565.000    543.700     21.300    498.096    539.662    498.096    502.134    498.096
 55.270    565.000    546.108     18.892    498.156    541.896    498.156    502.369    498.156
 55.370    575.000    549.280     25.720    498.218    544.878    498.218    502.620    498.218
 55.470    530.000    553.374    -23.374    498.280    548.764    498.280    502.890    498.280
 55.570    577.156    558.687     18.469    498.344    553.850    498.344    503.180    498.344
 55.670    598.000    565.836     32.164    498.408    560.750    498.408    503.494    498.408
 55.770    584.564    576.166      8.397    498.473    570.806    498.473    503.832    498.473
 55.870    588.000    592.567     -4.567    498.540    586.905    498.540    504.199    498.540
 55.970    651.000    620.805     30.195    498.607    614.808    498.607    504.597    498.607
 56.070    663.000    671.141     -8.141    498.675    664.772    498.675    505.032    498.675
 56.170    752.341    759.297     -6.956    498.744    752.511    498.744    505.506    498.744
 56.270    829.000    905.016    -76.016    498.815    897.764    498.815    506.027    498.815
 56.370   1190.100   1126.411     63.689    498.886   1118.639    498.886    506.600    498.886
 56.470   1373.066   1429.871    -56.806    498.958   1421.523    498.958    507.233    498.958
 56.570   1799.247   1798.255      0.992    499.030   1789.276    499.030    507.936    499.030
 56.670   2039.000   2182.204   -143.204    499.104   2172.537    499.104    508.720    499.104
 56.770   2519.000   2500.264     18.736    499.179   2489.846    499.179    509.599    499.179
 56.870   2604.737   2658.823    -54.086    499.254   2647.572    499.254    510.589    499.254
 56.970   2621.000   2601.554     19.446    499.331   2589.343    499.331    511.712    499.331
 57.070   2428.557   2351.479     77.078    499.408   2338.120    499.408    512.994    499.408
 57.170   2075.356   1991.533     83.823    499.486   1976.787    499.486    514.472    499.486
 57.270   1612.000   1612.267     -0.267    499.565   1595.853    499.565    516.195    499.565
 57.370   1298.703   1278.879     19.824    499.645   1260.455    499.645    518.240    499.645
 57.470   1084.000   1023.204     60.796    499.726   1002.326    499.726    520.726    499.726
 57.570    818.000    848.969    -30.969    499.807    825.010    499.807    523.844    499.807
 57.670    796.175    742.890     53.285    499.889    714.916    499.889    527.909    499.889
 57.770    662.352    686.228    -23.876    499.972    652.811    499.972    533.413    499.972
 57.870    724.000    662.891     61.109    500.056    621.862    500.056    541.094    500.056
 57.970    676.000    662.952     13.048    500.141    611.113    500.141    551.978    500.141
 58.070    673.000    682.703     -9.703    500.226    615.547    500.226    567.370    500.226
 58.170    749.499    722.933     26.566    500.312    634.486    500.312    588.737    500.312
 58.270    762.097    786.400    -24.303    500.399    669.301    500.399    617.463    500.399
 58.370    876.000    875.293      0.707    500.487    721.263    500.487    654.469    500.487
 58.470    975.000    988.848    -13.848    500.575    789.637    500.575    699.728    500.575
 58.570   1138.000   1121.409     16.591    500.664    870.326    500.664    751.682    500.664
 58.670   1260.118   1261.469     -1.350    500.754    955.607    500.754    806.552    500.754
 58.770   1391.000   1392.807     -1.807    500.844   1035.988    500.844    857.610    500.844
 58.870   1556.000   1497.760     58.240    500.935   1103.387    500.935    895.269    500.935
 58.970   1529.297   1560.477    -31.180    501.027   1151.685    501.027    909.800    501.027
 59.070   1649.000   1570.358     78.642    501.119   1174.716    501.119    896.763    501.119
 59.170   1568.000   1527.228     40.772    501.212   1168.217    501.212    860.241    501.212
 59.270   1455.000   1444.088     10.912    501.306   1135.587    501.306    809.829    501.306
 59.370   1428.000   1342.473     85.527    501.401   1088.698    501.401    755.188    501.401
 59.470   1220.519   1244.066    -23.547    501.496   1042.358    501.496    703.193    501.496
 59.570   1166.000   1166.764     -0.764    501.591   1010.555    501.591    657.756    501.591
 59.670   1162.527   1125.651     36.876    501.687   1006.719    501.687    620.530    501.687
 59.770   1146.000   1132.394     13.606    501.784   1042.430    501.784    591.608    501.784
 59.870   1241.000   1190.439     50.561    501.882   1122.018    501.882    570.106    501.882
 59.970   1297.000   1290.086      6.914    501.980   1237.161    501.980    554.652    501.980
 60.070   1498.000   1406.900     91.100    502.078   1364.905    502.078    543.780    502.078
 60.170   1567.000   1504.358     62.642    502.177   1470.053    502.177    536.176    502.177
 60.270   1605.000   1543.529     61.471    502.277   1514.724    502.277    530.798    502.277
 60.370   1514.818   1501.625     13.193    502.377   1476.874    502.377    526.899    502.377
 60.470   1361.995   1385.977    -23.982    502.478   1364.315    502.478    523.978    502.478
 60.570   1295.000   1226.695     68.305    502.579   1207.454    502.579    521.720    502.579
 60.670   1094.000   1058.297     35.703    502.681   1040.988    502.681    519.936    502.681
 60.770    886.000    907.350    -21.350    502.783    891.594    502.783    518.514    502.783
 60.870    818.115    788.434     29.681    502.886    773.917    502.886    517.393    502.886
 60.970    663.000    705.167    -42.167    502.989    691.614    502.989    516.537    502.989
 61.070    702.130    654.035     48.095    503.092    641.192    503.092    515.928    503.092
 61.170    581.263    629.058    -47.795    503.196    616.689    503.196    515.553    503.196
 61.270    635.564    625.618      9.946    503.301    613.500    503.301    515.398    503.301
 61.370    657.000    642.506     14.494    503.406    630.437    503.406    515.442    503.406
 61.470    671.000    682.069    -11.069    503.511    669.884    503.511    515.646    503.511
 61.570    752.000    748.630      3.370    503.617    736.225    503.617    515.948    503.617
 61.670    894.000    845.500     48.500    503.723    832.865    503.723    516.252    503.723
 61.770    970.000    971.249     -1.249    503.830    958.505    503.830    516.435    503.830
 61.870   1054.000   1116.353    -62.353    503.937   1103.750    503.937    516.369    503.937
 61.970   1235.253   1261.463    -26.211    504.044   1249.329    504.044    515.988    504.044
 62.070   1407.573   1378.611     28.962    504.152   1367.253    504.152    515.319    504.152
 62.170   1343.000   1437.887    -94.887    504.260   1427.516    504.260    514.465    504.260
 62.270   1397.017   1421.093    -24.076    504.368   1411.794    504.368    513.543    504.368
 62.370   1334.000   1333.243      0.757    504.477   1324.995    504.477    512.649    504.477
 62.470   1186.000   1198.950    -12.950    504.586   1191.658    504.586    511.841    504.586
 62.570   1017.000   1048.457    -31.457    504.695   1041.994    504.695    511.150    504.695
 62.670    879.000    906.658    -27.658    504.805    900.884    504.805    510.585    504.805
 62.770    744.000    788.806    -44.806    504.914    783.592    504.914    510.140    504.914
 62.870    731.612    700.539     31.073    505.025    695.772    505.025    509.802    505.025
 62.970    607.000    640.220    -33.220    505.135    635.811    505.135    509.551    505.135
 63.070    625.000    602.241     22.759    505.246    598.120    505.246    509.369    505.246
 63.170    626.000    580.027     45.973    505.357    576.143    505.357    509.239    505.357
 63.270    585.000    567.978     17.022    505.468    564.294    505.468    509.149    505.468
 63.370    598.226    562.265     35.961    505.579    558.751    505.579    509.087    505.579
 63.470    565.000    560.864      4.136    505.691    557.500    505.691    509.048    505.691
 63.570    618.000    563.300     54.700    505.802    560.067    505.802    509.025    505.802
 63.670    559.000    570.360    -11.360    505.914    567.244    505.914    509.016    505.914
 63.770    602.000    583.853     18.147    506.027    580.840    506.027    509.018    506.027
 63.870    604.000    606.272     -2.272    506.139    603.350    506.139    509.030    506.139
 63.970    623.000    640.204    -17.204    506.251    637.360    506.251    509.051    506.251
 64.070    689.000    687.404      1.596    506.364    684.627    506.364    509.079    506.364
 64.170    792.000    747.646     44.354    506.477    744.926    506.477    509.114    506.477
 64.270    780.733    817.615    -36.881    506.589    814.944    506.589    509.155    506.589
 64.370    854.504    890.196    -35.693    506.702    887.573    506.702    509.202    506.702
 64.470    929.835    954.701    -24.865    506.816    952.128    506.816    509.254    506.816
 64.570   1052.794    999.107     53.688    506.929    996.591    506.929    509.311    506.929
 64.670    994.000   1014.736    -20.736    507.042   1012.287    507.042    509.372    507.042
 64.770    994.000   1000.117     -6.117    507.155    997.740    507.155    509.437    507.155
 64.870    971.594    960.586     11.008    507.269    958.282    507.269    509.506    507.269
 64.970    945.158    905.392     39.766    507.382    903.158    507.382    509.579    507.382
 65.070    888.000    844.621     43.379    507.496    842.449    507.496    509.655    507.496
 65.170    842.868    786.367     56.501    507.609    784.248    507.609    509.735    507.609
 65.270    691.038    735.150    -44.112    507.723    733.075    507.723    509.817    507.723
 65.370    675.000    692.223    -17.223    507.836    690.182    507.836    509.902    507.836
 65.470    641.000    657.081    -16.081    507.950    655.067    507.950    509.990    507.950
 65.570    652.000    628.828     23.172    508.063    626.833    508.063    510.081    508.063
 65.670    588.000    606.628    -18.628    508.177    604.648    508.177    510.174    508.177
 65.770    622.441    589.684     32.756    508.290    587.717    508.290    510.269    508.290
 65.870    555.000    577.232    -22.232    508.404    575.276    508.404    510.367    508.404
 65.970    547.000    568.550    -21.550    508.517    566.603    508.517    510.467    508.517
 66.070    552.395    562.964    -10.569    508.631    561.026    508.631    510.570    508.631
 66.170    563.000    559.860      3.140    508.744    557.929    508.744    510.674    508.744
 66.270    558.000    558.713     -0.713    508.857    556.788    508.857    510.781    508.857
 66.370    540.000    559.127    -19.127    508.970    557.206    508.970    510.890    508.970
 66.470    524.000    560.880    -36.880    509.083    558.962    509.083    511.000    509.083
 66.570    521.973    563.978    -42.004    509.196    562.060    509.196    511.113    509.196
 66.670    593.000    568.754     24.246    509.309    566.834    509.309    511.228    509.309
 66.770    564.703    576.058    -11.355    509.421    574.134    509.421    511.346    509.421
 66.870    614.631    587.594     27.036    509.534    585.662    509.534    511.465    509.534
 66.970    606.619    606.405      0.215    509.646    604.462    509.646    511.586    509.646
 67.070    623.000    637.417    -14.417    509.758    635.459    509.758    511.710    509.758
 67.170    671.000    687.819    -16.819    509.870    685.843    509.870    511.836    509.870
 67.270    750.000    766.859    -16.859    509.982    764.860    509.982    511.964    509.982
 67.370    848.000    884.597    -36.597    510.093    882.575    510.093    512.093    510.093
 67.470   1021.000   1049.342    -28.342    510.205   1047.294    510.205    512.225    510.205
 67.570   1273.232   1263.933      9.299    510.316   1261.863    510.316    512.361    510.316
 67.670   1595.429   1521.737     73.692    510.427   1519.652    510.427    512.500    510.427
 67.770   1807.615   1803.540      4.076    510.537   1801.452    510.537    512.641    510.537
 67.870   2082.000   2076.546      5.454    510.648   2074.469    510.648    512.785    510.648
 67.970   2276.000   2296.987    -20.987    510.758   2294.935    510.758    512.933    510.758
 68.070   2345.000   2419.402    -74.402    510.868   2417.381    510.868    513.084    510.868
 68.170   2378.000   2413.943    -35.943    510.977   2411.941    510.977    513.239    510.977
 68.270   2361.289   2282.131     79.158    511.086   2280.122    511.086    513.398    511.086
 68.370   2103.000   2055.910     47.090    511.195   2053.855    511.195    513.561    511.195
 68.470   1709.892   1781.101    -71.209    511.304   1778.967    511.304    513.728    511.304
 68.570   1550.000   1500.740     49.260    511.412   1498.502    511.412    513.901    511.412
 68.670   1257.000   1246.501     10.499    511.520   1244.145    511.520    514.078    511.520
 68.770    999.000   1036.460    -37.460    511.628   1033.978    511.628    514.262    511.628
 68.870    921.000    876.315     44.685    511.735    873.706    511.735    514.452    511.735
 68.970    741.000    762.613    -21.613    511.842    759.879    511.842    514.649    511.842
 69.070    720.000    686.780     33.220    511.949    683.922    511.949    514.854    511.949
 69.170    673.000    638.749     34.251    512.055    635.767    512.055    515.068    512.055
 69.270    611.000    609.419      1.581    512.161    606.308    512.161    515.290    512.161
 69.370    600.733    591.786      8.947    512.266    588.541    512.266    515.524    512.266
 69.470    604.000    581.086     22.914    512.371    577.697    512.371    515.768    512.371
 69.570    602.000    574.379     27.621    512.476    570.834    512.476    516.026    512.476
 69.670    588.000    569.996     18.004    512.580    566.281    512.580    516.298    512.580
 69.770    598.000    567.050     30.950    512.684    563.150    512.684    516.587    512.684
 69.870    607.000    565.092     41.908    512.787    560.987    512.787    516.894    512.787
 69.970    581.000    563.899     17.101    512.890    559.568    512.890    517.222    512.890
 70.070    587.794    563.371     24.423    512.992    558.790    512.992    517.573    512.992
 70.170    532.520    563.475    -30.954    513.094    558.617    513.094    517.951    513.094
 70.270    608.000    564.235     43.765    513.195    559.068    513.195    518.360    513.195
 70.370    560.974    565.759     -4.785    513.296    560.248    513.296    518.805    513.296
 70.470    574.000    568.281      5.719    513.396    562.382    513.396    519.291    513.396
 70.570    536.253    572.260    -36.007    513.496    565.926    513.496    519.825    513.496
 70.670    567.000    578.552    -11.552    513.595    571.724    513.595    520.415    513.595
 70.770    567.000    588.638    -21.638    513.694    581.245    513.694    521.075    513.694
 70.870    542.000    604.906    -62.906    513.792    596.862    513.792    521.818    513.792
 70.970    615.699    630.903    -15.204    513.890    622.095    513.890    522.670    513.890
 71.070    631.262    671.397    -40.135    513.987    661.675    513.987    523.667    513.987
 71.170    732.000    732.072     -0.072    514.083    721.229    514.083    524.865    514.083
 71.270    746.000    818.646    -72.646    514.179    806.380    514.179    526.358    514.179
 71.370    879.000    935.375    -56.375    514.274    921.244    514.274    528.288    514.274
 71.470   1091.000   1083.117      7.883    514.369   1066.459    514.369    530.876    514.369
 71.570   1223.000   1257.392    -34.392    514.463   1237.231    514.463    534.441    514.463
 71.670   1397.000   1446.985    -49.985    514.556   1421.909    514.556    539.422    514.556
 71.770   1616.000   1633.582    -17.582    514.649   1601.623    514.649    546.383    514.649
 71.870   1823.000   1793.051     29.949    514.741   1751.581    514.741    555.988    514.741
 71.970   1920.792   1899.637     21.155    514.833   1845.332    514.833    568.936    514.833
 72.070   1923.000   1934.090    -11.090    514.924   1863.003    514.924    585.843    514.924
 72.170   1864.227   1892.611    -28.384    515.014   1800.405    515.014    607.094    515.014
 72.270   1808.517   1789.028     19.489    515.103   1671.391    515.103    632.653    515.103
 72.370   1699.000   1647.630     51.370    515.192   1500.885    515.192    661.881    515.192
 72.470   1519.039   1493.382     25.657    515.280   1315.265    515.280    693.364    515.280
 72.570   1328.157   1345.697    -17.540    515.368   1136.272    515.368    724.772    515.368
 72.670   1236.000   1216.057     19.943    515.454    978.682    515.454    752.816    515.454
 72.770   1087.000   1108.095    -21.095    515.540    850.093    515.540    773.532    515.540
 72.870    908.000   1019.570   -111.570    515.625    751.968    515.625    783.218    515.625
 72.970    991.217    945.630     45.588    515.710    681.430    515.710    779.899    515.710
 73.070    835.000    881.828    -46.828    515.793    633.295    515.793    764.317    515.793
 73.170    811.510    825.463    -13.953    515.876    601.809    515.876    739.523    515.876
 73.270    659.000    775.351   -116.351    515.958    581.813    515.958    709.490    515.958
 73.370    636.000    731.149    -95.149    516.040    569.298    516.040    677.887    516.040
 73.470    707.513    692.869     14.644    516.120    561.473    516.120    647.514    516.120
 73.570    632.357    660.601    -28.244    516.200    556.584    516.200    620.217    516.200
 73.670    606.000    634.340    -28.340    516.279    553.625    516.279    596.995    516.279
 73.770    583.000    613.867    -30.867    516.357    552.072    516.357    578.157    516.357
 73.870    625.000    598.723     26.277    516.435    551.663    516.435    563.502    516.435
 73.970    588.000    588.233     -0.233    516.511    552.250    516.511    552.506    516.511
 74.070    648.000    581.577     66.423    516.587    553.686    516.587    544.495    516.587
 74.170    622.890    577.855     45.034    516.662    555.762    516.662    538.778    516.662
 74.270    584.000    576.144      7.856    516.736    558.170    516.736    534.739    516.736
 74.370    636.000    575.532     60.468    516.809    560.500    516.809    531.876    516.809
 74.470    627.000    575.162     51.838    516.881    562.268    516.881    529.814    516.881
 74.570    603.000    574.304     28.696    516.952    563.012    516.952    528.287    516.952
 74.670    661.000    572.491     88.509    517.023    562.439    517.023    527.118    517.023
 74.770    597.564    569.619     27.945    517.093    560.562    517.093    526.190    517.093
 74.870    623.000    565.927     57.073    517.161    557.693    517.161    525.432    517.161
 74.970    605.543    561.863     43.680    517.229    554.325    517.229    524.798    517.229
 75.070    593.000    557.932     35.068    517.296    550.994    517.296    524.258    517.296
 75.170    607.000    554.625     52.375    517.362    548.211    517.362    523.793    517.362
 75.270    513.256    552.405    -39.150    517.427    546.453    517.427    523.391    517.427
 75.370    546.000    551.727     -5.727    517.491    546.185    517.491    523.040    517.491
 75.470    522.676    553.065    -30.389    517.554    547.887    517.554    522.732    517.554
 75.570    570.000    556.928     13.072    517.616    552.077    517.616    522.463    517.616
 75.670    565.000    563.840      1.160    517.677    559.282    517.677    522.225    517.677
 75.770    570.000    574.259     -4.259    517.737    569.962    517.737    522.016    517.737
 75.870    605.000    588.435     16.565    517.796    584.375    517.796    521.832    517.796
 75.970    638.000    606.243     31.757    517.855    602.396    517.855    521.668    517.855
 76.070    599.000    627.007    -28.007    517.912    623.352    517.912    521.524    517.912
 76.170    601.000    649.387    -48.387    517.968    645.907    517.968    521.396    517.968
 76.270    681.000    671.350      9.650    518.023    668.031    518.023    521.283    518.023
 76.370    689.000    690.275     -1.275    518.077    687.105    518.077    521.183    518.077
 76.470    702.000    703.290     -1.290    518.130    700.260    518.130    521.094    518.130
 76.570    692.000    707.985    -15.985    518.182    705.089    518.182    521.015    518.182
 76.670    720.000    703.354     16.646    518.234    700.585    518.234    520.945    518.234
 76.770    664.000    690.284    -26.284    518.284    687.634    518.284    520.884    518.284
 76.870    671.000    671.110     -0.110    518.332    668.573    518.332    520.829    518.332
 76.970    635.000    648.684    -13.684    518.380    646.252    518.380    520.781    518.380
 77.070    625.000    625.635     -0.635    518.427    623.301    518.427    520.739    518.427
 77.170    563.000    604.012    -41.012    518.473    601.767    518.473    520.701    518.473
 77.270    539.000    585.158    -46.158    518.518    582.996    518.518    520.669    518.518
 77.370    559.103    569.728    -10.624    518.561    567.641    518.561    520.640    518.561
 77.470    533.000    557.798    -24.798    518.604    555.781    518.604    520.616    518.604
 77.570    568.772    549.034     19.738    518.645    547.082    518.645    520.594    518.645
 77.670    516.837    542.881    -26.044    518.685    540.988    518.685    520.575    518.685
 77.770    540.000    538.717      1.283    518.724    536.880    518.724    520.560    518.724
 77.870    533.474    535.976     -2.502    518.762    534.191    518.762    520.546    518.762
 77.970    526.478    534.198     -7.720    518.799    532.461    518.799    520.535    518.799
 78.070    530.429    533.041     -2.612    518.835    531.349    518.835    520.525    518.835
 78.170    518.000    532.275    -14.275    518.870    530.626    518.870    520.517    518.870
 78.270    545.000    531.755     13.245    518.903    530.145    518.903    520.511    518.903
 78.370    553.008    531.377     21.631    518.935    529.805    518.935    520.506    518.935
 78.470    527.000    531.110     -4.110    518.966    529.573    518.966    520.503    518.966
 78.570    570.000    530.966     39.034    518.996    529.461    518.996    520.501    518.996
 78.670    559.000    530.920     28.080    519.025    529.444    519.025    520.500    519.025
 78.770    530.000    530.978     -0.978    519.053    529.530    519.053    520.500    519.053
 78.870    546.332    531.160     15.172    519.079    529.737    519.079    520.502    519.079
 78.970    559.640    531.495     28.146    519.105    530.092    519.105    520.506    519.105
 79.070    571.000    532.013     38.987    519.129    530.628    519.129    520.512    519.129
 79.170    505.490    532.750    -27.259    519.151    531.379    519.151    520.521    519.151
 79.270    530.443    533.738     -3.295    519.173    532.376    519.173    520.533    519.173
 79.370    504.000    535.005    -31.005    519.194    533.646    519.194    520.549    519.194
 79.470    575.717    536.574     39.143    519.213    535.212    519.213    520.571    519.213
 79.570    525.000    538.470    -13.470    519.231    537.096    519.231    520.600    519.231
 79.670    513.000    540.729    -27.729    519.248    539.335    519.248    520.636    519.248
 79.770    570.000    543.417     26.583    519.263    541.993    519.263    520.681    519.263
 79.870    558.845    546.652     12.193    519.277    545.189    519.277    520.734    519.277
 79.970    533.000    550.636    -17.636    519.290    549.125    519.290    520.796    519.290
 80.070    544.000    555.681    -11.681    519.302    554.114    519.302    520.864    519.302
 80.170    603.894    562.213     41.680    519.313    560.584    519.313    520.938    519.313
 80.270    570.000    570.725     -0.725    519.322    569.032    519.322    521.013    519.322
 80.370    565.000    581.678    -16.678    519.330    579.924    519.330    521.084    519.330
 80.470    630.000    595.381     34.619    519.337    593.576    519.337    521.146    519.337
 80.570    590.243    611.881    -21.638    519.342    610.042    519.342    521.190    519.342
 80.670    647.000    630.875     16.125    519.347    629.024    519.347    521.210    519.347
 80.770    645.000    651.661     -6.661    519.350    649.826    519.350    521.202    519.350
 80.870    663.000    673.164    -10.164    519.351    671.372    519.351    521.166    519.351
 80.970    682.937    694.047    -11.111    519.352    692.323    519.352    521.106    519.352
 81.070    714.000    712.912      1.088    519.351    711.270    519.351    521.028    519.351
 81.170    719.000    728.485     -9.485    519.348    726.936    519.348    520.940    519.348
 81.270    791.555    739.733     51.822    519.345    738.278    519.345    520.848    519.345
 81.370    723.000    745.940    -22.940    519.340    744.577    519.340    520.757    519.340
 81.470    780.000    746.788     33.212    519.334    745.511    519.334    520.670    519.334
 81.570    740.047    742.377     -2.330    519.326    741.176    519.326    520.590    519.326
 81.670    739.000    733.177      5.823    519.318    732.042    519.318    520.518    519.318
 81.770    760.000    720.005     39.995    519.307    718.924    519.307    520.453    519.307
 81.870    720.004    704.002     16.001    519.296    702.966    519.296    520.397    519.296
 81.970    710.000    686.471     23.529    519.283    685.469    519.283    520.347    519.283
 82.070    696.000    668.599     27.401    519.269    667.625    519.269    520.303    519.269
 82.170    716.000    651.240     64.760    519.254    650.286    519.254    520.264    519.254
 82.270    672.708    634.862     37.845    519.237    633.924    519.237    520.228    519.237
 82.370    632.000    619.656     12.344    519.219    618.728    519.219    520.195    519.219
 82.470    628.000    605.707     22.293    519.199    604.787    519.199    520.163    519.199
 82.570    603.000    593.124      9.876    519.179    592.208    519.179    520.132    519.179
 82.670    558.009    582.061    -24.052    519.156    581.147    519.156    520.101    519.156
 82.770    593.788    572.684     21.104    519.133    571.771    519.133    520.071    519.133
 82.870    525.000    565.137    -40.137    519.108    564.223    519.108    520.040    519.108
 82.970    561.433    559.526      1.907    519.082    558.610    519.082    520.009    519.082
 83.070    534.000    555.907    -21.907    519.054    554.988    519.054    519.977    519.054
 83.170    521.000    554.271    -33.271    519.025    553.350    519.025    519.944    519.025
 83.270    548.000    554.525     -6.525    518.995    553.599    518.995    519.910    518.995
 83.370    541.200    556.467    -15.267    518.963    555.537    518.963    519.876    518.963
 83.470    534.000    559.784    -25.784    518.930    558.849    518.930    519.841    518.930
 83.570    529.000    564.045    -35.045    518.896    563.105    518.896    519.804    518.896
 83.670    586.067    568.713     17.354    518.860    567.769    518.860    519.767    518.860
 83.770    563.663    573.172     -9.509    518.823    572.224    518.823    519.729    518.823
 83.870    569.748    576.775     -7.027    518.784    575.825    518.784    519.690    518.784
 83.970    523.000    578.930    -55.930    518.744    577.979    518.744    519.650    518.744
 84.070    553.000    579.219    -26.219    518.703    578.269    518.703    519.608    518.703
 84.170    560.000    577.517    -17.517    518.660    576.569    518.660    519.566    518.660
 84.270    608.000    574.023     33.977    518.616    573.078    518.616    519.523    518.616
 84.370    577.000    569.174      7.826    518.570    568.233    518.570    519.478    518.570
 84.470    518.000    563.514    -45.514    518.523    562.577    518.523    519.433    518.523
 84.570    578.054    557.575     20.479    518.475    556.641    518.475    519.386    518.475
 84.670    546.000    551.807     -5.807    518.425    550.875    518.425    519.339    518.425
 84.770    581.928    546.547     35.381    518.374    545.617    518.374    519.290    518.374
 84.870    563.000    542.009     20.991    518.322    541.079    518.322    519.241    518.322
 84.970    523.000    538.289    -15.289    518.268    537.358    518.268    519.190    518.268
 85.070    562.857    535.385     27.471    518.213    534.453    518.213    519.138    518.213
 85.170    551.083    533.231     17.852    518.156    532.297    518.156    519.085    518.156
 85.270    501.000    531.722    -30.722    518.098    530.784    518.098    519.031    518.098
 85.370    535.000    530.743      4.257    518.038    529.801    518.038    518.976    518.038
 85.470    522.000    530.193     -8.193    517.977    529.246    517.977    518.920    517.977
 85.570    527.000    529.996     -2.996    517.915    529.044    517.915    518.863    517.915
 85.670    534.000    530.113      3.887    517.851    529.155    517.851    518.805    517.851
 85.770    504.000    530.544    -26.544    517.786    529.579    517.786    518.746    517.786
 85.870    570.006    531.331     38.675    517.720    530.359    517.720    518.685    517.720
 85.970    540.000    532.564      7.436    517.652    531.583    517.652    518.624    517.652
 86.070    512.000    534.373    -22.373    517.583    533.382    517.583    518.562    517.583
 86.170    505.578    536.916    -31.338    517.512    535.914    517.512    518.498    517.512
 86.270    551.000    540.407     10.593    517.440    539.393    517.440    518.434    517.440
 86.370    550.000    545.055      4.945    517.366    544.027    517.366    518.369    517.366
 86.470    559.000    551.034      7.966    517.291    549.990    517.291    518.303    517.291
 86.570    555.000    558.465     -3.465    517.215    557.402    517.215    518.236    517.215
 86.670    587.000    567.362     19.638    517.137    566.279    517.137    518.168    517.137
 86.770    597.000    577.589     19.411    517.058    576.484    517.058    518.099    517.058
 86.870    597.030    588.828      8.202    516.978    587.700    516.978    518.029    516.978
 86.970    633.046    600.559     32.487    516.896    599.407    516.896    517.958    516.896
 87.070    618.081    612.063      6.019    516.812    610.888    516.812    517.887    516.812
 87.170    589.033    622.458    -33.425    516.728    621.262    516.728    517.814    516.728
 87.270    662.000    630.783     31.217    516.642    629.567    516.642    517.741    516.642
 87.370    663.000    636.141     26.859    516.554    634.910    516.554    517.667    516.554
 87.470    670.000    637.913     32.087    516.465    636.671    516.465    517.593    516.465
 87.570    610.000    635.939    -25.939    516.375    634.689    516.375    517.518    516.375
 87.670    645.000    630.566     14.434    516.283    629.310    516.283    517.442    516.283
 87.770    675.000    622.535     52.465    516.190    621.275    516.190    517.365    516.190
 87.870    606.000    612.801     -6.801    516.096    611.538    516.096    517.288    516.096
 87.970    595.000    602.369     -7.369    516.000    601.102    516.000    517.211    516.000
 88.070    548.357    592.184    -43.827    515.903    590.910    515.903    517.133    515.903
 88.170    572.950    583.060    -10.110    515.804    581.777    515.804    517.055    515.804
 88.270    581.000    575.630      5.370    515.704    574.338    515.704    516.976    515.704
 88.370    612.000    570.329     41.671    515.603    569.024    515.603    516.897    515.603
 88.470    579.000    567.380     11.620    515.500    566.060    515.500    516.818    515.500
 88.570    546.000    566.808    -20.808    515.396    565.470    515.396    516.739    515.396
 88.670    564.000    568.451     -4.451    515.291    567.095    515.291    516.660    515.291
 88.770    601.190    571.985     29.204    515.184    570.608    515.184    516.581    515.184
 88.870    583.000    576.944      6.056    515.076    575.545    515.076    516.502    515.076
 88.970    609.152    582.744     26.409    514.967    581.320    514.967    516.424    514.967
 89.070    636.000    588.713     47.287    514.856    587.264    514.856    516.346    514.856
 89.170    575.441    594.134    -18.693    514.744    592.656    514.744    516.269    514.744
 89.270    558.000    598.295    -40.295    514.630    596.786    514.630    516.193    514.630
 89.370    626.419    600.591     25.828    514.515    599.047    514.515    516.117    514.515
 89.470    634.000    600.634     33.366    514.399    599.050    514.399    516.043    514.399
 89.570    585.518    598.343    -12.826    514.281    596.714    514.281    515.971    514.281
 89.670    571.913    593.953    -22.040    514.162    592.275    514.162    515.900    514.162
 89.770    606.141    587.932     18.208    514.042    586.198    514.042    515.831    514.042
 89.870    615.377    580.856     34.521    513.921    579.062    513.921    515.765    513.921
 89.970    570.000    573.304     -3.304    513.798    571.444    513.798    515.701    513.798
 90.070    521.510    565.786    -44.277    513.674    563.857    513.674    515.639    513.674
 90.170    551.290    558.715     -7.425    513.548    556.712    513.548    515.582    513.548
 90.270    589.102    552.383     36.718    513.421    550.299    513.421    515.529    513.421
 90.370    552.000    546.964      5.036    513.293    544.793    513.293    515.482    513.293
 90.470    534.000    542.523     -8.523    513.164    540.259    513.164    515.442    513.164
 90.570    539.000    539.044     -0.044    513.033    536.678    513.033    515.409    513.033
 90.670    527.000    536.447     -9.447    512.901    533.970    512.901    515.385    512.901
 90.770    556.717    534.622     22.096    512.768    532.021    512.768    515.373    512.768
 90.870    519.000    533.444    -14.444    512.634    530.704    512.634    515.377    512.634
 90.970    523.000    532.772     -9.772    512.498    529.871    512.498    515.400    512.498
 91.070    549.176    532.588     16.588    512.361    529.499    512.361    515.450    512.361
 91.170    525.000    532.834     -7.834    512.222    529.521    512.222    515.534    512.222
 91.270    537.641    533.487      4.153    512.083    529.905    512.083    515.663    512.083
 91.370    529.000    534.583     -5.583    511.942    530.670    511.942    515.853    511.942
 91.470    524.000    536.205    -12.205    511.800    531.881    511.800    516.121    511.800
 91.570    518.238    538.481    -20.243    511.657    533.643    511.657    516.489    511.657
 91.670    530.000    541.587    -11.587    511.512    536.107    511.512    516.985    511.512
 91.770    587.169    545.742     41.427    511.366    539.459    511.366    517.639    511.366
 91.870    525.000    551.189    -26.189    511.219    543.911    511.219    518.485    511.219
 91.970    538.000    558.190    -20.190    511.071    549.685    511.071    519.560    511.071
 92.070    577.000    566.997     10.003    510.922    557.000    510.922    520.897    510.922
 92.170    595.000    577.828     17.172    510.771    566.043    510.771    522.529    510.771
 92.270    567.086    590.835    -23.749    510.619    576.942    510.619    524.480    510.619
 92.370    612.000    606.073      5.927    510.466    589.738    510.466    526.762    510.466
 92.470    599.000    623.467    -24.467    510.312    604.359    510.312    529.374    510.312
 92.570    642.000    642.795     -0.795    510.157    620.604    510.157    532.294    510.157
 92.670    623.000    663.665    -40.665    510.001    638.128    510.001    535.475    510.001
 92.770    686.000    685.513      0.487    509.843    656.441    509.843    538.847    509.843
 92.870    734.000    707.618     26.382    509.684    674.924    509.684    542.304    509.684
 92.970    696.000    729.160    -33.160    509.524    692.897    509.524    545.710    509.524
 93.070    729.000    749.317    -20.317    509.363    709.707    509.363    548.892    509.363
 93.170    809.000    767.382     41.618    509.201    724.851    509.201    551.650    509.201
 93.270    768.358    782.901    -14.543    509.038    738.089    509.038    553.768    509.038
 93.370    757.925    795.717    -37.791    508.873    749.462    508.873    555.047    508.873
 93.470    836.604    805.937     30.666    508.708    759.218    508.708    555.348    508.708
 93.570    862.061    813.866     48.196    508.541    767.707    508.541    554.624    508.541
 93.670    806.000    819.942    -13.942    508.374    775.307    508.374    552.935    508.374
 93.770    869.000    824.724     44.276    508.205    782.425    508.205    550.433    508.205
 93.870    799.553    828.889    -29.336    508.035    789.533    508.035    547.321    508.035
 93.970    866.025    833.203     32.822    507.865    797.185    507.865    543.816    507.865
 94.070    849.000    838.417     10.583    507.693    805.931    507.693    540.114    507.693
 94.170    869.495    845.085     24.410    507.520    816.158    507.520    536.384    507.520
 94.270    853.000    853.384     -0.384    507.346    827.912    507.346    532.757    507.346
 94.370    850.000    863.003    -13.003    507.171    840.782    507.171    529.333    507.171
 94.470    865.000    873.113     -8.113    506.995    853.872    506.995    526.180    506.995
 94.570    883.134    882.429      0.705    506.818    865.855    506.818    523.341    506.818
 94.670    907.231    889.359     17.872    506.640    875.119    506.640    520.834    506.640
 94.770    834.581    892.228    -57.646    506.461    879.991    506.461    518.659    506.461
 94.870    935.830    889.601     46.228    506.281    879.051    506.281    516.801    506.281
 94.970    920.000    880.618     39.382    506.101    871.464    506.101    515.234    506.101
 95.070    863.000    865.233     -2.233    505.919    857.211    505.919    513.928    505.919
 95.170    794.894    844.225    -49.331    505.736    837.109    505.736    512.848    505.736
 95.270    796.000    819.022    -23.022    505.553    812.619    505.553    511.957    505.553
 95.370    814.000    791.422     22.578    505.368    785.573    505.368    511.223    505.368
 95.470    791.425    763.406     28.019    505.183    757.983    505.183    510.614    505.183
 95.570    813.000    736.895     76.105    504.996    731.794    504.996    510.106    504.996
 95.670    728.000    713.680     14.320    504.809    708.820    504.809    509.676    504.809
 95.770    658.627    695.379    -36.752    504.621    690.697    504.621    509.307    504.621
 95.870    666.224    683.393    -17.169    504.432    678.838    504.432    508.985    504.432
 95.970    704.000    678.915     25.085    504.243    674.448    504.243    508.700    504.243
 96.070    657.773    682.943    -25.170    504.052    678.533    504.052    508.445    504.052
 96.170    709.000    696.285     12.715    503.861    691.906    503.861    508.213    503.861
 96.270    720.000    719.548      0.452    503.668    715.178    503.668    508.001    503.668
 96.370    722.000    753.095    -31.095    503.475    748.716    503.475    507.806    503.475
 96.470    802.000    796.974      5.026    503.282    792.569    503.282    507.625    503.282
 96.570    838.293    850.809    -12.516    503.087    846.364    503.087    507.459    503.087
 96.670    892.031    913.694    -21.664    502.892    909.197    502.892    507.305    502.892
 96.770    940.759    984.095    -43.336    502.696    979.532    502.696    507.163    502.696
 96.870   1053.000   1059.777     -6.777    502.499   1055.138    502.499    507.034    502.499
 96.970   1093.421   1137.789    -44.368    502.302   1133.065    502.302    506.917    502.302
 97.070   1180.114   1214.506    -34.392    502.104   1209.686    502.104    506.813    502.104
 97.170   1306.000   1285.747     20.253    501.905   1280.823    501.905    506.721    501.905
 97.270   1272.000   1347.033    -75.033    501.705   1341.995    501.705    506.644    501.705
 97.370   1407.436   1394.008     13.428    501.505   1388.846    501.505    506.581    501.505
 97.470   1369.016   1423.055    -54.039    501.304   1417.757    501.304    506.534    501.304
 97.570   1456.000   1431.951     24.049    501.103   1426.503    501.103    506.503    501.103
 97.670   1468.000   1420.320     47.680    500.901   1414.705    500.901    506.492    500.901
 97.770   1397.723   1389.654      8.069    500.698   1383.847    500.698    506.501    500.698
 97.870   1344.000   1342.912      1.088    500.495   1336.887    500.495    506.535    500.495
 97.970   1239.000   1283.937    -44.937    500.291   1277.662    500.291    506.596    500.291
 98.070   1232.349   1216.920     15.429    500.087   1210.356    500.087    506.692    500.087
 98.170   1147.000   1146.013      0.987    499.882   1139.114    499.882    506.828    499.882
 98.270   1035.723   1075.077    -39.354    499.676   1067.790    499.676    507.015    499.676
 98.370    979.000   1007.537    -28.537    499.470    999.792    499.470    507.265    499.470
 98.470    906.276    946.294    -40.019    499.264    938.007    499.264    507.596    499.264
 98.570    874.000    893.716    -19.716    499.057    884.780    499.057    508.032    499.057
 98.670    877.674    851.658     26.015    498.850    841.938    498.850    508.601    498.850
 98.770    797.000    821.525    -24.525    498.642    810.846    498.642    509.343    498.642
 98.870    799.000    804.348     -5.348    498.434    792.490    498.434    510.303    498.434
 98.970    778.300    800.858    -22.558    498.225    787.543    498.225    511.542    498.225
 99.070    822.000    811.602     10.398    498.016    796.481    498.016    513.129    498.016
 99.170    823.000    836.919    -13.919    497.806    819.564    497.806    515.145    497.806
 99.270    922.000    876.954     45.046    497.596    856.844    497.596    517.682    497.596
 99.370    884.716    931.618    -46.903    497.386    908.136    497.386    520.839    497.386
 99.470    966.000   1000.513    -34.513    497.176    972.934    497.176    524.721    497.176
 99.570   1055.140   1082.822    -27.682    496.965   1050.322    496.965    529.431    496.965
 99.670   1170.000   1177.205     -7.205    496.754   1138.865    496.754    535.062    496.754
 99.770   1251.000   1281.702    -30.702    496.542   1236.524    496.542    541.693    496.542
 99.870   1349.347   1393.655    -44.308    496.331   1340.592    496.331    549.376    496.331
 99.970   1567.000   1509.694     57.306    496.119   1447.681    496.119    558.127    496.119
100.070   1610.000   1625.797    -15.797    495.907   1553.801    495.907    567.916    495.907
100.170   1801.000   1737.488     63.512    495.694   1654.560    495.694    578.656    495.694
100.270   1813.938   1840.173    -26.235    495.482   1745.513    495.482    590.199    495.482
100.370   2108.000   1929.554    178.446    495.269   1822.582    495.269    602.325    495.269
100.470   1935.616   2001.991    -66.375    495.056   1882.420    495.056    614.736    495.056
100.570   2131.167   2054.671     76.495    494.843   1922.594    494.843    627.054    494.843
100.670   2089.000   2085.598      3.402    494.630   1941.567    494.630    638.817    494.630
100.770   2105.028   2093.545     11.482    494.417   1938.645    494.417    649.491    494.417
100.870   2005.587   2078.150    -72.563    494.204   1914.048    494.204    658.494    494.204
100.970   2129.000   2040.181     88.819    493.991   1869.121    493.991    665.248    493.991
101.070   2015.509   1981.797     33.713    493.777   1806.520    493.777    669.254    493.777
101.170   1919.000   1906.573     12.427    493.564   1730.155    493.564    670.180    493.564
101.270   1826.000   1819.194      6.806    493.351   1644.802    493.351    667.935    493.351
101.370   1652.000   1724.888    -72.888    493.137   1555.524    493.137    662.683    493.137
101.470   1564.286   1628.828    -64.542    492.924   1467.108    492.924    654.812    492.924
101.570   1465.683   1535.629    -69.946    492.711   1383.638    492.711    644.854    492.711
101.670   1515.000   1449.021     65.979    492.498   1308.259    492.498    633.396    492.498
101.770   1410.515   1371.670     38.845    492.285   1243.065    492.285    621.012    492.285
101.870   1319.000   1305.125     13.875    492.072   1189.089    492.072    608.215    492.072
101.970   1230.000   1249.843    -19.843    491.859   1146.352    491.859    595.444    491.859
102.070   1152.000   1205.284    -53.284    491.646   1113.961    491.646    583.054    491.646
102.170   1144.000   1170.056    -26.056    491.434   1090.248    491.434    571.319    491.434
102.270   1126.000   1142.104    -16.104    491.222   1072.960    491.222    560.438    491.222
102.370   1128.000   1118.937      9.063    491.010   1059.476    491.010    550.541    491.010
102.470   1032.964   1097.919    -64.955    490.798   1047.091    490.798    541.696    490.798
102.570   1010.000   1076.582    -66.582    490.587   1033.319    490.587    533.919    490.587
102.670    998.168   1052.947    -54.779    490.376   1016.211    490.376    527.184    490.376
102.770   1070.000   1025.761     44.239    490.165    994.571    490.165    521.429    490.165
102.870    996.000    994.571      1.429    489.955    968.030    489.955    516.570    489.955
102.970    953.239    959.641     -6.402    489.745    936.950    489.745    512.510    489.745
103.070    928.545    921.751      6.794    489.535    902.214    489.535    509.145    489.535
103.170    912.161    881.977     30.184    489.326    865.001    489.326    506.371    489.326
103.270    867.000    841.503     25.497    489.117    826.593    489.117    504.091    489.117
103.370    815.720    801.487     14.233    488.909    788.238    488.909    502.216    488.909
103.470    810.000    762.971     47.029    488.701    751.056    488.701    500.669    488.701
103.570    696.387    726.823    -30.435    488.493    715.982    488.493    499.382    488.493
103.670    725.000    693.704     31.296    488.287    683.732    488.287    498.300    488.287
103.770    700.000    664.049     35.951    488.080    654.786    488.080    497.378    488.080
103.870    657.188    638.088     19.100    487.875    629.409    487.875    496.582    487.875
103.970    582.000    615.840    -33.840    487.670    607.650    487.670    495.883    487.670
104.070    554.722    597.164    -42.441    487.465    589.387    487.465    495.261    487.465
104.170    568.664    581.796    -13.132    487.262    574.375    487.262    494.698    487.262
104.270    559.000    569.396    -10.396    487.059    562.282    487.059    494.184    487.059
104.370    606.418    559.582     46.837    486.856    552.738    486.856    493.708    486.856
104.470    547.000    551.965     -4.965    486.655    545.360    486.655    493.265    486.655
104.570    571.000    546.179     24.821    486.454    539.787    486.454    492.849    486.454
104.670    572.000    541.895     30.105    486.254    535.693    486.254    492.457    486.254
104.770    588.000    538.833     49.167    486.055    532.803    486.055    492.085    486.055
104.870    510.292    536.771    -26.479    485.856    530.893    485.856    491.732    485.856
104.970    551.000    535.538     15.462    485.659    529.798    485.659    491.396    485.659
105.070    530.000    535.019     -5.019    485.462    529.403    485.462    491.074    485.462
105.170    549.000    535.150     13.850    485.266    529.644    485.266    490.767    485.266
105.270    513.276    535.909    -22.633    485.072    530.501    485.072    490.473    485.072
105.370    544.000    537.314      6.686    484.878    531.993    484.878    490.190    484.878
105.470    552.000    539.420     12.580    484.685    534.176    484.685    489.919    484.685
105.570    532.000    542.307    -10.307    484.493    537.130    484.493    489.659    484.493
105.670    565.000    546.075     18.925    484.303    540.955    484.303    489.409    484.303
105.770    581.877    550.828     31.050    484.113    545.756    484.113    489.168    484.113
105.870    601.000    556.662     44.338    483.925    551.630    483.925    488.937    483.925
105.970    522.298    563.651    -41.353    483.737    558.652    483.737    488.714    483.737
106.070    596.000    571.830     24.170    483.551    566.855    483.551    488.500    483.551
106.170    599.000    581.182     17.818    483.366    576.224    483.366    488.295    483.366
106.270    573.000    591.630    -18.630    483.182    586.683    483.182    488.097    483.182
106.370    557.353    603.028    -45.676    483.000    598.086    483.000    487.907    483.000
106.470    587.000    615.163    -28.163    482.819    610.218    482.819    487.725    482.819
106.570    622.143    627.750     -5.607    482.639    622.797    482.639    487.550    482.639
106.670    650.000    640.445      9.555    482.460    635.478    482.460    487.383    482.460
106.770    585.000    652.854    -67.854    482.283    647.867    482.283    487.223    482.283
106.870    630.000    664.552    -34.552    482.107    659.542    482.107    487.071    482.107
106.970    656.000    675.113    -19.113    481.933    670.073    481.933    486.926    481.933
107.070    649.447    684.141    -34.694    481.760    679.067    481.760    486.788    481.760
107.170    677.344    691.328    -13.984    481.589    686.215    481.589    486.657    481.589
107.270    678.000    696.499    -18.499    481.419    691.343    481.419    486.534    481.419
107.370    674.000    699.653    -25.653    481.251    694.453    481.251    486.413    481.251
107.470    623.000    700.985    -77.985    481.084    695.730    481.084    486.304    481.084
107.570    657.458    700.832    -43.374    480.919    695.516    480.919    486.204    480.919
107.670    674.000    699.632    -25.632    480.755    694.249    480.755    486.112    480.755
107.770    659.000    697.857    -38.857    480.594    692.401    480.594    486.028    480.594
107.870    659.526    695.950    -36.424    480.434    690.414    480.434    485.953    480.434
107.970    713.967    694.280     19.688    480.275    688.656    480.275    485.886    480.275
108.070    641.833    693.109    -51.276    480.119    687.391    480.119    485.827    480.119
108.170    743.009    692.580     50.429    479.964    686.760    479.964    485.778    479.964
108.270    677.000    692.698    -15.698    479.811    686.770    479.811    485.737    479.811
108.370    666.285    693.333    -27.048    479.660    687.299    479.660    485.696    479.660
108.470    654.000    694.262    -40.262    479.511    688.104    479.511    485.674    479.511
108.570    650.018    695.132    -45.114    479.364    688.839    479.364    485.665    479.364
108.670    615.000    695.531    -80.531    479.219    689.094    479.219    485.667    479.219
108.770    671.000    695.024    -24.024    479.076    688.434    479.076    485.680    479.076
108.870    676.000    693.216    -17.216    478.935    686.462    478.935    485.705    478.935
108.970    694.317    689.803      4.515    478.796    682.873    478.796    485.743    478.796
109.070    728.000    684.624     43.376    478.659    677.508    478.659    485.795    478.659
109.170    648.000    677.680    -29.680    478.525    670.364    478.525    485.860    478.525
109.270    689.900    669.120     20.780    478.392    661.592    478.392    485.941    478.392
109.370    713.000    659.191     53.809    478.262    651.437    478.262    486.037    478.262
109.470    640.000    648.262     -8.262    478.134    640.266    478.134    486.150    478.134
109.570    596.000    636.722    -40.722    478.008    628.469    478.008    486.280    478.008
109.670    650.534    624.924     25.610    477.885    616.397    477.885    486.430    477.885
109.770    626.743    613.215     13.527    477.764    604.394    477.764    486.601    477.764
109.870    588.000    601.906    -13.906    477.645    592.772    477.645    486.793    477.645
109.970    613.000    591.257     21.743    477.529    581.789    477.529    487.010    477.529
110.070    645.000    581.479     63.521    477.415    571.651    477.415    487.253    477.415
110.170    608.921    572.720     36.201    477.304    562.507    477.304    487.525    477.304
110.270    532.441    565.078    -32.637    477.195    554.449    477.195    487.830    477.195
110.370    611.000    558.594     52.406    477.089    547.516    477.089    488.171    477.089
110.470    543.000    553.267    -10.267    476.985    541.701    476.985    488.554    476.985
110.570    580.000    549.060     30.940    476.884    536.960    476.884    488.985    476.884
110.670    514.214    545.906    -31.693    476.786    533.220    476.786    489.472    476.786
110.770    579.442    543.724     35.717    476.691    530.388    476.691    490.025    476.691
110.870    541.144    542.423     -1.279    476.598    528.361    476.598    490.657    476.598
110.970    547.000    541.910      5.090    476.508    527.030    476.508    491.384    476.508
111.070    584.000    542.100     41.900    476.421    526.291    476.421    492.226    476.421
111.170    524.481    542.919    -18.438    476.337    526.044    476.337    493.206    476.337
111.270    576.000    544.305     31.695    476.256    526.199    476.256    494.356    476.256
111.370    518.799    546.216    -27.417    476.178    526.675    476.178    495.711    476.178
111.470    509.985    548.627    -38.643    476.102    527.405    476.102    497.317    476.102
111.570    579.000    551.534     27.466    476.030    528.331    476.030    499.225    476.030
111.670    527.855    554.951    -27.096    475.961    529.406    475.961    501.497    475.961
111.770    572.000    558.916     13.084    475.895    530.595    475.895    504.206    475.895
111.870    583.000    563.484     19.516    475.832    531.875    475.832    507.431    475.832
111.970    591.000    568.733     22.267    475.773    533.232    475.773    511.263    475.773
112.070    612.000    574.761     37.239    475.716    534.662    475.716    515.804    475.716
112.170    595.234    581.681     13.552    475.663    536.174    475.663    521.159    475.663
112.270    581.492    589.623     -8.130    475.613    537.782    475.613    527.442    475.613
112.370    602.000    598.723      3.277    475.567    539.512    475.567    534.766    475.567
112.470    616.698    609.128      7.570    475.524    541.393    475.524    543.246    475.524
112.570    605.000    620.981    -15.981    475.484    543.466    475.484    552.986    475.484
112.670    675.352    634.426     40.925    475.448    545.778    475.448    564.082    475.448
112.770    645.000    649.600     -4.600    475.416    548.391    475.416    576.610    475.416
112.870    699.039    666.630     32.409    475.387    551.381    475.387    590.620    475.387
112.970    709.475    685.635     23.840    475.361    554.847    475.361    606.133    475.361
113.070    679.994    706.727    -26.733    475.340    558.918    475.340    623.130    475.340
113.170    758.645    730.013     28.632    475.322    563.766    475.322    641.549    475.322
113.270    741.518    755.605    -14.087    475.307    569.616    475.307    661.275    475.307
113.370    831.000    783.631     47.369    475.297    576.763    475.297    682.141    475.297
113.470    806.000    814.250     -8.250    475.290    585.596    475.290    703.918    475.290
113.570    803.987    847.672    -43.686    475.287    596.617    475.287    726.313    475.287
113.670    900.000    884.183     15.817    475.288    610.469    475.288    748.967    475.288
113.770    887.000    924.168    -37.168    475.294    627.968    475.294    771.452    475.294
113.870    970.000    968.145      1.855    475.303    650.125    475.303    793.275    475.303
113.970   1027.000   1016.797     10.203    475.316    678.180    475.316    813.876    475.316
114.070   1055.000   1071.006    -16.006    475.333    713.622    475.333    832.649    475.333
114.170   1061.000   1131.896    -70.896    475.354    758.208    475.354    848.960    475.354
114.270   1264.000   1200.874     63.126    475.380    813.966    475.380    862.188    475.380
114.370   1370.000   1279.665     90.335    475.410    883.180    475.410    871.774    475.410
114.470   1366.000   1370.340     -4.340    475.444    968.360    475.444    877.277    475.444
114.570   1439.000   1475.309    -36.309    475.482   1072.182    475.482    878.433    475.482
114.670   1626.000   1597.270     28.730    475.525   1197.400    475.525    875.184    475.525
114.770   1675.545   1739.098    -63.553    475.572   1346.727    475.572    867.693    475.572
114.870   1955.000   1903.677     51.323    475.624   1522.688    475.624    856.317    475.624
114.970   2117.564   2093.674     23.890    475.680   1727.446    475.680    841.563    475.680
115.070   2391.000   2311.292     79.708    475.741   1962.607    475.741    824.027    475.741
115.170   2499.000   2558.005    -59.005    475.806   2229.012    475.806    804.345    475.806
115.270   2920.000   2834.313     85.687    475.876   2526.538    475.876    783.139    475.876
115.370   3095.000   3139.524    -44.524    475.951   2853.910    475.951    760.995    475.951
115.470   3328.000   3471.579   -143.579    476.031   3208.543    476.031    738.442    476.031
115.570   3741.513   3826.935    -85.422    476.115   3586.433    476.115    715.942    476.115
115.670   4108.000   4200.506    -92.506    476.204   3982.104    476.204    693.888    476.204
115.770   4375.000   4585.675   -210.675    476.298   4388.615    476.298    672.606    476.298
115.870   4640.000   4974.377   -334.377    476.397   4797.645    476.397    652.357    476.397
115.970   5287.000   5357.259    -70.259    476.501   5199.641    476.501    633.340    476.501
116.070   5345.000   5723.912   -378.912    476.610   5584.058    476.610    615.695    476.610
116.170   6033.000   6063.206    -30.206    476.724   5939.678    476.724    599.510    476.724
116.270   6398.700   6363.718     34.982    476.843   6255.039    476.843    584.825    476.843
116.370   6690.648   6614.324     76.324    476.968   6519.020    476.968    571.639    476.968
116.470   6934.616   6804.946    129.670    477.097   6721.577    477.097    559.915    477.097
116.570   6940.496   6927.278     13.218    477.232   6854.465    477.232    549.591    477.232
116.670   7051.000   6975.660     75.340    477.373   6912.106    477.373    540.579    477.373
116.770   7014.000   6947.686     66.314    477.518   6892.191    477.518    532.778    477.518
116.870   6696.000   6844.476   -148.476    477.669   6795.945    477.669    526.080    477.669
116.970   6935.000   6670.523    264.477    477.826   6627.969    477.826    520.369    477.826
117.070   6517.478   6433.155     84.322    477.988   6395.701    477.988    515.531    477.988
117.170   6173.000   6141.771     31.229    478.156   6108.646    478.156    511.457    478.156
117.270   5658.036   5807.023   -148.987    478.329   5777.559    478.329    508.042    478.329
117.370   5359.000   5440.076    -81.076    478.509   5413.699    478.509    505.192    478.509
117.470   4970.000   5052.004    -82.004    478.694   5028.224    478.694    502.819    478.694
117.570   4691.464   4653.317     38.147    478.884   4631.725    478.884    500.849    478.884
117.670   4310.000   4253.620     56.380    479.081   4233.871    479.081    499.213    479.081
117.770   3983.138   3861.355    121.783    479.283   3843.164    479.283    497.856    479.283
117.870   3561.010   3483.637     77.373    479.492   3466.769    479.492    496.730    479.492
117.970   3168.634   3126.165     42.469    479.706   3110.427    479.706    495.793    479.706
118.070   2914.000   2793.206    120.794    479.927   2778.442    479.927    495.013    479.927
118.170   2611.000   2487.652    123.348    480.154   2473.733    480.154    494.363    480.154
118.270   2238.000   2211.122     26.878    480.387   2197.944    480.387    493.820    480.387
118.370   1894.721   1964.112    -69.391    480.626   1951.592    480.626    493.368    480.626
118.470   1785.000   1746.172     38.828    480.871   1734.239    480.871    492.991    480.871
118.570   1537.000   1556.086    -19.086    481.123   1544.685    481.123    492.679    481.123
118.670   1370.000   1392.066    -22.066    481.381   1381.149    481.381    492.423    481.381
118.770   1207.566   1251.929    -44.363    481.646   1241.458    481.646    492.216    481.646
118.870   1107.000   1133.263    -26.263    481.917   1123.205    481.917    492.053    481.917
118.970   1086.197   1033.571     52.626    482.195   1023.896    482.195    491.928    482.195
119.070    977.000    950.387     26.613    482.480    941.069    482.480    491.840    482.480
119.170    865.000    881.367    -16.367    482.771    872.382    482.771    491.784    482.771
119.270    795.110    824.350    -29.241    483.069    815.679    483.069    491.760    483.069
119.370    755.000    777.401    -22.401    483.373    769.022    483.373    491.765    483.373
119.470    754.577    738.819     15.758    483.685    730.714    483.685    491.798    483.685
119.570    671.000    707.144    -36.144    484.003    699.294    484.003    491.858    484.003
119.670    670.000    681.144    -11.144    484.329    673.532    484.329    491.944    484.329
119.770    626.000    659.794    -33.794    484.661    652.401    484.661    492.056    484.661
119.870    634.000    642.254     -8.254    485.001    635.061    485.001    492.194    485.001
119.970    614.000    627.841    -13.841    485.348    620.831    485.348    492.358    485.348
120.070    576.893    616.008    -39.115    485.702    609.163    485.702    492.547    485.702
120.170    573.000    606.321    -33.321    486.063    599.622    486.063    492.763    486.063
120.270    586.000    598.436    -12.436    486.432    591.863    486.432    493.005    486.432
120.370    538.000    592.082    -54.082    486.808    585.616    486.808    493.275    486.808
120.470    553.889    587.049    -33.159    487.191    580.669    487.191    493.573    487.191
120.570    590.000    583.172      6.828    487.582    576.858    487.582    493.899    487.582
120.670    588.479    580.326      8.153    487.981    574.055    487.981    494.255    487.981
120.770    567.230    578.411    -11.181    488.387    572.160    488.387    494.642    488.387
120.870    571.000    577.350     -6.350    488.801    571.095    488.801    495.061    488.801
120.970    593.250    577.082     16.168    489.222    570.799    489.222    495.511    489.222
121.070    552.000    577.556    -25.556    489.652    571.219    489.652    495.995    489.652
121.170    568.000    578.727    -10.727    490.089    572.312    490.089    496.512    490.089
121.270    546.633    580.553    -33.921    490.534    574.034    490.534    497.062    490.534
121.370    585.000    582.991      2.009    490.988    576.343    490.988    497.647    490.988
121.470    591.378    585.994      5.384    491.449    579.192    491.449    498.264    491.449
121.570    603.000    589.509     13.491    491.919    582.528    491.919    498.914    491.919
121.670    576.000    593.476    -17.476    492.396    586.293    492.396    499.595    492.396
121.770    563.705    597.824    -34.120    492.882    590.419    492.882    500.306    492.882
121.870    601.000    602.476     -1.476    493.377    594.830    493.377    501.044    493.377
121.970    595.000    607.343    -12.343    493.879    599.440    493.879    501.806    493.879
122.070    619.000    612.328      6.672    494.390    604.155    494.390    502.590    494.390
122.170    591.497    617.324    -25.827    494.910    608.873    494.910    503.390    494.910
122.270    616.000    622.219     -6.219    495.438    613.486    495.438    504.203    495.438
122.370    685.000    626.897     58.103    495.975    617.883    495.975    505.023    495.975
122.470    603.000    631.240    -28.240    496.521    621.953    496.521    505.844    496.521
122.570    670.000    635.135     34.865    497.075    625.589    497.075    506.661    497.075
122.670    686.000    638.477     47.523    497.638    628.692    497.638    507.465    497.638
122.770    670.000    641.175     28.825    498.210    631.179    498.210    508.249    498.210
122.870    671.403    643.162     28.241    498.792    632.990    498.792    509.008    498.792
122.970    646.000    644.392      1.608    499.382    634.086    499.382    509.732    499.382
123.070    657.000    644.850     12.150    499.981    634.459    499.981    510.418    499.981
123.170    634.000    644.549    -10.549    500.589    634.124    500.589    511.059    500.589
123.270    638.000    643.524     -5.524    501.207    633.123    501.207    511.652    501.207
123.370    629.000    641.833    -12.833    501.834    631.513    501.834    512.197    501.834
123.470    633.415    639.549     -6.134    502.470    629.367    502.470    512.693    502.470
123.570    676.000    636.755     39.245    503.116    626.765    503.116    513.145    503.116
123.670    666.000    633.540     32.460    503.771    623.792    503.771    513.557    503.771
123.770    638.103    629.994      8.110    504.436    620.531    504.436    513.934    504.436
123.870    664.612    626.205     38.407    505.111    617.065    505.111    514.283    505.111
123.970    582.000    622.256    -40.256    505.795    613.469    505.795    514.611    505.795
124.070    661.607    618.223     43.384    506.489    609.811    506.489    514.927    506.489
124.170    610.000    614.170     -4.170    507.193    606.152    507.193    515.233    507.193
124.270    600.650    610.154     -9.504    507.907    602.540    507.907    515.541    507.907
124.370    573.350    606.220    -32.870    508.631    599.012    508.631    515.856    508.631
124.470    611.000    602.394      8.606    509.365    595.591    509.365    516.182    509.365
124.570    596.000    598.707     -2.707    510.109    592.304    510.109    516.524    510.109
124.670    593.000    595.167     -2.167    510.863    589.154    510.863    516.886    510.863
124.770    599.000    591.778      7.222    511.628    586.143    511.628    517.271    511.628
124.870    579.000    588.540     -9.540    512.402    583.267    512.402    517.682    512.402
124.970    606.000    585.448     20.552    513.188    580.520    513.188    518.121    513.188
