neutron_powder_diffraction_0131
R_wp: 4.139
Temperature (K): 1042.819
Counts: 83375.00
Wavelength (Ã…): 2.52098
COMMENTS
Test file for demonstrating the .xyy file format in Reel1.0
END OF HEADER
   tth       Y_obs     Y_calc      Y_res    Background    Phase_1_Nuc    Phase_1_Mag    Phase_2_Nuc    Phase_2_Mag
  9.970    542.290    566.336    -24.046    565.441    566.240    565.441    565.537    565.441
 10.070    558.000    566.562     -8.562    565.597    566.465    565.597    565.693    565.597
 10.170    585.021    566.790     18.231    565.746    566.693    565.746    565.843    565.746
 10.270    639.000    567.025     71.975    565.889    566.927    565.889    565.986    565.889
 10.370    530.377    567.267    -36.890    566.025    567.169    566.025    566.123    566.025
 10.470    523.087    567.521    -44.434    566.155    567.422    566.155    566.253    566.155
 10.570    611.000    567.791     43.209    566.278    567.692    566.278    566.376    566.278
 10.670    570.000    568.083      1.917    566.395    567.983    566.395    566.494    566.395
 10.770    611.571    568.404     43.167    566.505    568.304    566.505    566.604    566.505
 10.870    524.152    568.765    -44.614    566.610    568.665    566.610    566.709    566.610
 10.970    605.000    569.182     35.818    566.708    569.081    566.708    566.808    566.708
 11.070    611.000    569.674     41.326    566.800    569.572    566.800    566.900    566.800
 11.170    629.000    570.275     58.725    566.886    570.172    566.886    566.986    566.886
 11.270    539.000    571.028    -32.028    566.965    570.924    566.965    567.067    566.965
 11.370    600.000    572.018     27.982    567.039    571.914    567.039    567.141    567.039
 11.470    562.949    573.435    -10.486    567.107    573.330    567.107    567.209    567.107
 11.570    598.000    575.771     22.229    567.169    575.664    567.169    567.272    567.169
 11.670    593.000    580.255     12.745    567.226    580.144    567.226    567.328    567.226
 11.770    652.000    589.390     62.610    567.276    589.274    567.276    567.379    567.276
 11.870    651.000    606.740     44.260    567.321    606.614    567.321    567.425    567.321
 11.970    619.016    634.635    -15.618    567.360    634.492    567.360    567.464    567.360
 12.070    666.000    669.415     -3.415    567.394    669.253    567.394    567.498    567.394
 12.170    671.752    697.026    -25.274    567.422    696.847    567.422    567.527    567.422
 12.270    670.000    699.404    -29.404    567.444    699.223    567.444    567.550    567.444
 12.370    635.000    674.517    -39.517    567.461    674.351    567.461    567.568    567.461
 12.470    636.000    639.537     -3.537    567.473    639.389    567.473    567.580    567.473
 12.570    639.890    610.178     29.712    567.480    610.047    567.480    567.587    567.480
 12.670    535.000    591.414    -56.414    567.481    591.293    567.481    567.589    567.481
 12.770    551.000    581.403    -30.403    567.477    581.287    567.477    567.585    567.477
 12.870    528.801    576.518    -47.717    567.468    576.405    567.468    567.576    567.468
 12.970    611.668    574.045     37.623    567.454    573.933    567.454    567.563    567.454
 13.070    600.000    572.598     27.402    567.434    572.486    567.434    567.544    567.434
 13.170    574.000    571.617      2.383    567.410    571.505    567.410    567.520    567.410
 13.270    560.482    570.892    -10.410    567.381    570.779    567.381    567.492    567.381
 13.370    563.000    570.329     -7.329    567.347    570.217    567.347    567.458    567.347
 13.470    561.872    569.880     -8.009    567.308    569.767    567.308    567.420    567.308
 13.570    545.000    569.512    -24.512    567.264    569.398    567.264    567.377    567.264
 13.670    600.000    569.202     30.798    567.216    569.088    567.216    567.329    567.216
 13.770    603.343    568.935     34.408    567.163    568.821    567.163    567.276    567.163
 13.870    567.000    568.702     -1.702    567.105    568.587    567.105    567.219    567.105
 13.970    576.000    568.492      7.508    567.043    568.377    567.043    567.157    567.043
 14.070    584.714    568.302     16.413    566.976    568.186    566.976    567.091    566.976
 14.170    600.703    568.125     32.578    566.905    568.009    566.905    567.020    566.905
 14.270    541.000    567.959    -26.959    566.829    567.843    566.829    566.945    566.829
 14.370    542.000    567.802    -25.802    566.749    567.684    566.749    566.865    566.749
 14.470    547.000    567.650    -20.650    566.664    567.532    566.664    566.782    566.664
 14.570    546.037    567.503    -21.466    566.575    567.384    566.575    566.693    566.575
 14.670    525.583    567.358    -41.776    566.482    567.240    566.482    566.601    566.482
 14.770    559.000    567.216     -8.216    566.385    567.097    566.385    566.504    566.385
 14.870    551.000    567.075    -16.075    566.284    566.955    566.284    566.404    566.284
 14.970    557.000    566.934     -9.934    566.179    566.814    566.179    566.299    566.179
 15.070    591.053    566.794     24.259    566.069    566.672    566.069    566.190    566.069
 15.170    547.000    566.652    -19.652    565.956    566.530    565.956    566.077    565.956
 15.270    605.788    566.510     39.277    565.838    566.388    565.838    565.961    565.838
 15.370    536.235    566.367    -30.132    565.717    566.244    565.717    565.840    565.717
 15.470    566.762    566.224      0.538    565.592    566.100    565.592    565.716    565.592
 15.570    559.000    566.078     -7.078    565.463    565.953    565.463    565.587    565.463
 15.670    559.754    565.930     -6.175    565.330    565.804    565.330    565.455    565.330
 15.770    578.043    565.779     12.263    565.194    565.653    565.194    565.319    565.194
 15.870    540.844    565.626    -24.783    565.054    565.500    565.054    565.180    565.054
 15.970    560.714    565.471     -4.758    564.910    565.344    564.910    565.037    564.910
 16.070    572.000    565.313      6.687    564.763    565.185    564.763    564.891    564.763
 16.170    512.000    565.153    -53.153    564.612    565.025    564.612    564.740    564.612
 16.270    593.730    564.991     28.739    564.457    564.862    564.457    564.587    564.457
 16.370    539.886    564.828    -24.942    564.300    564.697    564.300    564.430    564.300
 16.470    596.000    564.660     31.340    564.138    564.529    564.138    564.269    564.138
 16.570    537.000    564.490    -27.490    563.974    564.358    563.974    564.106    563.974
 16.670    559.000    564.317     -5.317    563.806    564.184    563.806    563.939    563.806
 16.770    553.000    564.141    -11.141    563.635    564.008    563.635    563.768    563.635
 16.870    529.000    563.963    -34.963    563.461    563.829    563.461    563.595    563.461
 16.970    562.000    563.782     -1.782    563.283    563.647    563.283    563.418    563.283
 17.070    600.312    563.599     36.713    563.103    563.463    563.103    563.238    563.103
 17.170    548.000    563.413    -15.413    562.919    563.276    562.919    563.056    562.919
 17.270    557.000    563.225     -6.225    562.732    563.087    562.732    562.870    562.732
 17.370    599.701    563.034     36.667    562.542    562.895    562.542    562.681    562.542
 17.470    594.133    562.840     31.293    562.350    562.701    562.350    562.489    562.350
 17.570    540.000    562.644    -22.644    562.154    562.504    562.154    562.294    562.154
 17.670    543.000    562.446    -19.446    561.955    562.304    561.955    562.097    561.955
 17.770    516.623    562.246    -45.622    561.754    562.103    561.754    561.896    561.754
 17.870    589.574    562.053     27.521    561.550    561.910    561.550    561.693    561.550
 17.970    541.000    561.862    -20.862    561.343    561.718    561.343    561.487    561.343
 18.070    608.000    561.655     46.345    561.133    561.510    561.133    561.278    561.133
 18.170    527.000    561.445    -34.445    560.921    561.299    560.921    561.067    560.921
 18.270    556.425    561.232     -4.807    560.706    561.085    560.706    560.853    560.706
 18.370    527.000    561.017    -34.017    560.488    560.869    560.488    560.636    560.488
 18.470    608.498    560.800     47.697    560.268    560.651    560.268    560.417    560.268
 18.570    610.000    560.581     49.419    560.045    560.431    560.045    560.196    560.045
 18.670    575.000    560.360     14.640    559.820    560.208    559.820    559.972    559.820
 18.770    543.000    560.136    -17.136    559.593    559.984    559.593    559.745    559.593
 18.870    542.000    559.915    -17.915    559.363    559.762    559.363    559.516    559.363
 18.970    573.286    559.741     13.545    559.130    559.586    559.130    559.285    559.130
 19.070    558.000    559.570     -1.570    558.896    559.414    558.896    559.052    558.896
 19.170    607.228    559.344     47.884    558.659    559.187    558.659    558.816    558.659
 19.270    522.000    559.111    -37.111    558.419    558.953    558.419    558.578    558.419
 19.370    557.000    558.876     -1.876    558.178    558.717    558.178    558.338    558.178
 19.470    545.000    558.643    -13.643    557.935    558.482    557.935    558.095    557.935
 19.570    520.175    558.406    -38.231    557.689    558.244    557.689    557.851    557.689
 19.670    560.666    558.166      2.500    557.441    558.002    557.441    557.605    557.441
 19.770    567.000    557.924      9.076    557.191    557.759    557.191    557.356    557.191
 19.870    565.000    557.681      7.319    556.939    557.515    556.939    557.106    556.939
 19.970    533.000    557.437    -24.437    556.685    557.269    556.685    556.853    556.685
 20.070    532.000    557.192    -25.192    556.430    557.023    556.430    556.599    556.430
 20.170    516.000    556.950    -40.950    556.172    556.779    556.172    556.343    556.172
 20.270    562.000    556.702      5.298    555.912    556.529    555.912    556.085    555.912
 20.370    563.801    556.452      7.350    555.651    556.278    555.651    555.825    555.651
 20.470    524.000    556.201    -32.201    555.387    556.025    555.387    555.563    555.387
 20.570    573.000    555.949     17.051    555.122    555.772    555.122    555.300    555.122
 20.670    517.587    555.696    -38.108    554.856    555.517    554.856    555.035    554.856
 20.770    556.000    555.442      0.558    554.587    555.261    554.587    554.768    554.587
 20.870    543.447    555.187    -11.740    554.317    555.005    554.317    554.500    554.317
 20.970    551.598    554.932     -3.334    554.045    554.747    554.045    554.230    554.045
 21.070    541.525    554.679    -13.154    553.772    554.493    553.772    553.958    553.772
 21.170    557.808    554.462      3.346    553.497    554.274    553.497    553.685    553.497
 21.270    546.000    554.233     -8.233    553.221    554.043    553.221    553.411    553.221
 21.370    506.079    553.980    -47.901    552.943    553.788    552.943    553.135    552.943
 21.470    516.000    553.740    -37.740    552.663    553.546    552.663    552.857    552.663
 21.570    588.621    553.515     35.106    552.382    553.319    552.382    552.579    552.382
 21.670    518.990    553.264    -34.274    552.100    553.066    552.100    552.299    552.100
 21.770    507.391    553.010    -45.619    551.817    552.809    551.817    552.017    551.817
 21.870    564.000    552.756     11.244    551.532    552.553    551.532    551.735    551.532
 21.970    545.000    552.504     -7.504    551.245    552.298    551.245    551.451    551.245
 22.070    577.000    552.253     24.747    550.958    552.045    550.958    551.166    550.958
 22.170    500.000    552.004    -52.004    550.669    551.794    550.669    550.880    550.669
 22.270    544.000    551.758     -7.758    550.379    551.545    550.379    550.593    550.379
 22.370    560.674    551.518      9.156    550.088    551.302    550.088    550.304    550.088
 22.470    536.000    551.280    -15.280    549.796    551.061    549.796    550.015    549.796
 22.570    556.000    551.045      4.955    549.502    550.824    549.502    549.724    549.502
 22.670    561.000    550.817     10.183    549.208    550.592    549.208    549.433    549.208
 22.770    566.000    550.595     15.405    548.913    550.367    548.913    549.141    548.913
 22.870    550.000    550.382     -0.382    548.616    550.151    548.616    548.848    548.616
 22.970    576.669    550.180     26.489    548.319    549.946    548.319    548.553    548.319
 23.070    582.414    549.992     32.422    548.020    549.754    548.020    548.259    548.020
 23.170    525.000    549.826    -24.826    547.721    549.585    547.721    547.963    547.721
 23.270    526.000    549.678    -23.678    547.420    549.433    547.420    547.666    547.420
 23.370    531.000    549.553    -18.553    547.119    549.304    547.119    547.369    547.119
 23.470    553.000    549.463      3.537    546.817    549.210    546.817    547.071    546.817
 23.570    588.000    549.420     38.580    546.515    549.163    546.515    546.773    546.515
 23.670    529.590    549.455    -19.865    546.211    549.193    546.211    546.474    546.211
 23.770    552.000    549.564      2.436    545.907    549.298    545.907    546.174    545.907
 23.870    588.619    549.816     38.803    545.602    549.545    545.602    545.874    545.602
 23.970    506.875    550.254    -43.379    545.296    549.978    545.296    545.574    545.296
 24.070    526.928    551.042    -24.114    544.990    550.762    544.990    545.273    544.990
 24.170    568.000    552.610     15.390    544.683    552.326    544.683    544.971    544.683
 24.270    588.000    555.945     32.055    544.375    555.657    544.375    544.670    544.375
 24.370    607.000    562.796     44.204    544.067    562.507    544.067    544.368    544.067
 24.470    619.000    575.259     43.741    543.758    574.973    543.758    544.065    543.758
 24.570    618.000    594.106     23.894    543.449    593.826    543.449    543.763    543.449
 24.670    595.798    615.922    -20.124    543.139    615.650    543.139    543.460    543.139
 24.770    645.000    631.127     13.873    542.828    630.859    542.828    543.158    542.828
 24.870    641.308    629.554     11.753    542.518    629.278    542.518    542.855    542.518
 24.970    649.000    612.267     36.733    542.207    611.970    542.207    542.552    542.207
 25.070    568.000    589.996    -21.996    541.895    589.674    541.895    542.250    541.895
 25.170    595.000    571.468     23.532    541.583    571.123    541.583    541.948    541.583
 25.270    561.612    559.357      2.255    541.271    558.994    541.271    541.646    541.271
 25.370    555.000    552.598      2.402    540.958    552.219    540.958    541.344    540.958
 25.470    577.573    549.107     28.466    540.645    548.714    540.645    541.043    540.645
 25.570    512.896    547.187    -34.291    540.332    546.780    540.332    540.742    540.332
 25.670    582.000    545.983     36.017    540.019    545.562    540.019    540.442    540.019
 25.770    540.499    545.121     -4.621    539.705    544.685    539.705    540.142    539.705
 25.870    547.000    544.452      2.548    539.391    544.001    539.391    539.843    539.391
 25.970    540.722    543.921     -3.199    539.077    543.453    539.077    539.546    539.077
 26.070    567.000    543.475     23.525    538.763    542.990    538.763    539.249    538.763
 26.170    578.000    543.103     34.897    538.449    542.598    538.449    538.954    538.449
 26.270    505.000    542.805    -37.805    538.135    542.280    538.135    538.660    538.135
 26.370    572.000    542.554     29.446    537.820    542.006    537.820    538.368    537.820
 26.470    504.178    542.360    -38.182    537.506    541.788    537.506    538.078    537.506
 26.570    544.000    542.220      1.780    537.191    541.622    537.191    537.790    537.191
 26.670    497.091    542.138    -45.047    536.877    541.511    536.877    537.504    536.877
 26.770    555.000    542.123     12.877    536.562    541.464    536.562    537.221    536.562
 26.870    564.000    542.187     21.813    536.248    541.494    536.248    536.941    536.248
 26.970    586.743    542.348     44.395    535.934    541.616    535.934    536.665    535.934
 27.070    560.082    542.631     17.451    535.619    541.856    535.619    536.393    535.619
 27.170    548.000    543.067      4.933    535.305    542.246    535.305    536.126    535.305
 27.270    520.339    543.713    -23.374    534.991    542.839    534.991    535.864    534.991
 27.370    569.000    544.651     24.349    534.677    543.718    534.677    535.609    534.677
 27.470    565.000    546.035     18.965    534.364    545.036    534.364    535.361    534.364
 27.570    567.000    548.269     18.731    534.050    547.195    534.050    535.122    534.050
 27.670    548.825    552.765     -3.940    533.737    551.606    533.737    534.893    533.737
 27.770    579.000    564.115     14.885    533.424    562.855    533.424    534.676    533.424
 27.870    592.000    593.434     -1.434    533.111    592.053    533.111    534.474    533.111
 27.970    678.353    657.324     21.029    532.798    655.793    532.798    534.290    532.798
 28.070    785.338    762.633     22.705    532.486    760.919    532.486    534.129    532.486
 28.170    856.000    880.711    -24.711    532.174    878.791    532.174    533.995    532.174
 28.270    930.000    942.739    -12.739    531.863    940.608    531.863    533.896    531.863
 28.370    956.745    900.921     55.824    531.552    898.569    531.552    533.839    531.552
 28.470    818.000    799.089     18.911    531.241    796.466    531.241    533.836    531.241
 28.570    767.242    715.531     51.711    530.930    712.552    530.930    533.899    530.930
 28.670    664.724    694.647    -29.923    530.621    691.214    530.621    534.042    530.621
 28.770    782.000    734.804     47.196    530.311    730.814    530.311    534.281    530.311
 28.870    752.888    799.439    -46.551    530.002    794.784    530.002    534.632    530.002
 28.970    829.000    832.464     -3.464    529.693    827.029    529.693    535.110    529.693
 29.070    755.470    798.440    -42.971    529.385    792.100    529.385    535.725    529.385
 29.170    680.000    722.256    -42.256    529.078    714.874    529.078    536.470    529.078
 29.270    666.000    647.829     18.171    528.771    639.296    528.771    537.316    528.771
 29.370    651.000    597.545     53.455    528.464    587.831    528.464    538.187    528.464
 29.470    625.000    571.298     53.702    528.158    560.506    528.158    538.955    528.158
 29.570    541.867    559.700    -17.832    527.853    548.108    527.853    539.447    527.853
 29.670    600.000    554.504     45.496    527.548    542.557    527.548    539.496    527.548
 29.770    527.096    551.437    -24.342    527.244    539.662    527.244    539.019    527.244
 29.870    584.000    548.957     35.043    526.941    537.838    526.941    538.059    526.941
 29.970    558.000    546.697     11.303    526.638    536.572    526.638    536.762    526.638
 30.070    582.451    544.675     37.777    526.336    535.704    526.336    535.305    526.336
 30.170    550.142    543.008      7.134    526.035    535.205    526.035    533.835    526.035
 30.270    609.000    541.908     67.092    525.734    535.195    525.734    532.445    525.734
 30.370    516.937    541.864    -24.927    525.434    536.117    525.434    531.178    525.434
 30.470    557.019    543.983     13.037    525.135    539.065    525.135    530.047    525.135
 30.570    588.000    550.174     37.826    524.836    545.951    524.836    529.047    524.836
 30.670    566.000    562.387      3.613    524.539    558.738    524.539    528.166    524.539
 30.770    626.000    580.414     45.586    524.242    577.234    524.242    527.387    524.242
 30.870    567.375    599.174    -31.799    523.946    596.379    523.946    526.693    523.946
 30.970    638.000    608.374     29.626    523.651    605.902    523.651    526.071    523.651
 31.070    571.000    600.732    -29.732    523.356    598.537    523.356    525.507    523.356
 31.170    646.000    581.704     64.296    523.063    579.748    523.063    524.990    523.063
 31.270    530.000    561.684    -31.684    522.770    559.926    522.770    524.510    522.770
 31.370    554.000    546.774      7.226    522.478    545.183    522.478    524.061    522.478
 31.470    526.450    537.918    -11.468    522.188    536.464    522.188    523.637    522.188
 31.570    529.000    533.384     -4.384    521.898    532.047    521.898    523.232    521.898
 31.670    563.000    531.161     31.839    521.609    529.923    521.609    522.844    521.609
 31.770    487.452    529.970    -42.518    521.321    528.818    521.321    522.470    521.321
 31.870    554.000    529.228     24.772    521.033    528.152    521.033    522.108    521.033
 31.970    516.141    528.719    -12.578    520.747    527.709    520.747    521.756    520.747
 32.070    488.915    528.366    -39.451    520.462    527.415    520.462    521.412    520.462
 32.170    543.000    528.143     14.857    520.178    527.244    520.178    521.076    520.178
 32.270    574.092    528.040     46.052    519.895    527.187    519.895    520.747    519.895
 32.370    564.237    528.057     36.180    519.613    527.245    519.613    520.424    519.613
 32.470    488.382    528.204    -39.822    519.332    527.429    519.332    520.105    519.332
 32.570    516.000    528.498    -12.498    519.052    527.756    519.052    519.792    519.052
 32.670    533.000    528.967      4.033    518.773    528.256    518.773    519.483    518.773
 32.770    579.000    529.654     49.346    518.495    528.970    518.495    519.178    518.495
 32.870    522.890    530.618     -7.727    518.218    529.958    518.218    518.877    518.218
 32.970    550.000    531.948     18.052    517.943    531.311    517.943    518.579    517.943
 33.070    546.000    533.787     12.213    517.668    533.170    517.668    518.284    517.668
 33.170    560.000    536.399     23.601    517.395    535.800    517.395    517.992    517.395
 33.270    564.000    540.394     23.606    517.123    539.811    517.123    517.703    517.123
 33.370    568.000    547.364     20.636    516.852    546.795    516.852    517.416    516.852
 33.470    525.902    561.198    -35.296    516.582    560.641    516.582    517.132    516.582
 33.570    603.000    589.723     13.277    516.313    589.174    516.313    516.851    516.313
 33.670    642.000    644.505     -2.505    516.045    643.958    516.045    516.572    516.045
 33.770    747.000    735.324     11.676    515.779    734.773    515.779    516.294    515.779
 33.870    863.000    858.281      4.719    515.514    857.725    515.514    516.019    515.514
 33.970    952.000    982.358    -30.358    515.250    981.803    515.250    515.746    515.250
 34.070   1014.361   1048.513    -34.152    514.987   1047.975    514.987    515.475    514.987
 34.170   1065.913   1013.243     52.670    514.726   1012.736    514.726    515.206    514.726
 34.270    956.000    901.802     54.198    514.466    901.324    514.466    514.939    514.466
 34.370    764.000    773.738     -9.738    514.207    773.277    514.207    514.674    514.207
 34.470    645.000    670.201    -25.201    513.949    669.747    513.949    514.410    513.949
 34.570    622.000    603.147     18.853    513.693    602.696    513.693    514.149    513.693
 34.670    593.750    566.149     27.602    513.438    565.700    513.438    513.889    513.438
 34.770    571.000    547.519     23.481    513.184    547.073    513.184    513.631    513.184
 34.870    537.503    538.038     -0.534    512.932    537.595    512.932    513.374    512.932
 34.970    516.472    532.612    -16.140    512.681    532.173    512.681    513.120    512.681
 35.070    506.000    529.002    -23.002    512.431    528.567    512.431    512.866    512.431
 35.170    534.522    526.330      8.192    512.183    525.897    512.183    512.615    512.183
 35.270    528.000    524.237      3.763    511.936    523.807    511.936    512.365    511.936
 35.370    478.000    522.545    -44.545    511.690    522.117    511.690    512.117    511.690
 35.470    492.875    521.147    -28.272    511.446    520.721    511.446    511.871    511.446
 35.570    502.000    519.971    -17.971    511.203    519.548    511.203    511.626    511.203
 35.670    528.000    518.967      9.033    510.961    518.545    510.961    511.383    510.961
 35.770    485.257    518.098    -32.841    510.721    517.677    510.721    511.142    510.721
 35.870    522.214    517.334      4.880    510.483    516.914    510.483    510.902    510.483
 35.970    511.000    516.656     -5.656    510.245    516.238    510.245    510.664    510.245
 36.070    507.572    516.055     -8.483    510.009    515.637    510.009    510.427    510.009
 36.170    515.000    515.515     -0.515    509.775    515.098    509.775    510.192    509.775
 36.270    489.537    515.029    -25.492    509.542    514.612    509.542    509.959    509.542
 36.370    501.000    514.589    -13.589    509.311    514.172    509.311    509.728    509.311
 36.470    507.000    514.194     -7.194    509.080    513.777    509.080    509.498    509.080
 36.570    526.000    513.841     12.159    508.852    513.423    508.852    509.269    508.852
 36.670    537.000    513.531     23.469    508.625    513.114    508.625    509.042    508.625
 36.770    473.000    513.275    -40.275    508.399    512.856    508.399    508.817    508.399
 36.870    513.000    513.093     -0.093    508.175    512.675    508.175    508.594    508.175
 36.970    517.000    513.045      3.955    507.952    512.625    507.952    508.372    507.952
 37.070    550.210    513.246     36.964    507.731    512.826    507.731    508.152    507.731
 37.170    498.000    513.898    -15.898    507.511    513.477    507.511    507.933    507.511
 37.270    517.447    515.257      2.189    507.293    514.835    507.293    507.716    507.293
 37.370    530.000    517.512     12.488    507.076    517.089    507.076    507.501    507.076
 37.470    555.187    520.574     34.613    506.861    520.149    506.861    507.288    506.861
 37.570    500.016    523.827    -23.810    506.648    523.402    506.648    507.076    506.648
 37.670    536.862    526.068     10.794    506.436    525.643    506.436    506.866    506.436
 37.770    536.000    526.159      9.841    506.225    525.734    506.225    506.657    506.225
 37.870    584.000    524.119     59.881    506.016    523.694    506.016    506.450    506.016
 37.970    504.000    520.996    -16.996    505.809    520.571    505.809    506.245    505.809
 38.070    539.000    517.759     21.241    505.603    517.332    505.603    506.041    505.603
 38.170    497.846    514.883    -17.037    505.398    514.452    505.398    505.840    505.398
 38.270    501.929    512.594    -10.665    505.196    512.158    505.196    505.639    505.196
 38.370    450.000    510.936    -60.936    504.995    510.494    504.995    505.441    504.995
 38.470    509.000    509.802     -0.802    504.795    509.356    504.795    505.244    504.795
 38.570    484.508    509.042    -24.534    504.597    508.592    504.597    505.049    504.597
 38.670    541.046    508.518     32.528    504.401    508.064    504.401    504.856    504.401
 38.770    480.177    508.131    -27.953    504.206    507.673    504.206    504.664    504.206
 38.870    497.724    507.819    -10.094    504.012    507.357    504.012    504.475    504.012
 38.970    515.387    507.550      7.837    503.821    507.085    503.821    504.287    503.821
 39.070    508.000    507.307      0.693    503.631    506.838    503.631    504.100    503.631
 39.170    494.000    507.084    -13.084    503.442    506.611    503.442    503.916    503.442
 39.270    548.652    506.875     41.776    503.256    506.399    503.256    503.733    503.256
 39.370    490.000    506.680    -16.680    503.070    506.199    503.070    503.552    503.070
 39.470    503.000    506.496     -3.496    502.887    506.010    502.887    503.372    502.887
 39.570    486.000    506.321    -20.321    502.705    505.832    502.705    503.195    502.705
 39.670    464.000    506.157    -42.157    502.525    505.663    502.525    503.019    502.525
 39.770    506.000    506.002     -0.002    502.346    505.503    502.346    502.845    502.346
 39.870    539.383    505.856     33.527    502.169    505.352    502.169    502.673    502.169
 39.970    489.000    505.719    -16.719    501.994    505.210    501.994    502.502    501.994
 40.070    526.000    505.591     20.409    501.820    505.078    501.820    502.334    501.820
 40.170    509.000    505.474      3.526    501.648    504.955    501.648    502.167    501.648
 40.270    497.000    505.367     -8.367    501.477    504.842    501.477    502.002    501.477
 40.370    491.000    505.271    -14.271    501.308    504.741    501.308    501.839    501.308
 40.470    543.691    505.188     38.503    501.141    504.652    501.141    501.678    501.141
 40.570    462.000    505.120    -43.120    500.976    504.578    500.976    501.518    500.976
 40.670    464.000    505.067    -41.067    500.812    504.519    500.812    501.361    500.812
 40.770    512.000    505.032      6.968    500.650    504.478    500.650    501.205    500.650
 40.870    478.000    505.020    -27.020    500.489    504.459    500.489    501.051    500.489
 40.970    484.325    505.033    -20.708    500.330    504.465    500.330    500.899    500.330
 41.070    501.000    505.076     -4.076    500.173    504.501    500.173    500.749    500.173
 41.170    499.000    505.158     -6.158    500.017    504.576    500.017    500.601    500.017
 41.270    460.659    505.286    -44.627    499.864    504.697    499.864    500.454    499.864
 41.370    541.000    505.474     35.526    499.711    504.877    499.711    500.310    499.711
 41.470    506.310    505.740      0.570    499.561    505.135    499.561    500.167    499.561
 41.570    491.000    506.113    -15.113    499.412    505.499    499.412    500.027    499.412
 41.670    526.000    506.645     19.355    499.265    506.024    499.265    499.888    499.265
 41.770    484.000    507.454    -23.454    499.119    506.824    499.119    499.752    499.119
 41.870    511.537    508.805      2.732    498.975    508.166    498.975    499.617    498.975
 41.970    479.000    511.263    -32.263    498.833    510.616    498.833    499.484    498.833
 42.070    543.335    515.878     27.458    498.693    515.223    498.693    499.354    498.693
 42.170    518.000    524.221     -6.221    498.554    523.560    498.554    499.225    498.554
 42.270    548.000    538.000     10.000    498.417    537.335    498.417    499.099    498.417
 42.370    534.764    558.052    -23.288    498.281    557.385    498.281    498.974    498.281
 42.470    588.000    582.879      5.121    498.147    582.214    498.147    498.852    498.147
 42.570    575.000    607.295    -32.295    498.015    606.632    498.015    498.731    498.015
 42.670    585.000    622.619    -37.619    497.885    621.954    497.885    498.613    497.885
 42.770    601.000    621.412    -20.412    497.756    620.737    497.756    498.497    497.756
 42.870    636.159    604.324     31.835    497.629    603.629    497.629    498.383    497.629
 42.970    626.547    579.335     47.213    497.504    578.613    497.504    498.271    497.504
 43.070    554.000    554.775     -0.775    497.380    554.026    497.380    498.162    497.380
 43.170    534.000    535.330     -1.330    497.258    534.554    497.258    498.055    497.258
 43.270    528.000    522.134      5.866    497.138    521.335    497.138    497.950    497.138
 43.370    499.227    514.179    -14.952    497.019    513.359    497.019    497.847    497.019
 43.470    510.000    509.740      0.260    496.902    508.900    496.902    497.747    496.902
 43.570    511.386    507.304      4.082    496.787    506.445    496.787    497.649    496.787
 43.670    479.000    505.890    -26.890    496.673    505.012    496.673    497.553    496.673
 43.770    534.443    504.976     29.466    496.561    504.079    496.561    497.460    496.561
 43.870    544.393    504.323     40.069    496.451    503.406    496.451    497.370    496.451
 43.970    516.000    503.825     12.175    496.342    502.886    496.342    497.282    496.342
 44.070    523.000    503.431     19.569    496.235    502.471    496.235    497.197    496.235
 44.170    469.759    503.116    -33.356    496.130    502.132    496.130    497.114    496.130
 44.270    493.000    502.861     -9.861    496.026    501.854    496.026    497.034    496.026
 44.370    482.000    502.656    -20.656    495.924    501.624    495.924    496.957    495.924
 44.470    477.000    502.492    -25.492    495.824    501.433    495.824    496.883    495.824
 44.570    534.507    502.362     32.146    495.725    501.275    495.725    496.813    495.725
 44.670    509.000    502.261      6.739    495.628    501.145    495.628    496.745    495.628
 44.770    474.000    502.187    -28.187    495.533    501.040    495.533    496.680    495.533
 44.870    532.000    502.137     29.863    495.439    500.958    495.439    496.619    495.439
 44.970    518.242    502.109     16.132    495.347    500.895    495.347    496.561    495.347
 45.070    532.000    502.102     29.898    495.257    500.852    495.257    496.507    495.257
 45.170    464.000    502.115    -38.115    495.168    500.826    495.168    496.457    495.168
 45.270    498.000    502.147     -4.147    495.081    500.818    495.081    496.411    495.081
 45.370    518.000    502.200     15.800    494.995    500.827    494.995    496.369    494.995
 45.470    520.000    502.272     17.728    494.911    500.853    494.911    496.331    494.911
 45.570    509.000    502.366      6.634    494.829    500.897    494.829    496.298    494.829
 45.670    497.000    502.482     -5.482    494.749    500.961    494.749    496.270    494.749
 45.770    491.000    502.622    -11.622    494.670    501.044    494.670    496.247    494.670
 45.870    510.000    502.787      7.213    494.593    501.149    494.593    496.230    494.593
 45.970    489.000    502.981    -13.981    494.517    501.278    494.517    496.219    494.517
 46.070    512.242    503.206      9.036    494.443    501.433    494.443    496.215    494.443
 46.170    515.000    503.467     11.533    494.370    501.619    494.370    496.217    494.370
 46.270    499.000    503.769     -4.769    494.300    501.840    494.300    496.228    494.300
 46.370    466.998    504.118    -37.120    494.230    502.102    494.230    496.246    494.230
 46.470    493.000    504.524    -11.524    494.163    502.412    494.163    496.274    494.163
 46.570    507.000    504.998      2.002    494.097    502.783    494.097    496.312    494.097
 46.670    489.453    505.560    -16.107    494.033    503.231    494.033    496.360    494.033
 46.770    519.675    506.241     13.433    493.970    503.788    493.970    496.421    493.970
 46.870    470.978    507.108    -36.130    493.909    504.518    493.909    496.496    493.909
 46.970    551.000    508.298     42.702    493.849    505.558    493.849    496.587    493.849
 47.070    480.000    510.089    -30.089    493.791    507.182    493.791    496.694    493.791
 47.170    544.657    512.975     31.682    493.735    509.883    493.735    496.822    493.735
 47.270    537.000    517.705     19.295    493.680    514.403    493.680    496.972    493.680
 47.370    489.689    525.162    -35.473    493.626    521.626    493.626    497.149    493.626
 47.470    524.000    536.020    -12.020    493.575    532.216    493.575    497.357    493.575
 47.570    613.000    550.170     62.830    493.525    546.061    493.525    497.602    493.525
 47.670    540.348    566.107    -25.759    493.476    561.649    493.476    497.891    493.476
 47.770    577.000    580.515     -3.515    493.429    575.658    493.429    498.234    493.429
 47.870    570.000    588.810    -18.810    493.383    583.494    493.383    498.644    493.383
 47.970    620.294    587.842     32.452    493.339    581.993    493.339    499.136    493.339
 48.070    536.644    578.730    -42.086    493.297    572.253    493.297    499.730    493.297
 48.170    602.323    565.753     36.570    493.256    558.524    493.256    500.453    493.256
 48.270    540.090    553.119    -13.029    493.217    544.980    493.217    501.333    493.217
 48.370    588.447    543.391     45.056    493.179    534.146    493.179    502.409    493.179
 48.470    502.000    537.478    -35.478    493.143    526.889    493.143    503.722    493.143
 48.570    530.000    535.173     -5.173    493.108    522.958    493.108    505.317    493.108
 48.670    524.000    535.773    -11.773    493.075    521.604    493.075    507.240    493.075
 48.770    562.000    538.563     23.437    493.043    522.068    493.043    509.535    493.043
 48.870    546.949    543.055      3.894    493.013    523.832    493.013    512.233    493.013
 48.970    514.000    549.044    -35.044    492.984    526.684    492.984    515.342    492.984
 49.070    527.705    556.613    -28.908    492.957    530.742    492.957    518.825    492.957
 49.170    533.000    566.286    -33.286    492.931    536.640    492.931    522.573    492.931
 49.270    557.000    579.607    -22.607    492.907    546.141    492.907    526.367    492.907
 49.370    619.079    600.543     18.536    492.884    563.562    492.884    529.855    492.884
 49.470    640.000    637.918      2.082    492.862    598.190    492.862    532.569    492.862
 49.570    754.634    708.136     46.499    492.842    666.896    492.842    534.040    492.842
 49.670    862.258    835.482     26.776    492.824    794.262    492.824    533.969    492.824
 49.770   1138.000   1045.675     92.325    492.807   1005.994    492.807    532.372    492.807
 49.870   1401.000   1350.203     50.797    492.791   1313.272    492.791    529.569    492.791
 49.970   1771.000   1725.765     45.235    492.777   1692.339    492.777    526.036    492.777
 50.070   2086.000   2100.628    -14.628    492.764   2071.024    492.764    522.232    492.764
 50.170   2277.000   2363.502    -86.502    492.753   2337.704    492.753    518.499    492.753
 50.270   2340.225   2411.010    -70.785    492.743   2388.768    492.743    515.043    492.743
 50.370   2132.000   2220.499    -88.499    492.735   2201.409    492.735    511.967    492.735
 50.470   1827.000   1871.614    -44.614    492.728   1855.215    492.728    509.302    492.728
 50.570   1374.000   1483.008   -109.008    492.722   1468.855    492.722    507.039    492.722
 50.670   1081.722   1146.422    -64.700    492.718   1134.126    492.718    505.144    492.718
 50.770    961.522    904.141     57.381    492.715    893.375    492.715    503.574    492.715
 50.870    723.000    755.536    -32.536    492.713    746.031    492.713    502.283    492.713
 50.970    682.000    676.341      5.659    492.713    667.877    492.713    501.225    492.713
 51.070    604.000    637.483    -33.483    492.714    629.878    492.714    500.359    492.714
 51.170    629.000    616.294     12.706    492.717    609.397    492.717    499.650    492.717
 51.270    647.353    600.166     47.187    492.721    593.851    492.721    499.066    492.721
 51.370    579.000    584.935     -5.935    492.726    579.102    492.726    498.584    492.726
 51.470    588.000    570.704     17.296    492.732    565.272    492.732    498.184    492.732
 51.570    551.928    558.522     -6.593    492.740    553.427    492.740    497.849    492.740
 51.670    579.000    549.067     29.933    492.749    544.258    492.749    497.568    492.749
 51.770    562.000    542.424     19.576    492.760    537.859    492.760    497.332    492.760
 51.870    530.000    538.244     -8.244    492.772    533.887    492.772    497.133    492.772
 51.970    543.000    536.002      6.998    492.785    531.825    492.785    496.966    492.785
 52.070    494.906    535.222    -40.316    492.799    531.198    492.799    496.826    492.799
 52.170    520.218    535.601    -15.383    492.815    531.709    492.815    496.710    492.815
 52.270    521.277    537.067    -15.790    492.832    533.287    492.832    496.614    492.832
 52.370    534.388    539.846     -5.458    492.850    536.161    492.850    496.538    492.850
 52.470    582.000    544.622     37.378    492.869    541.015    492.869    496.478    492.869
 52.570    575.543    552.839     22.704    492.890    549.297    492.890    496.433    492.890
 52.670    592.000    567.122     24.878    492.912    563.632    492.912    496.403    492.912
 52.770    552.881    591.602    -38.721    492.935    588.153    492.935    496.385    492.935
 52.870    648.461    631.749     16.711    492.959    628.329    492.959    496.379    492.959
 52.970    707.000    693.200     13.800    492.985    689.799    492.985    496.384    492.985
 53.070    775.135    779.356     -4.220    493.012    775.966    493.012    496.400    493.012
 53.170    891.000    888.119      2.881    493.040    884.734    493.040    496.426    493.040
 53.270   1024.000   1008.650     15.350    493.069   1005.264    493.069    496.462    493.069
 53.370   1076.000   1119.426    -43.426    493.100   1116.035    493.100    496.508    493.100
 53.470   1229.000   1190.863     38.137    493.131   1187.461    493.131    496.562    493.131
 53.570   1140.000   1197.920    -57.920    493.164   1194.498    493.164    496.626    493.164
 53.670   1135.000   1137.804     -2.804    493.198   1134.350    493.198    496.699    493.198
 53.770    976.321   1032.531    -56.211    493.233   1029.029    493.233    496.780    493.233
 53.870    864.966    912.376    -47.411    493.269    908.814    493.269    496.871    493.269
 53.970    847.017    800.886     46.131    493.306    797.252    493.306    496.972    493.306
 54.070    663.157    710.812    -47.655    493.345    707.098    493.345    497.081    493.345
 54.170    676.665    645.643     31.022    493.384    641.842    493.384    497.201    493.384
 54.270    596.686    602.724     -6.038    493.425    598.829    493.425    497.330    493.425
 54.370    598.000    576.599     21.401    493.466    572.602    493.466    497.470    493.466
 54.470    574.000    561.625     12.375    493.509    557.518    493.509    497.621    493.509
 54.570    564.000    553.377     10.623    493.553    549.151    493.553    497.783    493.553
 54.670    541.000    548.966     -7.966    493.598    544.609    493.598    497.958    493.598
 54.770    608.000    546.749     61.251    493.644    542.250    493.644    498.145    493.644
 54.870    574.000    545.892     28.108    493.691    541.239    493.691    498.347    493.691
 54.970    537.000    546.012     -9.012    493.739    541.191    493.739    498.563    493.739
 55.070    498.642    546.954    -48.312    493.789    541.950    493.789    498.794    493.789
 55.170    576.000    548.675     27.325    493.839    543.472    493.839    499.044    493.839
 55.270    574.000    551.207     22.793    493.890    545.787    493.890    499.311    493.890
 55.370    606.000    554.640     51.360    493.942    548.985    493.942    499.599    493.942
 55.470    573.000    559.161     13.839    493.995    553.249    493.995    499.910    493.995
 55.570    568.000    565.132      2.868    494.050    558.939    494.050    500.244    494.050
 55.670    556.000    573.303    -17.303    494.105    566.803    494.105    500.606    494.105
 55.770    586.000    585.239      0.761    494.161    578.403    494.161    500.997    494.161
 55.870    612.000    604.102      7.898    494.218    596.897    494.218    501.422    494.218
 55.970    654.747    635.776     18.971    494.276    628.164    494.276    501.883    494.276
 56.070    732.686    690.053     42.633    494.335    681.992    494.335    502.386    494.335
 56.170    803.036    781.034     22.002    494.395    772.474    494.395    502.935    494.395
 56.270    928.000    925.439      2.561    494.456    916.326    494.456    503.537    494.456
 56.370   1182.741   1137.694     45.047    494.517   1127.970    494.517    504.200    494.517
 56.470   1378.956   1421.931    -42.975    494.580   1411.532    494.580    504.932    494.580
 56.570   1684.770   1762.940    -78.170    494.644   1751.800    494.644    505.746    494.644
 56.670   2107.235   2119.267    -12.032    494.708   2107.316    494.708    506.654    494.708
 56.770   2359.000   2422.474    -63.474    494.773   2409.624    494.773    507.677    494.773
 56.870   2630.000   2591.431     38.569    494.839   2577.568    494.839    508.836    494.839
 56.970   2575.000   2570.697      4.303    494.906   2555.655    494.906    510.161    494.906
 57.070   2365.000   2368.766     -3.766    494.974   2352.310    494.974    511.692    494.974
 57.170   2056.000   2051.091      4.909    495.043   2032.925    495.043    513.477    495.043
 57.270   1766.000   1697.998     68.002    495.112   1677.774    495.112    515.576    495.112
 57.370   1357.000   1372.286    -15.286    495.183   1349.596    495.183    518.066    495.183
 57.470   1103.183   1109.293     -6.110    495.254   1083.654    495.254    521.036    495.254
 57.570    944.000    919.425     24.575    495.326    890.257    495.326    524.590    495.326
 57.670    792.962    795.904     -2.942    495.398    762.515    495.398    528.848    495.398
 57.770    765.000    723.960     41.040    495.472    685.530    495.472    533.937    495.472
 57.870    727.000    688.409     38.591    495.546    643.984    495.546    539.990    495.546
 57.970    652.000    677.967    -25.967    495.621    626.464    495.621    547.131    495.621
 58.070    717.278    686.439     30.839    495.697    626.663    495.697    555.470    495.697
 58.170    739.032    711.844     27.187    495.773    642.529    495.773    565.076    495.773
 58.270    808.504    754.584     53.921    495.850    674.460    495.850    575.951    495.850
 58.370    800.592    815.361    -14.770    495.928    723.272    495.928    587.986    495.928
 58.470    900.000    893.275      6.725    496.007    788.349    496.007    600.893    496.007
 58.570    911.000    984.334    -73.334    496.086    866.251    496.086    614.127    496.086
 58.670   1076.008   1080.848     -4.840    496.166    950.164    496.166    626.812    496.166
 58.770   1102.637   1172.649    -70.012    496.246   1031.121    496.246    637.747    496.246
 58.870   1280.000   1250.057     29.943    496.328   1100.809    496.328    645.563    496.328
 58.970   1244.537   1305.404    -60.867    496.409   1152.741    496.409    649.076    496.409
 59.070   1334.000   1331.990      2.010    496.492   1180.798    496.492    647.705    496.492
 59.170   1372.537   1325.568     46.969    496.575   1180.468    496.575    641.708    496.575
 59.270   1393.000   1289.462    103.538    496.659   1154.083    496.659    632.072    496.659
 59.370   1189.456   1235.900    -46.444    496.743   1112.530    496.743    620.137    496.743
 59.470   1207.000   1180.603     26.397    496.828   1070.233    496.828    607.197    496.828
 59.570   1241.000   1137.978    103.022    496.914   1040.592    496.914    594.265    496.914
 59.670   1178.000   1120.692     57.308    497.000   1035.600    497.000    582.015    497.000
 59.770   1160.000   1139.210     20.790    497.087   1065.338    497.087    570.830    497.087
 59.870   1228.781   1197.641     31.140    497.174   1133.748    497.174    560.887    497.174
 59.970   1376.000   1289.158     86.842    497.262   1233.968    497.262    552.224    497.262
 60.070   1503.000   1394.419    108.581    497.350   1346.710    497.350    544.795    497.350
 60.170   1588.000   1483.588    104.412    497.439   1442.244    497.439    538.508    497.439
 60.270   1590.000   1523.761     66.239    497.528   1487.791    497.528    533.241    497.528
 60.370   1445.621   1493.464    -47.843    497.618   1462.003    497.618    528.867    497.618
 60.470   1333.165   1395.192    -62.027    497.708   1367.491    497.708    525.255    497.708
 60.570   1203.594   1252.338    -48.744    497.799   1227.752    497.799    522.285    497.799
 60.670   1050.444   1094.865    -44.422    497.890   1072.850    497.890    519.847    497.890
 60.770    894.052    947.761    -53.709    497.982    927.867    497.982    517.846    497.982
 60.870    767.000    826.525    -59.525    498.074    808.382    498.074    516.203    498.074
 60.970    738.358    737.233      1.126    498.167    720.540    498.167    514.851    498.167
 61.070    704.000    679.083     24.917    498.260    663.595    498.260    513.738    498.260
 61.170    629.000    648.035    -19.035    498.353    633.555    498.353    512.821    498.353
 61.270    672.000    640.199     31.801    498.447    626.562    498.447    512.063    498.447
 61.370    678.763    653.956     24.806    498.541    641.028    498.541    511.437    498.541
 61.470    686.000    690.424     -4.424    498.636    678.098    498.636    510.913    498.636
 61.570    760.000    752.321      7.679    498.731    740.514    498.731    510.467    498.731
 61.670    856.000    841.579     14.421    498.826    830.237    498.826    510.071    498.826
 61.770    934.000    956.382    -22.382    498.922    945.478    498.922    509.701    498.922
 61.870   1047.000   1088.478    -41.478    499.018   1078.012    499.018    509.335    499.018
 61.970   1270.151   1221.674     48.477    499.114   1211.665    499.114    508.958    499.114
 62.070   1295.000   1332.488    -37.488    499.211   1322.968    499.211    508.567    499.211
 62.170   1390.193   1394.998     -4.805    499.307   1385.997    499.307    508.166    499.307
 62.270   1376.000   1391.401    -15.401    499.405   1382.934    499.405    507.765    499.405
 62.370   1335.907   1322.421     13.486    499.502   1314.482    499.502    507.375    499.502
 62.470   1187.000   1206.777    -19.777    499.600   1199.338    499.600    507.006    499.600
 62.570   1093.000   1070.403     22.597    499.698   1063.427    499.698    506.666    499.698
 62.670    974.100    936.249     37.851    499.796    929.693    499.796    506.357    499.796
 62.770    777.000    819.755    -42.755    499.895    813.579    499.895    506.081    499.895
 62.870    723.553    728.274     -4.721    499.993    722.439    499.993    505.838    499.993
 62.970    704.000    662.486     41.514    500.092    656.958    500.092    505.627    500.092
 63.070    579.000    618.799    -39.799    500.191    613.549    500.191    505.445    500.191
 63.170    627.062    591.878     35.185    500.291    586.878    500.291    505.290    500.291
 63.270    599.000    576.571     22.429    500.390    571.799    500.390    505.160    500.390
 63.370    560.043    568.987     -8.944    500.490    564.420    500.490    505.051    500.490
 63.470    588.000    566.828     21.172    500.590    562.448    500.590    504.963    500.590
 63.570    603.000    569.316     33.684    500.690    565.104    500.690    504.892    500.690
 63.670    587.000    576.954     10.046    500.790    572.892    500.790    504.837    500.790
 63.770    589.164    591.229     -2.065    500.890    587.302    500.890    504.796    500.890
 63.870    630.000    614.230     15.770    500.990    610.423    500.990    504.767    500.990
 63.970    683.000    648.070     34.930    501.091    644.370    501.091    504.749    501.091
 64.070    738.000    694.098     43.902    501.191    690.490    501.191    504.740    501.191
 64.170    800.000    751.961     48.039    501.292    748.435    501.292    504.741    501.292
 64.270    835.000    818.705     16.295    501.392    815.254    501.392    504.749    501.392
 64.370    922.634    888.144     34.490    501.493    884.763    501.493    504.764    501.493
 64.470    923.000    950.907    -27.907    501.594    947.597    501.594    504.786    501.594
 64.570    929.267    996.136    -66.869    501.695    992.901    501.695    504.814    501.695
 64.670    982.000   1015.290    -33.290    501.796   1012.135    501.796    504.847    501.796
 64.770    983.000   1005.813    -22.813    501.896   1002.742    501.896    504.886    501.896
 64.870    964.000    971.530     -7.530    501.997    968.542    501.997    504.929    501.997
 64.970    913.538    920.406     -6.868    502.098    917.496    502.098    504.977    502.098
 65.070    879.322    861.755     17.567    502.199    858.916    502.199    505.029    502.199
 65.170    795.290    803.640     -8.350    502.300    800.863    502.300    505.085    502.300
 65.270    767.000    751.184     15.816    502.400    748.460    502.400    505.145    502.400
 65.370    690.000    706.469    -16.469    502.501    703.789    502.501    505.208    502.501
 65.470    634.000    669.617    -35.617    502.602    666.972    502.602    505.275    502.602
 65.570    592.000    640.000    -48.000    502.702    637.383    502.702    505.345    502.702
 65.670    580.000    616.797    -36.797    502.803    614.202    502.803    505.418    502.803
 65.770    579.000    599.087    -20.087    502.903    596.511    502.903    505.494    502.903
 65.870    560.000    585.937    -25.937    503.003    583.378    503.003    505.574    503.003
 65.970    561.149    576.513    -15.364    503.103    573.968    503.103    505.656    503.103
 66.070    568.000    570.129     -2.129    503.203    567.596    503.203    505.741    503.203
 66.170    565.178    566.245     -1.067    503.303    563.722    503.303    505.828    503.303
 66.270    609.056    564.441     44.615    503.403    561.926    503.403    505.919    503.403
 66.370    560.000    564.413     -4.413    503.502    561.904    503.502    506.012    503.502
 66.470    538.000    566.000    -28.000    503.601    563.496    503.601    506.107    503.601
 66.570    588.821    569.256     19.566    503.701    566.753    503.701    506.205    503.701
 66.670    601.338    574.571     26.767    503.800    572.066    503.800    506.306    503.800
 66.770    594.000    582.876     11.124    503.898    580.367    503.898    506.410    503.898
 66.870    610.000    595.954     14.046    503.997    593.437    503.997    506.516    503.997
 66.970    605.336    616.843    -11.506    504.095    614.313    504.095    506.625    504.095
 67.070    635.000    650.236    -15.236    504.193    647.691    504.193    506.737    504.193
 67.170    651.000    702.684    -51.684    504.291    700.119    504.291    506.851    504.291
 67.270    771.000    782.268    -11.268    504.388    779.680    504.388    506.969    504.388
 67.370    869.968    897.445    -27.478    504.486    894.833    504.486    507.089    504.486
 67.470   1020.476   1054.905    -34.429    504.583   1052.269    504.583    507.213    504.583
 67.570   1229.000   1256.627    -27.627    504.679   1253.972    504.679    507.339    504.679
 67.670   1574.000   1496.771     77.229    504.776   1494.105    504.776    507.470    504.776
 67.770   1711.211   1759.206    -47.996    504.872   1756.540    504.872    507.604    504.872
 67.870   2027.262   2016.466     10.797    504.967   2013.811    504.967    507.741    504.967
 67.970   2236.363   2231.239      5.124    505.063   2228.605    505.063    507.883    505.063
 68.070   2277.056   2362.945    -85.890    505.158   2360.333    505.158    508.029    505.158
 68.170   2476.956   2381.434     95.523    505.253   2378.828    505.253    508.179    505.253
 68.270   2318.943   2282.004     36.939    505.347   2279.373    505.347    508.335    505.347
 68.370   2141.000   2088.290     52.710    505.441   2085.597    505.441    508.495    505.441
 68.470   1842.455   1839.652      2.804    505.534   1836.860    505.534    508.661    505.534
 68.570   1560.796   1575.558    -14.762    505.627   1572.643    505.627    508.834    505.627
 68.670   1330.977   1326.800      4.178    505.720   1323.744    505.720    509.012    505.720
 68.770   1145.000   1112.881     32.119    505.812   1109.678    505.812    509.198    505.812
 68.870    899.911    942.511    -42.600    505.904    939.157    505.904    509.392    505.904
 68.970    815.000    815.721     -0.721    505.996    812.217    505.996    509.594    505.996
 69.070    730.000    726.879      3.121    506.087    723.224    506.087    509.806    506.087
 69.170    619.612    667.756    -48.144    506.177    663.948    506.177    510.028    506.177
 69.270    613.000    629.964    -16.964    506.267    625.999    506.267    510.260    506.267
 69.370    621.000    606.402     14.598    506.356    602.272    506.356    510.506    506.356
 69.470    595.470    591.797      3.673    506.445    587.491    506.445    510.765    506.445
 69.570    642.000    582.616     59.384    506.534    578.121    506.534    511.039    506.534
 69.670    602.000    576.688     25.312    506.622    571.987    506.622    511.331    506.622
 69.770    566.000    572.770     -6.770    506.709    567.844    506.709    511.641    506.709
 69.870    575.000    570.189      4.811    506.796    565.017    506.796    511.974    506.796
 69.970    580.409    568.602     11.807    506.883    563.159    506.883    512.330    506.883
 70.070    570.000    567.844      2.156    506.969    562.101    506.969    512.714    506.969
 70.170    568.000    567.857      0.143    507.054    561.783    507.054    513.130    507.054
 70.270    598.474    568.667     29.806    507.138    562.224    507.138    513.583    507.138
 70.370    575.000    570.396      4.604    507.222    563.539    507.222    514.079    507.222
 70.470    552.264    573.314    -21.051    507.306    565.992    507.306    514.627    507.306
 70.570    597.351    577.938     19.413    507.389    570.087    507.389    515.237    507.389
 70.670    586.000    585.182      0.818    507.471    576.724    507.471    515.923    507.471
 70.770    557.434    596.563    -39.128    507.553    587.400    507.553    516.704    507.553
 70.870    561.000    614.419    -53.419    507.634    604.431    507.634    517.604    507.634
 70.970    636.660    642.088     -5.428    507.714    631.121    507.714    518.655    507.714
 71.070    651.962    683.897    -31.935    507.794    671.754    507.794    519.898    507.794
 71.170    753.000    744.828      8.172    507.873    731.262    507.873    521.382    507.873
 71.270    770.000    829.736    -59.736    507.951    814.437    507.951    523.172    507.951
 71.370    989.843    942.092     47.751    508.028    924.678    508.028    525.341    508.028
 71.470   1066.000   1082.414    -16.414    508.105   1062.417    508.105    527.976    508.105
 71.570   1247.000   1246.708      0.292    508.182   1223.569    508.182    531.171    508.182
 71.670   1366.318   1425.289    -58.971    508.257   1398.354    508.257    535.025    508.257
 71.770   1609.000   1602.296      6.704    508.332   1570.820    508.332    539.634    508.332
 71.870   1777.710   1756.304     21.406    508.406   1719.460    508.406    545.084    508.406
 71.970   1941.246   1863.172     78.074    508.479   1820.073    508.479    551.434    508.479
 72.070   1868.000   1902.700    -34.700    508.552   1852.433    508.552    558.707    508.552
 72.170   1846.000   1867.487    -21.487    508.623   1809.168    508.623    566.868    508.623
 72.270   1701.730   1766.992    -65.262    508.694   1699.845    508.694    575.800    508.694
 72.370   1596.476   1622.373    -25.897    508.764   1545.850    508.764    585.271    508.764
 72.470   1480.000   1457.442     22.558    508.834   1371.377    508.834    594.900    508.834
 72.570   1248.000   1292.462    -44.462    508.902   1197.257    508.902    604.120    508.902
 72.670   1163.000   1141.731     21.269    508.970   1038.536    508.970    612.182    508.970
 72.770    971.000   1013.271    -42.271    509.037    904.092    509.037    618.233    509.037
 72.870    859.418    909.628    -50.210    509.103    797.252    509.103    621.493    509.103
 72.970    820.590    829.362     -8.771    509.168    717.049    509.168    621.493    509.168
 73.070    704.000    768.799    -64.799    509.233    659.800    509.233    618.242    509.233
 73.170    749.000    723.566     25.434    509.296    620.645    509.296    612.225    509.296
 73.270    695.000    689.604      5.396    509.359    594.739    509.359    604.230    509.359
 73.370    611.580    663.649    -52.069    509.421    577.969    509.421    595.107    509.421
 73.470    615.208    643.343    -28.134    509.482    567.231    509.482    585.599    509.482
 73.570    636.000    627.124      8.876    509.542    560.407    509.542    576.265    509.542
 73.670    598.000    614.044    -16.044    509.601    556.171    509.601    567.481    509.601
 73.770    636.000    603.560     32.440    509.659    553.754    509.659    559.475    509.659
 73.870    595.000    595.363     -0.363    509.717    552.734    509.717    552.358    509.717
 73.970    600.000    589.233     10.767    509.773    552.859    509.773    546.164    509.773
 74.070    555.156    584.949    -29.793    509.828    553.929    509.828    540.869    509.828
 74.170    616.000    582.222     33.778    509.883    555.720    509.883    536.411    509.883
 74.270    580.000    580.667     -0.667    509.936    557.932    509.936    532.704    509.936
 74.370    597.812    579.801     18.011    509.989    560.175    509.989    529.652    509.989
 74.470    667.000    579.059     87.941    510.040    561.985    510.040    527.157    510.040
 74.570    623.000    577.875     45.125    510.091    562.888    510.091    525.124    510.091
 74.670    650.000    575.820     74.180    510.141    562.541    510.141    523.466    510.141
 74.770    626.000    572.753     53.247    510.189    560.876    510.189    522.111    510.189
 74.870    684.000    568.860    115.140    510.237    558.143    510.237    520.996    510.237
 74.970    619.000    564.561     54.439    510.283    554.811    510.283    520.070    510.283
 75.070    629.000    560.365     68.635    510.329    551.431    510.329    519.292    510.329
 75.170    589.000    556.782     32.218    510.374    548.545    510.374    518.633    510.374
 75.270    591.000    554.306     36.694    510.417    546.672    510.417    518.067    510.417
 75.370    573.000    553.421     19.579    510.459    546.314    510.459    517.576    510.459
 75.470    583.000    554.616     28.384    510.501    547.975    510.501    517.146    510.501
 75.570    569.000    558.387     10.613    510.541    552.159    510.541    516.767    510.541
 75.670    553.486    565.204    -11.717    510.580    559.345    510.580    516.430    510.580
 75.770    579.000    575.445      3.555    510.619    569.919    510.619    516.130    510.619
 75.870    625.125    589.287     35.838    510.656    584.060    510.656    515.860    510.656
 75.970    638.000    606.569     31.431    510.692    601.613    510.692    515.617    510.692
 76.070    622.000    626.661     -4.661    510.727    621.951    510.727    515.398    510.727
 76.170    653.351    648.372      4.978    510.760    643.887    510.760    515.199    510.760
 76.270    652.760    669.906    -17.147    510.793    665.628    510.793    515.018    510.793
 76.370    681.000    688.924     -7.924    510.825    684.836    510.825    514.854    510.825
 76.470    697.000    702.790     -5.790    510.855    698.881    510.855    514.703    510.855
 76.570    664.000    709.148    -45.148    510.884    705.407    510.884    514.566    510.884
 76.670    689.000    706.743    -17.743    510.912    703.161    510.912    514.440    510.912
 76.770    729.129    695.968     33.160    510.939    692.536    510.939    514.324    510.939
 76.870    716.000    678.675     37.325    510.965    675.384    510.965    514.218    510.965
 76.970    663.978    657.413      6.565    510.990    654.253    510.990    514.120    510.990
 77.070    612.000    634.700    -22.700    511.013    631.662    511.013    514.029    511.013
 77.170    595.000    612.608    -17.608    511.036    609.682    511.036    513.945    511.036
 77.270    601.059    592.608      8.452    511.057    589.786    511.057    513.866    511.057
 77.370    581.000    575.563      5.437    511.077    572.839    511.077    513.794    511.077
 77.470    565.000    561.792      3.208    511.095    559.156    511.095    513.726    511.095
 77.570    534.000    551.186    -17.186    511.113    548.633    511.113    513.662    511.113
 77.670    529.932    543.360    -13.428    511.129    540.884    511.129    513.603    511.129
 77.770    532.000    537.793     -5.793    511.144    535.389    511.144    513.547    511.144
 77.870    514.623    533.945    -19.322    511.158    531.608    511.158    513.494    511.158
 77.970    539.413    531.336      8.077    511.171    529.061    511.171    513.444    511.171
 78.070    572.168    529.578     42.590    511.182    527.363    511.182    513.397    511.182
 78.170    502.000    528.388    -26.388    511.192    526.227    511.192    513.352    511.192
 78.270    563.245    527.570     35.675    511.201    525.460    511.201    513.310    511.201
 78.370    499.000    527.000    -28.000    511.209    524.938    511.209    513.270    511.209
 78.470    509.000    526.605    -17.605    511.215    524.588    511.215    513.231    511.215
 78.570    479.000    526.347    -47.347    511.220    524.371    511.220    513.195    511.220
 78.670    563.734    526.210     37.525    511.224    524.273    511.224    513.160    511.224
 78.770    514.000    526.195    -12.195    511.227    524.294    511.227    513.127    511.227
 78.870    545.689    526.312     19.377    511.228    524.444    511.228    513.096    511.228
 78.970    528.000    526.568      1.432    511.228    524.729    511.228    513.066    511.228
 79.070    509.000    526.986    -17.986    511.227    525.173    511.227    513.039    511.227
 79.170    545.322    527.638     17.684    511.224    525.848    511.224    513.012    511.224
 79.270    509.391    528.526    -19.135    511.220    526.756    511.220    512.988    511.220
 79.370    510.589    529.678    -19.089    511.215    527.925    511.215    512.965    511.215
 79.470    504.377    531.129    -26.753    511.208    529.390    511.208    512.944    511.208
 79.570    524.217    532.926     -8.709    511.200    531.198    511.200    512.925    511.200
 79.670    544.000    535.135      8.865    511.191    533.415    511.191    512.907    511.191
 79.770    554.000    537.858     16.142    511.180    536.143    511.180    512.891    511.180
 79.870    527.769    541.247    -13.478    511.168    539.533    511.168    512.877    511.168
 79.970    562.000    545.518     16.482    511.155    543.805    511.155    512.863    511.155
 80.070    535.019    550.974    -15.955    511.141    549.260    511.141    512.851    511.141
 80.170    555.000    558.006     -3.006    511.125    556.290    511.125    512.838    511.125
 80.270    567.465    567.056      0.409    511.107    565.338    511.107    512.824    511.107
 80.370    626.700    578.538     48.162    511.089    576.820    511.089    512.808    511.089
 80.470    557.000    592.736    -35.736    511.069    591.020    511.069    512.789    511.069
 80.570    562.000    609.688    -47.688    511.047    607.979    511.047    512.764    511.047
 80.670    614.000    629.114    -15.114    511.024    627.416    511.024    512.734    511.024
 80.770    590.000    650.361    -60.361    511.000    648.682    511.000    512.698    511.000
 80.870    641.000    672.420    -31.420    510.974    670.765    510.974    512.654    510.974
 80.970    667.000    694.014    -27.014    510.948    692.389    510.948    512.603    510.948
 81.070    735.790    713.773     22.017    510.919    712.183    510.919    512.547    510.919
 81.170    711.678    730.410    -18.732    510.889    728.858    510.889    512.487    510.889
 81.270    762.583    742.851     19.731    510.858    741.339    510.858    512.423    510.858
 81.370    717.000    750.319    -33.319    510.826    748.846    510.826    512.358    510.826
 81.470    720.000    752.424    -32.424    510.792    750.989    510.792    512.291    510.792
 81.570    733.000    749.194    -16.194    510.756    747.794    510.756    512.225    510.756
 81.670    737.000    741.023     -4.023    510.720    739.655    510.720    512.158    510.720
 81.770    785.000    728.628     56.372    510.681    727.289    510.681    512.092    510.681
 81.870    709.000    713.033     -4.033    510.642    711.719    510.642    512.027    510.642
 81.970    711.604    695.471     16.133    510.601    694.178    510.601    511.962    510.601
 82.070    629.000    677.151    -48.151    510.558    675.877    510.558    511.898    510.558
 82.170    669.000    659.022      9.978    510.514    657.762    510.514    511.835    510.514
 82.270    677.197    641.670     35.527    510.469    640.423    510.469    511.773    510.469
 82.370    627.000    625.390      1.610    510.422    624.154    510.422    511.710    510.422
 82.470    655.215    610.339     44.876    510.374    609.111    510.374    511.649    510.374
 82.570    552.397    596.668    -44.271    510.324    595.446    510.324    511.587    510.324
 82.670    566.000    584.563    -18.563    510.273    583.346    510.273    511.525    510.273
 82.770    509.000    574.219    -65.219    510.220    573.003    510.220    511.464    510.220
 82.870    607.571    565.799     41.772    510.166    564.584    510.166    511.402    510.166
 82.970    526.000    559.421    -33.421    510.111    558.207    510.111    511.339    510.111
 83.070    531.547    555.146    -23.599    510.054    553.930    510.054    511.276    510.054
 83.170    589.837    552.965     36.873    509.996    551.746    509.996    511.213    509.996
 83.270    568.000    552.780     15.220    509.936    551.559    509.936    511.149    509.936
 83.370    522.000    554.395    -32.395    509.874    553.169    509.874    511.084    509.874
 83.470    544.622    557.496    -12.874    509.812    556.266    509.812    511.018    509.812
 83.570    529.000    561.658    -32.658    509.747    560.423    509.747    510.952    509.747
 83.670    564.261    566.349     -2.089    509.682    565.110    509.682    510.884    509.682
 83.770    540.000    570.957    -30.957    509.615    569.713    509.615    510.816    509.615
 83.870    591.000    574.823     16.177    509.546    573.576    509.546    510.746    509.546
 83.970    585.620    577.322      8.298    509.476    576.073    509.476    510.676    509.476
 84.070    567.000    577.976    -10.976    509.404    576.728    509.404    510.605    509.404
 84.170    544.000    576.582    -32.582    509.331    575.335    509.331    510.532    509.331
 84.270    556.000    573.264    -17.264    509.257    572.020    509.257    510.459    509.257
 84.370    573.000    568.418      4.582    509.181    567.177    509.181    510.384    509.181
 84.470    511.000    562.571    -51.571    509.103    561.334    509.103    510.309    509.103
 84.570    550.000    556.266     -6.266    509.024    555.032    509.024    510.232    509.024
 84.670    514.000    549.982    -35.982    508.944    548.750    508.944    510.155    508.944
 84.770    542.000    544.096     -2.096    508.862    542.865    508.862    510.076    508.862
 84.870    586.498    538.871     47.628    508.778    537.640    508.778    509.997    508.778
 84.970    541.247    534.453      6.794    508.694    533.221    508.694    509.916    508.694
 85.070    525.451    530.889     -5.438    508.607    529.655    508.607    509.834    508.607
 85.170    500.496    528.148    -27.652    508.519    526.910    508.519    509.751    508.519
 85.270    513.000    526.149    -13.149    508.430    524.906    508.430    509.667    508.430
 85.370    494.908    524.787    -29.879    508.339    523.539    508.339    509.583    508.339
 85.470    518.605    523.960     -5.355    508.247    522.706    508.247    509.497    508.247
 85.570    517.481    523.584     -6.103    508.153    522.323    508.153    509.410    508.153
 85.670    569.000    523.607     45.393    508.058    522.338    508.058    509.322    508.058
 85.770    501.978    524.012    -22.034    507.961    522.734    507.961    509.233    507.961
 85.870    516.000    524.825     -8.825    507.863    523.537    507.863    509.143    507.863
 85.970    503.505    526.113    -22.609    507.764    524.815    507.764    509.052    507.764
 86.070    529.000    527.984      1.016    507.662    526.674    507.662    508.960    507.662
 86.170    528.777    530.579     -1.803    507.560    529.256    507.560    508.867    507.560
 86.270    561.000    534.061     26.939    507.456    532.723    507.456    508.773    507.456
 86.370    523.076    538.595    -15.519    507.350    537.241    507.350    508.679    507.350
 86.470    503.972    544.329    -40.357    507.243    542.956    507.243    508.583    507.243
 86.570    505.000    551.359    -46.359    507.135    549.967    507.135    508.486    507.135
 86.670    538.000    559.699    -21.699    507.025    558.284    507.025    508.389    507.025
 86.770    604.000    569.240     34.760    506.913    567.802    506.913    508.291    506.913
 86.870    569.000    579.728    -10.728    506.800    578.264    506.800    508.192    506.800
 86.970    605.000    590.739     14.261    506.686    589.250    506.686    508.092    506.686
 87.070    594.000    601.683     -7.683    506.570    600.168    506.570    507.992    506.570
 87.170    681.000    611.813     69.187    506.453    610.273    506.453    507.890    506.453
 87.270    599.813    620.277    -20.464    506.334    618.715    506.334    507.788    506.334
 87.370    681.000    626.234     54.766    506.214    624.651    506.214    507.686    506.214
 87.470    658.000    629.027     28.973    506.092    627.427    506.092    507.583    506.092
 87.570    662.000    628.378     33.622    505.969    626.764    505.969    507.479    505.969
 87.670    692.000    624.479     67.521    505.845    622.853    505.845    507.375    505.845
 87.770    610.000    617.923     -7.923    505.719    616.287    505.719    507.270    505.719
 87.870    603.000    609.542     -6.542    505.591    607.896    505.591    507.165    505.591
 87.970    644.000    600.248     43.752    505.463    598.592    505.463    507.060    505.463
 88.070    631.000    590.924     40.076    505.332    589.255    505.332    506.954    505.332
 88.170    573.600    582.353     -8.753    505.201    580.671    505.201    506.848    505.201
 88.270    617.000    575.179     41.821    505.067    573.480    505.067    506.742    505.067
 88.370    546.371    569.871    -23.500    504.933    568.154    504.933    506.636    504.933
 88.470    535.269    566.714    -31.445    504.797    564.976    504.797    506.530    504.797
 88.570    531.425    565.801    -34.376    504.659    564.039    504.659    506.425    504.659
 88.670    584.000    567.041     16.959    504.521    565.255    504.521    506.319    504.521
 88.770    612.000    570.178     41.822    504.380    568.365    504.380    506.214    504.380
 88.870    631.000    574.806     56.194    504.239    572.963    504.239    506.110    504.239
 88.970    623.000    580.390     42.610    504.096    578.516    504.096    506.006    504.096
 89.070    604.000    586.299     17.701    503.951    584.391    503.951    505.903    503.951
 89.170    601.000    591.826      9.174    503.805    589.881    503.805    505.801    503.805
 89.270    592.000    596.268     -4.268    503.658    594.282    503.658    505.700    503.658
 89.370    582.345    598.999    -16.654    503.509    596.968    503.509    505.601    503.509
 89.470    622.000    599.549     22.451    503.359    597.469    503.359    505.504    503.359
 89.570    579.000    597.744    -18.744    503.208    595.609    503.208    505.408    503.208
 89.670    606.000    593.732     12.268    503.055    591.535    503.055    505.316    503.055
 89.770    594.000    587.918      6.082    502.901    585.653    502.901    505.226    502.901
 89.870    479.000    580.848   -101.848    502.746    578.509    502.746    505.139    502.746
 89.970    585.000    573.099     11.901    502.589    570.679    502.589    505.057    502.589
 90.070    608.195    565.197     42.998    502.431    562.690    502.431    504.980    502.431
 90.170    597.328    557.582     39.746    502.271    554.980    502.271    504.908    502.271
 90.270    506.000    550.588    -44.588    502.110    547.884    502.110    504.844    502.110
 90.370    560.000    544.439     15.561    501.948    541.622    501.948    504.787    501.948
 90.470    559.000    539.253     19.747    501.785    536.314    501.785    504.741    501.785
 90.570    570.000    535.060     34.940    501.620    531.988    501.620    504.706    501.620
 90.670    499.000    531.823    -32.823    501.454    528.602    501.454    504.684    501.454
 90.770    506.000    529.457    -23.457    501.286    526.071    501.286    504.679    501.286
 90.870    497.000    527.858    -30.858    501.117    524.287    501.117    504.693    501.117
 90.970    537.276    526.923     10.353    500.947    523.143    500.947    504.729    500.947
 91.070    516.000    526.562    -10.562    500.776    522.548    500.776    504.792    500.776
 91.170    537.119    526.717     10.402    500.603    522.436    500.603    504.884    500.603
 91.270    537.000    527.363      9.637    500.430    522.781    500.430    505.010    500.430
 91.370    563.917    528.518     35.400    500.254    523.594    500.254    505.175    500.254
 91.470    549.000    530.241     18.759    500.078    524.931    500.078    505.384    500.078
 91.570    552.273    532.637     19.636    499.900    526.891    499.900    505.641    499.900
 91.670    513.000    535.847    -22.847    499.721    529.610    499.721    505.951    499.721
 91.770    553.000    540.049     12.951    499.541    533.263    499.541    506.318    499.541
 91.870    533.000    545.443    -12.443    499.360    538.045    499.360    506.746    499.360
 91.970    550.000    552.243     -2.243    499.177    544.166    499.177    507.238    499.177
 92.070    546.642    560.650    -14.008    498.994    551.826    498.994    507.796    498.994
 92.170    565.000    570.837     -5.837    498.809    561.198    498.809    508.422    498.809
 92.270    608.000    582.922     25.078    498.622    572.400    498.622    509.113    498.622
 92.370    615.743    596.939     18.804    498.435    585.469    498.435    509.868    498.435
 92.470    571.000    612.821    -41.821    498.247    600.345    498.247    510.679    498.247
 92.570    620.000    630.380    -10.380    498.057    616.850    498.057    511.537    498.057
 92.670    659.000    649.258      9.742    497.866    634.639    497.866    512.428    497.866
 92.770    662.352    669.032     -6.681    497.674    653.311    497.674    513.333    497.674
 92.870    663.000    689.121    -26.121    497.481    672.309    497.481    514.224    497.481
 92.970    707.000    708.813     -1.813    497.286    690.956    497.286    515.072    497.286
 93.070    718.000    727.416     -9.416    497.091    708.597    497.091    515.835    497.091
 93.170    736.425    744.355     -7.930    496.895    724.701    496.895    516.473    496.895
 93.270    706.458    759.290    -52.832    496.697    738.970    496.697    516.942    496.697
 93.370    749.000    772.158    -23.158    496.498    751.379    496.498    517.203    496.498
 93.470    753.000    783.120    -30.120    496.298    762.118    496.298    517.228    496.298
 93.570    807.000    792.457     14.543    496.098    771.482    496.098    517.003    496.098
 93.670    768.016    800.480    -32.463    495.896    779.775    495.896    516.533    495.896
 93.770    835.311    807.499     27.812    495.693    787.289    495.693    515.838    495.693
 93.870    760.054    813.871    -53.817    495.489    794.344    495.489    514.953    495.489
 93.970    835.976    820.032     15.944    495.284    801.336    495.284    513.920    495.284
 94.070    847.000    826.477     20.523    495.078    808.715    495.078    512.781    495.078
 94.170    904.000    833.646     70.354    494.871    816.882    494.871    511.579    494.871
 94.270    870.831    841.731     29.100    494.662    825.992    494.662    510.349    494.662
 94.370    848.000    850.570     -2.570    494.453    835.854    494.453    509.120    494.453
 94.470    856.000    859.582     -3.582    494.243    845.864    494.243    507.915    494.243
 94.570    902.000    867.800     34.200    494.032    855.039    494.032    506.752    494.032
 94.670    901.000    873.973     27.027    493.821    862.115    493.821    505.642    493.821
 94.770    889.000    876.740     12.260    493.608    865.724    493.608    504.595    493.608
 94.870    885.776    874.878     10.899    493.394    864.637    493.394    503.613    493.394
 94.970    876.000    867.580      8.420    493.179    858.046    493.179    502.701    493.179
 95.070    850.422    854.684     -4.262    492.964    845.784    492.964    501.857    492.964
 95.170    867.000    836.732     30.268    492.747    828.398    492.747    501.082    492.747
 95.270    840.000    814.872     25.128    492.530    807.035    492.530    500.372    492.530
 95.370    821.000    790.643     30.357    492.312    783.239    492.312    499.724    492.312
 95.470    788.000    765.769     22.231    492.093    758.737    492.093    499.135    492.093
 95.570    752.387    742.001     10.386    491.873    735.284    491.873    498.600    491.873
 95.670    750.000    721.022     28.978    491.652    714.567    491.652    498.115    491.652
 95.770    675.000    704.384    -29.384    491.431    698.144    491.431    497.675    491.431
 95.870    762.000    693.478     68.522    491.208    687.410    491.208    497.276    491.208
 95.970    651.000    689.513    -38.513    490.985    683.578    490.985    496.914    490.985
 96.070    697.149    693.507      3.643    490.761    687.670    490.761    496.585    490.761
 96.170    707.000    706.275      0.725    490.537    700.504    490.537    496.286    490.537
 96.270    756.000    728.414     27.586    490.311    722.682    490.311    496.013    490.311
 96.370    779.000    760.264     18.736    490.085    754.545    490.085    495.764    490.085
 96.470    839.710    801.852     37.858    489.859    796.123    489.859    495.538    489.859
 96.570    842.000    852.819    -10.819    489.631    847.061    489.631    495.332    489.631
 96.670    920.000    912.337      7.663    489.403    906.530    489.403    495.144    489.403
 96.770    917.899    979.023    -61.123    489.174    973.149    489.174    494.975    489.174
 96.870   1008.836   1050.933    -42.097    488.945   1044.978    488.945    494.823    488.945
 96.970   1147.000   1125.488     21.512    488.715   1119.435    488.715    494.688    488.715
 97.070   1200.273   1199.498      0.775    488.484   1193.334    488.484    494.571    488.484
 97.170   1232.000   1269.261    -37.261    488.253   1262.970    488.253    494.472    488.253
 97.270   1296.024   1330.732    -34.708    488.021   1324.300    488.021    494.392    488.021
 97.370   1310.000   1379.847    -69.847    487.789   1373.256    487.789    494.332    487.789
 97.470   1450.000   1413.028     36.972    487.556   1406.259    487.556    494.295    487.556
 97.570   1416.000   1427.789    -11.789    487.322   1420.818    487.322    494.282    487.322
 97.670   1430.000   1423.235      6.765    487.088   1416.034    487.088    494.297    487.088
 97.770   1462.080   1400.227     61.853    486.854   1392.764    486.854    494.343    486.854
 97.870   1300.396   1361.127    -60.730    486.619   1353.362    486.619    494.425    486.619
 97.970   1261.000   1309.289    -48.289    486.383   1301.177    486.383    494.549    486.383
 98.070   1285.000   1248.534     36.466    486.147   1240.024    486.147    494.720    486.147
 98.170   1236.605   1182.751     53.854    485.911   1173.783    485.911    494.946    485.911
 98.270   1131.000   1115.639     15.361    485.674   1106.146    485.674    495.235    485.674
 98.370   1099.820   1050.556     49.264    485.437   1040.460    485.437    495.598    485.437
 98.470   1002.000    990.437     11.563    485.200    979.652    485.200    496.045    485.200
 98.570    877.000    937.761    -60.761    484.962    926.187    484.962    496.589    484.962
 98.670    851.000    894.550    -43.550    484.724    882.075    484.724    497.243    484.724
 98.770    833.000    862.391    -29.391    484.485    848.889    484.485    498.023    484.485
 98.870    837.000    842.485     -5.485    484.246    827.813    484.246    498.944    484.246
 98.970    842.000    835.690      6.310    484.007    819.693    484.007    500.021    484.007
 99.070    825.000    842.575    -17.575    483.768    825.080    483.768    501.272    483.768
 99.170    863.000    863.464     -0.464    483.528    844.282    483.528    502.712    483.528
 99.270    912.000    898.420     13.580    483.288    877.349    483.288    504.356    483.288
 99.370   1004.928    947.244     57.683    483.048    924.067    483.048    506.219    483.048
 99.470   1058.000   1009.427     48.573    482.808    983.915    482.808    508.313    482.808
 99.570   1137.457   1084.082     53.375    482.568   1056.001    482.568    510.645    482.568
 99.670   1097.000   1169.879    -72.879    482.327   1138.986    482.327    513.222    482.327
 99.770   1342.000   1264.968     77.032    482.086   1231.023    482.086    516.043    482.086
 99.870   1314.401   1366.928    -52.528    481.846   1329.697    481.846    519.102    481.846
 99.970   1425.175   1472.750    -47.575    481.605   1432.010    481.605    522.387    481.605
100.070   1583.000   1578.875      4.125    481.364   1534.428    481.364    525.875    481.364
100.170   1734.056   1681.345     52.711    481.123   1633.023    481.123    529.533    481.123
100.270   1818.000   1776.068     41.932    480.882   1723.748    480.882    533.316    480.882
100.370   1870.630   1859.174     11.456    480.641   1802.793    480.641    537.164    480.641
100.470   1815.000   1927.350   -112.350    480.400   1866.921    480.400    540.997    480.400
100.570   2014.000   1978.022     35.978    480.159   1913.655    480.159    544.719    480.159
100.670   2054.000   2009.397     44.603    479.918   1941.315    479.918    548.214    479.918
100.770   2084.000   2020.368     63.632    479.677   1948.925    479.677    551.353    479.677
100.870   2079.410   2010.531     68.878    479.436   1936.220    479.436    553.994    479.436
100.970   1993.000   1980.416     12.584    479.196   1903.864    479.196    556.003    479.196
101.070   1929.000   1931.723     -2.723    478.955   1853.677    478.955    557.261    478.955
101.170   1914.213   1867.418     46.795    478.715   1788.708    478.715    557.683    478.715
101.270   1734.000   1791.512    -57.512    478.475   1713.008    478.475    557.230    478.475
101.370   1744.000   1708.588     35.412    478.235   1631.147    478.235    555.916    478.235
101.470   1674.000   1623.246     50.754    477.996   1547.663    477.996    553.805    477.996
101.570   1562.000   1539.639     22.361    477.756   1466.604    477.756    551.001    477.756
101.670   1411.000   1461.162    -50.162    477.517   1391.238    477.517    547.634    477.517
101.770   1394.000   1390.306      3.694    477.279   1323.916    477.279    543.843    477.279
101.870   1304.000   1328.601    -24.601    477.040   1266.036    477.040    539.764    477.040
101.970   1271.000   1276.645     -5.645    476.802   1218.070    476.802    535.521    476.802
102.070   1273.917   1234.158     39.758    476.565   1179.635    476.565    531.218    476.565
102.170   1201.585   1200.095      1.490    476.328   1149.598    476.328    526.945    476.328
102.270   1232.142   1172.773     59.369    476.091   1126.206    476.091    522.769    476.091
102.370   1160.000   1150.050      9.950    475.854   1107.267    475.854    518.744    475.854
102.470   1099.168   1129.556    -30.388    475.619   1090.370    475.619    514.908    475.619
102.570   1086.000   1108.969    -22.969    475.383   1073.165    475.383    511.288    475.383
102.670   1038.000   1086.315    -48.315    475.149   1053.663    475.149    507.902    475.149
102.770    998.000   1060.233    -62.233    474.914   1030.489    474.914    504.758    474.914
102.870    999.212   1030.097    -30.885    474.681   1003.017    474.681    501.860    474.681
102.970   1025.000    995.994     29.006    474.448    971.335    474.448    499.205    474.448
103.070   1021.679    958.560     63.119    474.216    936.085    474.216    496.786    474.216
103.170    942.783    918.766     24.017    473.984    898.250    473.984    494.592    473.984
103.270    927.313    877.735     49.577    473.753    858.965    473.753    492.610    473.753
103.370    870.000    836.597     33.403    473.523    819.375    473.523    490.826    473.523
103.470    833.000    796.401     36.599    473.293    780.544    473.293    489.224    473.293
103.570    752.000    758.054     -6.054    473.065    743.398    473.065    487.787    473.065
103.670    723.000    722.288      0.712    472.837    708.684    472.837    486.500    472.837
103.770    703.000    689.643     13.357    472.610    676.958    472.610    485.346    472.610
103.870    665.537    660.458      5.079    472.383    648.575    472.383    484.311    472.383
103.970    638.041    634.882      3.159    472.158    623.698    472.158    483.380    472.158
104.070    589.000    612.898    -23.898    471.934    602.324    471.934    482.540    471.934
104.170    616.000    594.352     21.648    471.710    584.309    471.710    481.779    471.710
104.270    607.000    578.990     28.010    471.488    569.411    471.488    481.087    471.488
104.370    596.000    566.490     29.510    471.266    557.317    471.266    480.456    471.266
104.470    568.000    556.503     11.497    471.046    547.687    471.046    479.875    471.046
104.570    560.000    548.677     11.323    470.827    540.173    470.827    479.340    470.827
104.670    567.881    542.679     25.202    470.608    534.451    470.608    478.844    470.608
104.770    600.000    538.215     61.785    470.391    530.230    470.391    478.381    470.391
104.870    533.000    535.036     -2.036    470.175    527.267    470.175    477.948    470.175
104.970    539.538    532.947      6.592    469.960    525.368    469.960    477.540    469.960
105.070    609.000    531.802     77.198    469.747    524.391    469.747    477.156    469.747
105.170    557.000    531.506     25.494    469.534    524.245    469.534    476.793    469.534
105.270    490.476    532.012    -41.535    469.323    524.883    469.323    476.448    469.323
105.370    485.624    533.310    -47.686    469.113    526.297    469.113    476.120    469.113
105.470    553.665    535.426     18.238    468.905    528.515    468.905    475.808    468.905
105.570    519.745    538.415    -18.669    468.698    531.593    468.698    475.510    468.698
105.670    548.000    542.352      5.648    468.492    535.606    468.492    475.226    468.492
105.770    577.830    547.314     30.516    468.288    540.633    468.288    474.954    468.288
105.870    552.419    553.375     -0.956    468.085    546.749    468.085    474.695    468.085
105.970    595.000    560.590     34.410    467.884    554.007    467.884    474.446    467.884
106.070    592.000    568.974     23.026    467.684    562.426    467.684    474.209    467.684
106.170    547.000    578.515    -31.515    467.486    571.993    467.486    473.982    467.486
106.270    565.541    589.141    -23.601    467.289    582.636    467.289    473.766    467.289
106.370    590.000    600.716    -10.716    467.094    594.218    467.094    473.559    467.094
106.470    587.000    613.044    -26.044    466.901    606.547    466.901    473.363    466.901
106.570    636.000    625.873     10.127    466.709    619.368    466.709    473.175    466.709
106.670    616.000    638.890    -22.890    466.519    632.370    466.519    472.998    466.519
106.770    685.000    651.736     33.264    466.331    645.195    466.331    472.829    466.331
106.870    693.111    664.020     29.091    466.145    657.450    466.145    472.670    466.145
106.970    652.000    675.333    -23.333    465.960    668.729    465.960    472.521    465.960
107.070    682.786    685.288     -2.502    465.777    678.642    465.777    472.380    465.777
107.170    676.000    693.556    -17.556    465.596    686.862    465.596    472.249    465.596
107.270    710.000    699.920     10.080    465.418    693.171    465.418    472.127    465.418
107.370    654.000    704.309    -50.309    465.241    697.499    465.241    472.015    465.241
107.470    684.882    706.824    -21.943    465.066    699.946    465.066    471.912    465.066
107.570    679.928    707.722    -27.794    464.893    700.769    464.893    471.819    464.893
107.670    671.000    707.370    -36.370    464.722    700.334    464.722    471.736    464.722
107.770    678.000    706.192    -28.192    464.553    699.064    464.553    471.662    464.553
107.870    703.650    704.606     -0.956    464.387    697.380    464.387    471.599    464.387
107.970    713.374    702.983     10.391    464.222    695.649    464.222    471.547    464.222
108.070    719.592    701.608     17.984    464.060    694.158    464.060    471.506    464.060
108.170    646.000    700.666    -54.666    463.900    693.090    463.900    471.476    463.900
108.270    691.000    700.224     -9.224    463.743    692.513    463.743    471.457    463.743
108.370    682.000    700.232    -18.232    463.587    692.376    463.587    471.451    463.587
108.470    750.733    700.527     50.206    463.434    692.516    463.434    471.457    463.434
108.570    704.142    700.844      3.298    463.284    692.667    463.284    471.476    463.284
108.670    727.942    700.840     27.101    463.136    692.486    463.136    471.508    463.136
108.770    682.000    700.131    -18.131    462.990    691.587    462.990    471.555    462.990
108.870    657.867    698.338    -40.471    462.847    689.592    462.847    471.617    462.847
108.970    731.000    695.144     35.856    462.707    686.181    462.707    471.695    462.707
109.070    718.679    690.342     28.338    462.569    681.148    462.569    471.790    462.569
109.170    657.000    683.866    -26.866    462.433    674.426    462.433    471.903    462.433
109.270    635.000    675.802    -40.802    462.301    666.098    462.301    472.035    462.301
109.370    704.000    666.353     37.647    462.171    656.367    462.171    472.187    462.171
109.470    684.000    655.810     28.190    462.044    645.520    462.044    472.362    462.044
109.570    670.000    644.506     25.494    461.919    633.893    461.919    472.560    461.919
109.670    620.000    632.789    -12.789    461.798    621.828    461.798    472.785    461.798
109.770    656.000    620.991     35.009    461.679    609.656    461.679    473.038    461.679
109.870    606.000    609.418     -3.418    461.563    597.681    461.563    473.323    461.563
109.970    611.000    598.337     12.663    461.450    586.165    461.450    473.642    461.450
110.070    644.000    587.968     56.032    461.340    575.327    461.340    474.000    461.340
110.170    619.739    578.489     41.249    461.234    565.338    461.234    474.400    461.234
110.270    578.000    570.026      7.974    461.130    556.321    461.130    474.848    461.130
110.370    595.000    562.660     32.340    461.029    548.350    461.029    475.350    461.029
110.470    546.000    556.429    -10.429    460.932    541.458    460.932    475.911    460.932
110.570    571.536    551.333     20.203    460.838    535.637    460.838    476.539    460.838
110.670    530.000    547.340    -17.340    460.747    530.848    460.747    477.243    460.747
110.770    583.000    544.398     38.602    460.659    527.027    460.659    478.032    460.659
110.870    550.000    542.434      7.566    460.575    524.094    460.575    478.915    460.575
110.970    549.033    541.368      7.665    460.494    521.955    460.494    479.905    460.494
111.070    547.000    541.116      5.884    460.416    520.515    460.416    481.015    460.416
111.170    526.000    541.595    -15.595    460.342    519.676    460.342    482.258    460.342
111.270    542.000    542.730     -0.730    460.271    519.348    460.271    483.649    460.271
111.370    574.000    544.449     29.551    460.204    519.444    460.204    485.204    460.204
111.470    499.270    546.677    -47.407    460.141    519.871    460.141    486.941    460.141
111.570    524.325    549.371    -25.046    460.081    520.569    460.081    488.877    460.081
111.670    581.969    552.539     29.430    460.025    521.526    460.025    491.031    460.025
111.770    516.764    556.128    -39.364    459.972    522.670    459.972    493.422    459.972
111.870    575.000    560.121     14.879    459.923    523.966    459.923    496.070    459.923
111.970    534.006    564.515    -30.509    459.879    525.392    459.879    498.993    459.879
112.070    584.056    569.319     14.737    459.838    526.938    459.838    502.210    459.838
112.170    606.023    574.552     31.471    459.800    528.605    459.800    505.738    459.800
112.270    533.000    580.240    -47.240    459.767    530.405    459.767    509.594    459.767
112.370    558.009    586.421    -28.412    459.738    532.360    459.738    513.790    459.738
112.470    583.372    593.135     -9.763    459.713    534.501    459.713    518.337    459.713
112.570    600.000    600.433     -0.433    459.692    536.871    459.692    523.244    459.692
112.670    596.000    608.372    -12.372    459.675    539.524    459.675    528.513    459.675
112.770    617.000    617.021     -0.021    459.662    542.529    459.662    534.144    459.662
112.870    619.000    626.460     -7.460    459.654    545.975    459.654    540.129    459.654
112.970    580.000    636.793    -56.793    459.650    549.977    459.650    546.454    459.650
113.070    658.710    648.146     10.563    459.650    554.685    459.650    553.099    459.650
113.170    602.000    660.685    -58.685    459.655    560.293    459.655    560.033    459.655
113.270    670.154    674.622     -4.469    459.664    567.054    459.664    567.216    459.664
113.370    619.000    690.232    -71.232    459.677    575.295    459.677    574.596    459.677
113.470    709.000    707.869      1.131    459.695    585.434    459.695    582.109    459.695
113.570    705.000    727.985    -22.985    459.718    598.002    459.718    589.675    459.718
113.670    723.000    751.151    -28.151    459.745    613.667    459.745    597.199    459.745
113.770    767.059    778.081    -11.022    459.777    633.254    459.777    604.568    459.777
113.870    790.000    809.655    -19.655    459.813    657.771    459.813    611.653    459.813
113.970    894.000    846.939     47.061    459.854    688.428    459.854    618.312    459.854
114.070    899.717    891.204      8.512    459.901    726.650    459.901    624.390    459.901
114.170    911.000    943.945    -32.945    459.952    774.090    459.952    629.728    459.952
114.270    924.000   1006.878    -82.878    460.008    832.619    460.008    634.170    460.008
114.370   1049.596   1081.938    -32.342    460.068    904.315    460.068    637.575    460.068
114.470   1194.515   1171.250     23.264    460.134    991.417    460.134    639.827    460.134
114.570   1314.000   1277.086     36.914    460.205   1096.276    460.205    640.847    460.205
114.670   1426.539   1401.789     24.750    460.282   1221.271    460.282    640.599    460.282
114.770   1544.932   1547.673     -2.741    460.363   1368.705    460.363    639.096    460.363
114.870   1853.000   1716.899    136.101    460.450   1540.679    460.450    636.396    460.450
114.970   1845.640   1911.318    -65.678    460.541   1738.948    460.541    632.598    460.541
115.070   2225.250   2132.310     92.940    460.639   1964.760    460.639    627.831    460.639
115.170   2427.000   2380.600     46.400    460.741   2218.695    460.741    622.246    460.741
115.270   2785.000   2656.093    128.907    460.849   2500.499    460.849    616.000    460.849
115.370   2965.675   2957.715      7.960    460.963   2808.940    460.963    609.253    460.963
115.470   3331.000   3283.283     47.717    461.082   3141.690    461.082    602.154    461.082
115.570   3653.000   3629.416     23.584    461.207   3495.231    461.207    594.838    461.207
115.670   4050.000   3991.487     58.513    461.337   3864.820    461.337    587.427    461.337
115.770   4257.000   4363.631   -106.631    461.473   4244.487    461.473    580.024    461.473
115.870   4722.582   4738.798    -16.216    461.615   4627.100    461.615    572.717    461.615
115.970   5128.691   5108.873     19.817    461.763   5004.470    461.763    565.578    461.763
116.070   5330.066   5464.847   -134.781    461.916   5367.533    461.916    558.665    461.916
116.170   5907.753   5797.063    110.690    462.076   5706.587    462.076    552.024    462.076
116.270   6224.000   6095.555    128.445    462.242   6011.631    462.242    545.690    462.242
116.370   6334.357   6350.485    -16.128    462.413   6272.802    462.413    539.688    462.413
116.470   6738.000   6552.709    185.291    462.591   6480.935    462.591    534.037    462.591
116.570   6759.000   6694.436     64.564    462.775   6628.228    462.775    528.746    462.775
116.670   6868.000   6769.912     98.088    462.965   6708.919    462.965    523.820    462.965
116.770   6806.000   6776.007     29.993    463.161   6719.875    463.161    519.257    463.161
116.870   6553.000   6712.560   -159.560    463.364   6660.935    463.364    515.052    463.364
116.970   6679.000   6582.387     96.613    463.573   6534.921    463.573    511.196    463.573
117.070   6511.000   6390.956    120.044    463.789   6347.309    463.789    507.677    463.789
117.170   6085.000   6145.808    -60.808    464.011   6105.653    464.011    504.480    464.011
117.270   5590.000   5855.876   -265.876    464.239   5818.900    464.239    501.588    464.239
117.370   5385.000   5530.821   -145.821    464.474   5496.728    464.474    498.983    464.474
117.470   5021.000   5180.463   -159.463    464.716   5148.976    464.716    496.648    464.716
117.570   4837.195   4814.337     22.857    464.965   4785.200    464.965    494.562    464.965
117.670   4469.000   4441.356     27.644    465.221   4414.331    465.221    492.707    465.221
117.770   4121.000   4069.565     51.435    465.483   4044.436    465.483    491.064    465.483
117.870   3754.000   3705.972     48.028    465.752   3682.543    465.752    489.614    465.752
117.970   3244.552   3356.445   -111.893    466.029   3334.538    466.029    488.341    466.029
118.070   3124.739   3025.660     99.079    466.312   3005.118    466.312    487.228    466.312
118.170   2714.503   2717.115     -2.612    466.602   2697.796    466.602    486.259    466.602
118.270   2383.000   2433.178    -50.178    466.900   2414.959    466.900    485.421    466.900
118.370   2175.000   2175.187     -0.187    467.205   2157.955    467.205    484.699    467.205
118.470   1961.000   1943.561     17.439    467.517   1927.221    467.517    484.082    467.517
118.570   1820.846   1737.942     82.903    467.836   1722.408    467.836    483.560    467.836
118.670   1520.000   1557.333    -37.333    468.163   1542.531    468.163    483.122    468.163
118.770   1369.320   1400.232    -30.913    468.498   1386.097    468.498    482.760    468.498
118.870   1184.000   1264.874    -80.874    468.840   1251.348    468.840    482.467    468.840
118.970   1123.000   1149.196    -26.196    469.189   1136.229    469.189    482.236    469.189
119.070    982.000   1051.064    -69.064    469.546   1038.611    469.546    482.060    469.546
119.170    930.000    968.354    -38.354    469.911    956.375    469.911    481.935    469.911
119.270    914.434    899.019     15.415    470.284    887.479    470.284    481.857    470.284
119.370    892.652    841.153     51.499    470.665    830.020    470.665    481.821    470.665
119.470    853.000    793.023     59.977    471.053    782.267    471.053    481.825    471.053
119.570    707.000    753.088    -46.088    471.450    742.682    471.450    481.866    471.450
119.670    751.000    720.006     30.994    471.854    709.926    471.854    481.941    471.854
119.770    705.000    692.628     12.372    472.267    682.851    472.267    482.049    472.267
119.870    676.000    669.986      6.014    472.688    660.490    472.688    482.187    472.688
119.970    660.000    651.271      8.729    473.117    642.036    473.117    482.354    473.117
120.070    629.000    635.823     -6.823    473.554    626.829    473.554    482.550    473.554
120.170    624.000    623.100      0.900    474.000    614.330    474.000    482.772    474.000
120.270    643.782    612.667     31.115    474.454    604.103    474.454    483.021    474.454
120.370    637.001    604.174     32.826    474.917    595.799    474.917    483.295    474.917
120.470    590.000    597.344     -7.344    475.388    589.142    475.388    483.594    475.388
120.570    612.000    591.953     20.047    475.868    583.909    475.868    483.917    475.868
120.670    564.000    587.826    -23.826    476.357    579.925    476.357    484.263    476.357
120.770    536.574    584.823    -48.249    476.855    577.051    476.855    484.633    476.855
120.870    538.292    582.832    -44.540    477.361    575.173    477.361    485.025    477.361
120.970    593.000    581.759     11.241    477.876    574.202    477.876    485.440    477.876
121.070    568.000    581.529    -13.529    478.401    574.061    478.401    485.877    478.401
121.170    583.000    582.076      0.924    478.934    574.684    478.934    486.335    478.934
121.270    608.000    583.339     24.661    479.476    576.012    479.476    486.815    479.476
121.370    614.000    585.260     28.740    480.028    577.986    480.028    487.314    480.028
121.470    578.000    587.781     -9.781    480.589    580.551    480.589    487.834    480.589
121.570    609.000    590.843     18.157    481.159    583.645    481.159    488.374    481.159
121.670    619.000    594.379     24.621    481.739    587.205    481.739    488.932    481.739
121.770    565.000    598.318    -33.318    482.328    591.160    482.328    489.508    482.328
121.870    583.272    602.583    -19.311    482.927    595.433    482.927    490.101    482.927
121.970    622.235    607.089     15.146    483.535    599.941    483.535    490.711    483.535
122.070    660.254    611.744     48.510    484.154    604.591    484.154    491.336    484.154
122.170    664.000    616.448     47.552    484.781    609.287    484.781    491.974    484.781
122.270    660.737    621.098     39.639    485.419    613.926    485.419    492.626    485.419
122.370    617.000    625.584     -8.584    486.067    618.401    486.067    493.288    486.067
122.470    677.000    629.799     47.201    486.724    622.604    486.724    493.960    486.724
122.570    667.000    633.635     33.365    487.392    626.430    487.392    494.640    487.392
122.670    630.339    636.992     -6.653    488.070    629.782    488.070    495.325    488.070
122.770    683.000    639.783     43.217    488.758    632.573    488.758    496.015    488.758
122.870    629.927    641.937    -12.010    489.456    634.736    489.456    496.706    489.456
122.970    606.000    643.406    -37.406    490.165    636.223    490.165    497.397    490.165
123.070    690.374    644.168     46.206    490.884    637.015    490.884    498.087    490.884
123.170    624.525    644.226    -19.701    491.613    637.116    491.613    498.774    491.613
123.270    638.000    643.606     -5.606    492.353    636.552    492.353    499.457    492.353
123.370    635.000    642.354     -7.354    493.104    635.372    493.104    500.135    493.104
123.470    699.000    640.534     58.466    493.866    633.638    493.866    500.809    493.866
123.570    653.795    638.217     15.578    494.638    631.421    494.638    501.478    494.638
123.670    632.000    635.481     -3.481    495.421    628.800    495.421    502.145    495.421
123.770    612.000    632.406    -20.406    496.215    625.853    496.215    502.809    496.215
123.870    650.469    629.071     21.398    497.021    622.657    497.021    503.472    497.021
123.970    672.850    625.550     47.300    497.837    619.285    497.837    504.136    497.837
124.070    596.000    621.911    -25.911    498.664    615.803    498.664    504.803    498.664
124.170    569.000    618.216    -49.216    499.503    612.272    499.503    505.475    499.503
124.270    605.437    614.516     -9.080    500.353    608.741    500.353    506.153    500.353
124.370    617.000    610.853      6.147    501.215    605.251    501.215    506.840    501.215
124.470    571.000    607.260    -36.260    502.088    601.831    502.088    507.536    502.088
124.570    623.000    603.758     19.242    502.973    598.504    502.973    508.244    502.973
124.670    602.764    600.362      2.402    503.869    595.281    503.869    508.964    503.869
124.770    628.000    597.079     30.921    504.777    592.170    504.777    509.698    504.777
124.870    570.769    593.909    -23.140    505.697    589.170    505.697    510.447    505.697
124.970    571.000    590.852    -19.852    506.629    586.278    506.629    511.211    506.629
