neutron_powder_diffraction_0006
R_wp: 3.581
Temperature (K): 441.391
Counts: 83325.00
Wavelength (Ã…): 2.52098
COMMENTS
Test file for demonstrating the .xyy file format in Reel1.0
END OF HEADER
   tth       Y_obs     Y_calc      Y_res    Background    Phase_1_Nuc    Phase_1_Mag    Phase_2_Nuc    Phase_2_Mag
  9.970    763.000    748.822     14.178    747.127    748.125    747.823    747.127    747.127
 10.070    774.000    747.742     26.258    745.960    747.038    746.663    745.960    745.960
 10.170    767.000    746.680     20.320    744.800    745.969    745.510    744.800    744.800
 10.270    788.260    745.638     42.622    743.646    744.919    744.364    743.646    743.646
 10.370    789.417    744.618     44.799    742.499    743.891    743.225    742.499    742.499
 10.470    762.000    743.624     18.376    741.358    742.889    742.092    741.358    741.358
 10.570    719.927    742.659    -22.733    740.224    741.917    740.966    740.224    740.224
 10.670    789.000    741.731     47.269    739.097    740.980    739.847    739.097    739.097
 10.770    748.224    740.844      7.380    737.976    740.085    738.734    737.976    737.976
 10.870    749.000    740.010      8.990    736.861    739.243    737.628    736.861    736.861
 10.970    765.000    739.241     25.759    735.754    738.465    736.528    735.754    735.754
 11.070    747.000    738.555      8.445    734.652    737.770    735.436    734.652    734.652
 11.170    715.314    737.977    -22.664    733.557    737.183    734.349    733.557    733.557
 11.270    743.000    737.544      5.456    732.469    736.741    733.270    732.469    732.469
 11.370    742.458    737.314      5.144    731.386    736.501    732.197    731.386    731.386
 11.470    725.635    737.394    -11.759    730.311    736.571    731.130    730.311    730.311
 11.570    726.000    738.008    -12.008    729.241    737.174    730.070    729.241    729.241
 11.670    719.048    739.664    -20.616    728.178    738.820    729.017    728.178    728.178
 11.770    783.000    743.428     39.572    727.122    742.571    727.970    727.122    727.122
 11.870    794.000    751.140     42.860    726.071    750.269    726.930    726.071    726.071
 11.970    777.316    765.129     12.186    725.027    764.239    725.896    725.027    725.027
 12.070    861.000    786.840     74.160    723.990    785.927    724.869    723.990    723.990
 12.170    770.052    814.209    -44.157    722.958    813.269    723.848    722.958    722.958
 12.270    906.000    838.136     67.864    721.933    837.172    722.834    721.933    721.933
 12.370    862.000    844.498     17.502    720.914    843.519    721.826    720.914    720.914
 12.470    802.000    827.478    -25.478    719.902    826.496    720.824    719.902    719.902
 12.570    837.541    798.297     39.244    718.895    797.320    719.829    718.895    718.895
 12.670    770.707    770.498      0.209    717.895    769.524    718.840    717.895    717.895
 12.770    741.000    749.954     -8.954    716.901    748.980    717.858    716.901    716.901
 12.870    768.329    736.858     31.470    715.913    735.879    716.882    715.913    715.913
 12.970    670.000    729.101    -59.101    714.931    728.112    715.912    714.931    714.931
 13.070    687.000    724.425    -37.425    713.956    723.427    714.949    713.956    713.956
 13.170    701.000    721.309    -20.309    712.986    720.299    713.992    712.986    712.986
 13.270    694.000    718.960    -24.960    712.023    717.939    713.041    712.023    712.023
 13.370    717.000    717.023     -0.023    711.065    715.989    712.097    711.065    711.065
 13.470    686.769    715.341    -28.572    710.114    714.294    711.159    710.114    710.114
 13.570    746.224    713.835     32.389    709.168    712.774    710.227    709.168    709.168
 13.670    742.000    712.452     29.548    708.229    711.378    709.302    708.229    708.229
 13.770    722.000    711.164     10.836    707.296    710.076    708.383    707.296    707.296
 13.870    714.000    709.951      4.049    706.368    708.848    707.470    706.368    706.368
 13.970    666.103    708.796    -42.693    705.447    707.679    706.563    705.447    705.447
 14.070    667.276    707.689    -40.413    704.531    706.557    705.662    704.531    704.531
 14.170    663.165    706.620    -43.456    703.622    705.473    704.768    703.622    703.622
 14.270    724.000    705.584     18.416    702.718    704.422    703.880    702.718    702.718
 14.370    749.075    704.576     44.499    701.821    703.398    702.998    701.821    701.821
 14.470    699.000    703.594     -4.594    700.929    702.399    702.123    700.929    700.929
 14.570    752.715    702.637     50.079    700.043    701.425    701.254    700.043    700.043
 14.670    671.828    701.714    -29.886    699.162    700.485    700.391    699.162    699.162
 14.770    647.000    700.787    -53.787    698.288    699.541    699.534    698.288    698.288
 14.870    674.000    699.873    -25.873    697.419    698.609    698.683    697.419    697.419
 14.970    665.000    698.972    -33.972    696.557    697.690    697.838    696.557    696.557
 15.070    693.000    698.084     -5.084    695.700    696.783    697.000    695.700    695.700
 15.170    680.000    697.207    -17.207    694.848    695.888    696.167    694.848    694.848
 15.270    691.000    696.345     -5.345    694.003    695.006    695.341    694.003    694.003
 15.370    731.491    695.492     36.000    693.163    694.133    694.521    693.163    693.163
 15.470    660.000    694.646    -34.646    692.329    693.268    693.707    692.329    692.329
 15.570    638.000    693.810    -55.810    691.500    692.411    692.899    691.500    691.500
 15.670    745.000    692.983     52.017    690.677    691.562    692.097    690.677    690.677
 15.770    689.946    692.164     -2.218    689.860    690.722    691.302    689.860    689.860
 15.870    671.000    691.354    -20.354    689.048    689.890    690.512    689.048    689.048
 15.970    733.000    690.552     42.448    688.242    689.065    689.729    688.242    688.242
 16.070    720.435    689.758     30.677    687.442    688.248    688.952    687.442    687.442
 16.170    681.545    688.971     -7.426    686.647    687.438    688.180    686.647    686.647
 16.270    658.611    688.192    -29.581    685.858    686.635    687.415    685.858    685.858
 16.370    689.399    687.421      1.978    685.074    685.839    686.656    685.074    685.074
 16.470    687.000    686.657      0.343    684.296    685.049    685.903    684.296    684.296
 16.570    694.000    685.900      8.100    683.523    684.266    685.157    683.523    683.523
 16.670    672.000    685.151    -13.151    682.756    683.490    684.416    682.756    682.756
 16.770    693.000    684.408      8.592    681.994    682.720    683.682    681.994    681.994
 16.870    654.000    683.673    -29.673    681.237    681.957    682.953    681.237    681.237
 16.970    661.000    682.945    -21.945    680.486    681.200    682.231    680.486    680.486
 17.070    641.000    682.224    -41.224    679.741    680.450    681.515    679.741    679.741
 17.170    696.000    681.516     14.484    679.000    679.711    680.805    679.000    679.000
 17.270    713.871    680.809     33.062    678.265    678.973    680.101    678.265    678.265
 17.370    686.000    680.108      5.892    677.536    678.240    679.404    677.536    677.536
 17.470    671.000    679.420     -8.420    676.812    677.519    678.712    676.812    676.812
 17.570    681.000    678.748      2.252    676.093    676.812    678.029    676.093    676.093
 17.670    722.000    678.124     43.876    675.379    676.151    677.352    675.379    675.379
 17.770    654.000    677.472    -23.472    674.671    675.463    676.680    674.671    674.671
 17.870    673.000    676.807     -3.807    673.968    674.762    676.013    673.968    673.968
 17.970    633.000    676.147    -43.147    673.270    674.064    675.353    673.270    673.270
 18.070    654.000    675.494    -21.494    672.577    673.372    674.699    672.577    672.577
 18.170    644.000    674.849    -30.849    671.890    672.688    674.051    671.890    671.890
 18.270    657.000    674.227    -17.227    671.208    672.025    673.409    671.208    671.208
 18.370    686.000    673.608     12.392    670.531    671.364    672.774    670.531    670.531
 18.470    720.000    672.983     47.017    669.859    670.696    672.146    669.859    669.859
 18.570    712.000    672.364     39.636    669.192    670.032    671.523    669.192    669.192
 18.670    665.000    671.751     -6.751    668.530    669.374    670.907    668.530    668.530
 18.770    685.000    671.145     13.855    667.874    668.721    670.298    667.874    667.874
 18.870    665.000    670.547     -5.547    667.222    668.074    669.695    667.222    667.222
 18.970    647.000    669.955    -22.955    666.576    667.432    669.098    666.576    666.576
 19.070    710.810    669.370     41.440    665.934    666.796    668.508    665.934    665.934
 19.170    622.000    668.793    -46.793    665.298    666.166    667.925    665.298    665.298
 19.270    639.745    668.232    -28.486    664.666    665.549    667.349    664.666    664.666
 19.370    689.492    667.673     21.820    664.040    664.934    666.779    664.040    664.040
 19.470    631.000    667.117    -36.117    663.419    664.320    666.216    663.419    663.419
 19.570    708.000    666.571     41.429    662.802    663.712    665.661    662.802    662.802
 19.670    659.000    666.061     -7.061    662.191    663.130    665.122    662.191    662.191
 19.770    623.000    665.573    -42.573    661.584    662.562    664.595    661.584    661.584
 19.870    640.047    665.054    -25.007    660.982    661.975    664.061    660.982    660.982
 19.970    623.845    664.556    -40.711    660.385    661.407    663.534    660.385    660.385
 20.070    704.916    664.053     40.863    659.793    660.833    663.013    659.793    659.793
 20.170    692.000    663.553     28.447    659.206    660.259    662.500    659.206    659.206
 20.270    660.000    663.059     -3.059    658.624    659.689    661.994    658.624    658.624
 20.370    693.000    662.577     30.423    658.046    659.126    661.497    658.046    658.046
 20.470    648.000    662.142    -14.142    657.474    658.592    661.023    657.474    657.474
 20.570    690.550    661.716     28.835    656.906    658.066    660.556    656.906    656.906
 20.670    631.000    661.263    -30.263    656.342    657.524    660.082    656.342    656.342
 20.770    645.000    660.836    -15.836    655.784    657.004    659.616    655.784    655.784
 20.870    643.127    660.462    -17.335    655.230    656.533    659.159    655.230    655.230
 20.970    637.000    660.043    -23.043    654.681    656.016    658.708    654.681    654.681
 21.070    684.357    659.623     24.734    654.137    655.493    658.267    654.137    654.137
 21.170    651.000    659.230     -8.230    653.597    654.992    657.835    653.597    653.597
 21.270    618.000    658.859    -40.859    653.062    654.508    657.412    653.062    653.062
 21.370    623.000    658.470    -35.470    652.531    654.004    656.997    652.531    652.531
 21.470    694.000    658.089     35.911    652.006    653.503    656.592    652.006    652.006
 21.570    659.000    657.728      1.272    651.484    653.014    656.199    651.484    651.484
 21.670    673.755    657.392     16.364    650.968    652.540    655.819    650.968    650.968
 21.770    645.000    657.056    -12.056    650.455    652.067    655.444    650.455    650.455
 21.870    651.000    656.727     -5.727    649.948    651.596    655.079    649.948    649.948
 21.970    697.326    656.408     40.918    649.445    651.129    654.724    649.445    649.445
 22.070    660.000    656.103      3.897    648.946    650.668    654.381    648.946    648.946
 22.170    655.000    655.814     -0.814    648.452    650.217    654.049    648.452    648.452
 22.270    664.000    655.539      8.461    647.962    649.773    653.729    647.962    647.962
 22.370    651.000    655.280     -4.280    647.477    649.336    653.421    647.477    647.477
 22.470    622.000    655.038    -33.038    646.997    648.908    653.127    646.997    646.997
 22.570    656.728    654.816      1.912    646.520    648.490    652.846    646.520    646.520
 22.670    640.000    654.614    -14.614    646.048    648.084    652.579    646.048    646.048
 22.770    633.139    654.434    -21.295    645.581    647.689    652.326    645.581    645.581
 22.870    643.000    654.277    -11.277    645.117    647.306    652.089    645.117    645.117
 22.970    655.891    654.149      1.742    644.659    646.939    651.869    644.659    644.659
 23.070    671.240    654.050     17.190    644.204    646.588    651.666    644.204    644.204
 23.170    616.931    653.978    -37.047    643.754    646.252    651.480    643.754    643.754
 23.270    618.434    653.942    -35.508    643.308    645.938    651.313    643.308    643.308
 23.370    624.701    653.946    -29.245    642.866    645.648    651.166    642.866    642.866
 23.470    694.000    653.997     40.003    642.429    645.387    651.040    642.429    642.429
 23.570    646.000    654.103     -8.103    641.996    645.163    650.936    641.996    641.996
 23.670    628.000    654.273    -26.273    641.567    644.984    650.857    641.567    641.567
 23.770    622.000    654.521    -32.521    641.142    644.861    650.803    641.142    641.142
 23.870    615.179    654.865    -39.686    640.721    644.812    650.776    640.721    640.721
 23.970    629.000    655.332    -26.332    640.305    644.861    650.777    640.305    640.305
 24.070    650.335    655.962     -5.627    639.892    645.046    650.810    639.892    639.892
 24.170    622.000    656.828    -34.828    639.484    645.438    650.877    639.484    639.484
 24.270    650.413    658.078     -7.665    639.080    646.181    650.980    639.080    639.080
 24.370    695.411    660.042     35.369    638.680    647.605    651.123    638.680    638.680
 24.470    671.000    663.408      7.592    638.284    650.391    651.309    638.284    638.284
 24.570    638.000    669.362    -31.362    637.892    655.725    651.540    637.892    637.892
 24.670    657.000    679.432    -22.432    637.505    665.132    651.823    637.505    637.505
 24.770    666.000    694.660    -28.660    637.121    679.650    652.161    637.121    637.121
 24.870    712.000    713.985     -1.985    636.741    698.210    652.559    636.741    636.741
 24.970    727.000    732.132     -5.132    636.365    715.528    653.025    636.365    636.365
 25.070    694.912    739.613    -44.702    635.993    722.102    653.566    635.993    635.993
 25.170    725.000    731.142     -6.142    635.625    712.634    654.188    635.625    635.625
 25.270    785.000    713.392     71.608    635.262    693.791    654.902    635.262    635.262
 25.370    706.000    695.740     10.260    634.901    674.950    655.719    634.901    634.901
 25.470    710.000    682.714     27.286    634.545    660.625    656.650    634.545    634.545
 25.570    658.000    674.881    -16.881    634.193    651.374    657.711    634.193    634.193
 25.670    640.815    671.034    -30.219    633.845    645.967    658.918    633.845    633.845
 25.770    692.000    669.672     22.328    633.500    642.885    660.292    633.500    633.500
 25.870    696.000    669.714     26.286    633.159    641.021    661.855    633.159    633.159
 25.970    675.000    670.578      4.422    632.822    639.766    663.637    632.822    632.822
 26.070    678.601    672.016      6.586    632.489    638.836    665.671    632.489    632.489
 26.170    717.998    673.944     44.054    632.160    638.107    667.997    632.160    632.160
 26.270    680.000    676.356      3.644    631.834    637.524    670.667    631.834    631.834
 26.370    641.000    679.289    -38.289    631.512    637.056    673.746    631.512    631.512
 26.470    695.261    682.777     12.483    631.194    636.672    677.299    631.194    631.194
 26.570    710.000    686.912     23.088    630.880    636.368    681.423    630.880    630.880
 26.670    731.433    691.809     39.625    630.569    636.138    686.238    630.569    630.569
 26.770    696.000    697.618     -1.618    630.262    635.981    691.898    630.262    630.262
 26.870    745.937    704.540     41.397    629.959    635.900    698.597    629.959    629.959
 26.970    716.719    712.839      3.879    629.659    635.901    706.594    629.659    629.659
 27.070    711.000    722.874    -11.874    629.363    635.997    716.236    629.363    629.363
 27.170    708.074    735.131    -27.057    629.070    636.207    727.989    629.070    629.070
 27.270    709.000    750.287    -41.287    628.781    636.557    742.506    628.781    628.781
 27.370    813.762    769.308     44.454    628.496    637.087    760.710    628.496    628.496
 27.470    774.000    793.615    -19.615    628.214    637.856    783.962    628.214    628.214
 27.570    852.000    825.482     26.518    627.935    638.961    814.444    627.935    627.935
 27.670    910.772    869.415     41.357    627.660    640.589    856.469    627.660    627.660
 27.770    903.000    937.694    -34.694    627.389    643.251    921.806    627.389    627.389
 27.870   1120.000   1069.132     50.868    627.121    648.558   1047.646    627.121    627.121
 27.970   1399.411   1372.242     27.169    626.857    661.006   1337.982    626.857    626.857
 28.070   2147.905   2073.132     74.772    626.596    689.962   2009.515    626.596    626.596
 28.170   3230.000   3464.643   -234.643    626.338    747.557   3342.920    626.338    626.338
 28.270   5350.000   5629.305   -279.305    626.084    837.237   5417.340    626.084    626.084
 28.370   7958.000   8028.224    -70.224    625.833    936.771   7716.305    625.833    625.833
 28.470   9356.000   9415.161    -59.161    625.586    994.759   9045.217    625.586    625.586
 28.570   8972.000   8830.876    141.124    625.342    971.930   8484.053    625.342    625.342
 28.670   7004.715   6885.923    118.792    625.101    894.485   6616.724    625.101    625.101
 28.770   5042.000   4975.744     66.256    624.864    821.780   4779.120    624.864    624.864
 28.870   3989.341   4015.706    -26.366    624.630    793.384   3847.166    624.630    624.630
 28.970   4018.000   4112.439    -94.439    624.399    813.747   3923.221    624.399    624.399
 29.070   4841.000   4777.390     63.610    624.171    858.757   4542.962    624.171    624.171
 29.170   5249.000   5233.724     15.276    623.947    887.807   4970.179    623.947    623.947
 29.270   4960.000   4909.241     50.759    623.726    870.261   4663.202    623.726    623.726
 29.370   3954.426   3932.751     21.675    623.508    814.517   3742.280    623.508    623.508
 29.470   2721.000   2818.343    -97.343    623.293    750.576   2691.496    623.293    623.293
 29.570   1824.000   1935.578   -111.578    623.082    699.890   1859.057    623.082    623.082
 29.670   1390.000   1380.826      9.174    622.874    668.075   1335.787    622.874    622.874
 29.770   1116.000   1084.074     31.926    622.669    651.121   1055.706    622.669    622.669
 29.870    986.245    937.043     49.202    622.466    642.798    916.755    622.466    622.466
 29.970    828.939    861.091    -32.152    622.268    638.584    844.801    622.268    622.268
 30.070    893.000    816.002     76.998    622.072    636.176    801.914    622.072    622.072
 30.170    785.538    785.234      0.305    621.879    634.642    772.483    621.879    621.879
 30.270    782.000    762.527     19.473    621.689    633.654    750.572    621.689    621.689
 30.370    783.000    745.330     37.670    621.503    633.132    733.707    621.503    621.503
 30.470    745.823    732.559     13.264    621.319    633.169    720.712    621.319    621.319
 30.570    715.053    724.151     -9.099    621.139    634.118    711.172    621.139    621.139
 30.670    761.021    721.188     39.833    620.961    636.744    705.399    620.961    620.961
 30.770    713.000    725.857    -12.857    620.786    642.258    704.372    620.786    620.786
 30.870    753.234    740.480     12.753    620.615    651.878    709.191    620.615    620.615
 30.970    791.896    765.118     26.778    620.446    665.739    719.783    620.446    620.446
 31.070    747.730    794.235    -46.505    620.280    681.345    733.112    620.280    620.280
 31.170    806.000    814.788     -8.788    620.117    692.693    742.147    620.117    620.117
 31.270    799.000    812.526    -13.526    619.958    693.200    739.223    619.958    619.958
 31.370    775.782    786.221    -10.439    619.800    682.331    723.644    619.800    619.800
 31.470    745.000    749.231     -4.231    619.646    666.332    702.514    619.646    619.646
 31.570    734.000    715.204     18.796    619.495    651.577    683.103    619.495    619.495
 31.670    729.000    690.257     38.743    619.346    640.936    668.658    619.346    619.346
 31.770    725.000    674.482     50.518    619.200    634.467    659.210    619.200    619.200
 31.870    672.527    665.291      7.236    619.057    630.983    653.363    619.057    619.057
 31.970    736.000    659.927     76.073    618.917    629.212    649.629    618.917    618.917
 32.070    691.353    656.534     34.819    618.780    628.305    647.008    618.780    618.780
 32.170    702.000    654.159     47.841    618.645    627.826    644.977    618.645    618.645
 32.270    686.000    652.386     33.614    618.513    627.592    643.307    618.513    618.513
 32.370    667.000    651.046     15.954    618.384    627.533    641.896    618.384    618.384
 32.470    674.239    650.065     24.174    618.257    627.624    640.698    618.257    618.257
 32.570    686.000    649.411     36.589    618.133    627.859    639.685    618.133    618.133
 32.670    698.000    649.075     48.925    618.012    628.244    638.843    618.012    618.012
 32.770    612.923    649.067    -36.145    617.894    628.795    638.166    617.894    617.894
 32.870    668.510    649.417     19.094    617.778    629.540    637.654    617.778    617.778
 32.970    658.028    650.173      7.855    617.664    630.518    637.319    617.664    617.664
 33.070    697.000    651.414     45.586    617.553    631.787    637.180    617.553    617.553
 33.170    707.000    653.258     53.742    617.445    633.434    637.269    617.445    617.445
 33.270    672.000    655.891     16.109    617.340    635.587    637.643    617.340    617.340
 33.370    647.454    659.636    -12.182    617.236    638.471    638.401    617.236    617.236
 33.470    716.000    665.155     50.845    617.136    642.539    639.751    617.136    617.136
 33.570    707.000    673.949     33.051    617.038    648.818    642.168    617.038    617.038
 33.670    703.061    689.354     13.706    616.942    659.584    646.710    616.942    616.942
 33.770    686.025    717.890    -31.865    616.849    679.285    655.450    616.849    616.849
 33.870    780.000    769.814     10.186    616.758    714.916    671.647    616.758    616.758
 33.970    870.516    856.630     13.886    616.670    774.325    698.961    616.670    616.670
 34.070    997.064    983.815     13.248    616.584    861.249    739.130    616.584    616.584
 34.170   1131.000   1139.563     -8.563    616.501    967.639    788.401    616.501    616.501
 34.270   1247.000   1282.677    -35.677    616.420   1065.405    833.672    616.420    616.420
 34.370   1355.000   1344.760     10.240    616.341   1107.910    853.189    616.341    616.341
 34.470   1332.000   1284.720     47.280    616.265   1067.126    833.879    616.265    616.265
 34.570   1150.000   1142.174      7.826    616.191    970.061    788.339    616.191    616.191
 34.670    983.266    985.505     -2.238    616.120    863.345    738.315    616.120    616.120
 34.770    878.000    856.669     21.331    616.050    775.596    697.152    616.050    616.050
 34.870    791.000    768.103     22.897    615.983    715.297    668.809    615.983    615.983
 34.970    760.000    714.643     45.357    615.919    678.931    651.642    615.919    615.919
 35.070    731.183    684.847     46.336    615.856    658.696    642.014    615.856    615.856
 35.170    729.000    668.387     60.613    615.796    647.549    636.639    615.796    615.796
 35.270    681.000    658.647     22.353    615.738    640.976    633.412    615.738    615.738
 35.370    646.000    652.219     -6.219    615.682    636.654    631.250    615.682    615.682
 35.470    636.000    647.561    -11.561    615.629    633.530    629.661    615.629    615.629
 35.570    684.000    643.988     40.012    615.578    631.138    628.429    615.578    615.578
 35.670    640.184    641.165     -0.981    615.528    629.248    627.447    615.528    615.528
 35.770    686.355    638.895     47.459    615.481    627.725    626.652    615.481    615.481
 35.870    693.000    637.050     55.950    615.436    626.481    626.006    615.436    615.436
 35.970    633.000    635.539     -2.539    615.394    625.454    625.479    615.394    615.394
 36.070    653.000    634.296     18.704    615.353    624.597    625.053    615.353    615.353
 36.170    628.623    633.276     -4.653    615.314    623.878    624.713    615.314    615.314
 36.270    629.000    632.443     -3.443    615.278    623.270    624.451    615.278    615.278
 36.370    627.048    631.773     -4.725    615.243    622.755    624.261    615.243    615.243
 36.470    661.466    631.249     30.217    615.211    622.319    624.142    615.211    615.211
 36.570    605.000    630.861    -25.861    615.180    621.950    624.093    615.180    615.180
 36.670    580.000    630.606    -50.606    615.152    621.640    624.118    615.152    615.152
 36.770    627.000    630.484     -3.484    615.125    621.384    624.226    615.125    615.125
 36.870    623.000    630.503     -7.503    615.101    621.179    624.426    615.101    615.101
 36.970    598.000    630.681    -32.681    615.078    621.026    624.735    615.078    615.078
 37.070    622.797    631.047     -8.250    615.058    620.928    625.178    615.058    615.058
 37.170    623.667    631.650     -7.982    615.039    620.899    625.791    615.039    615.039
 37.270    654.694    632.582     22.112    615.022    620.974    626.631    615.022    615.022
 37.370    653.000    634.021     18.979    615.008    621.224    627.806    615.008    615.008
 37.470    590.096    636.317    -46.221    614.995    621.778    629.536    614.995    614.995
 37.570    646.056    640.128      5.928    614.983    622.822    632.291    614.983    614.983
 37.670    632.000    646.602    -14.602    614.974    624.560    637.018    614.974    614.974
 37.770    609.966    657.488    -47.521    614.967    627.098    645.360    614.967    614.967
 37.870    662.000    674.939    -12.939    614.961    630.270    659.634    614.961    614.961
 37.970    709.000    700.651      8.349    614.957    633.436    682.177    614.957    614.957
 38.070    685.145    734.364    -49.219    614.955    635.449    713.878    614.955    614.955
 38.170    747.236    772.446    -25.210    614.955    635.369    752.045    614.955    614.955
 38.270    738.000    806.533    -68.533    614.957    633.387    788.120    614.957    614.957
 38.370    820.136    823.447     -3.311    614.960    630.467    807.963    614.960    614.960
 38.470    801.000    813.497    -12.497    614.965    627.459    801.031    614.965    614.965
 38.570    789.000    781.316      7.684    614.971    624.865    771.450    614.971    614.971
 38.670    717.000    740.860    -23.860    614.980    622.902    732.961    614.980    614.980
 38.770    742.730    703.774     38.956    614.990    621.559    697.222    614.990    614.990
 38.870    658.487    675.426    -16.939    615.001    620.704    669.735    615.001    615.001
 38.970    661.356    656.380      4.976    615.015    620.181    651.221    615.015    615.015
 39.070    583.000    644.728    -61.728    615.030    619.866    639.896    615.030    615.030
 39.170    614.000    637.952    -23.952    615.046    619.675    633.327    615.046    615.046
 39.270    656.000    633.987     22.013    615.065    619.557    629.497    615.065    615.065
 39.370    604.000    631.517    -27.517    615.084    619.483    627.120    615.084    615.084
 39.470    635.851    629.835      6.016    615.106    619.440    625.503    615.106    615.106
 39.570    584.000    628.599    -44.599    615.128    619.418    624.311    615.128    615.128
 39.670    620.000    627.644     -7.644    615.153    619.411    623.388    615.153    615.153
 39.770    599.000    626.893    -27.893    615.179    619.423    622.650    615.179    615.179
 39.870    643.000    626.293     16.707    615.206    619.449    622.051    615.206    615.206
 39.970    647.000    625.809     21.191    615.235    619.488    621.558    615.235    615.235
 40.070    649.000    625.420     23.580    615.266    619.538    621.149    615.266    615.266
 40.170    652.000    625.108     26.892    615.298    619.599    620.807    615.298    615.298
 40.270    599.000    624.859    -25.859    615.331    619.672    620.519    615.331    615.331
 40.370    581.000    624.665    -43.665    615.366    619.756    620.276    615.366    615.366
 40.470    656.000    624.518     31.482    615.402    619.852    620.069    615.402    615.402
 40.570    619.000    624.413     -5.413    615.439    619.960    619.894    615.439    615.439
 40.670    634.000    624.347      9.653    615.478    620.081    619.745    615.478    615.478
 40.770    655.228    624.316     30.911    615.519    620.217    619.619    615.519    615.519
 40.870    598.000    624.320    -26.320    615.560    620.369    619.513    615.560    615.560
 40.970    603.000    624.358    -21.358    615.603    620.539    619.424    615.603    615.603
 41.070    624.884    624.431      0.453    615.648    620.730    619.350    615.648    615.648
 41.170    582.015    624.540    -42.525    615.693    620.946    619.289    615.693    615.693
 41.270    668.637    624.690     43.948    615.740    621.190    619.242    615.740    615.740
 41.370    639.000    624.883     14.117    615.789    621.468    619.205    615.789    615.789
 41.470    610.182    625.127    -14.946    615.838    621.787    619.180    615.838    615.838
 41.570    613.000    625.432    -12.432    615.889    622.158    619.165    615.889    615.889
 41.670    610.608    625.808    -15.201    615.941    622.592    619.159    615.941    615.941
 41.770    631.000    626.276      4.724    615.994    623.108    619.164    615.994    615.994
 41.870    601.000    626.862    -25.862    616.049    623.733    619.179    616.049    616.049
 41.970    615.948    627.615    -11.667    616.104    624.515    619.207    616.104    616.104
 42.070    619.000    628.629     -9.629    616.161    625.544    619.250    616.161    616.161
 42.170    594.000    630.096    -36.096    616.219    627.004    619.314    616.219    616.219
 42.270    651.987    632.392     19.595    616.278    629.259    619.415    616.278    616.278
 42.370    643.357    636.189      7.168    616.339    632.956    619.578    616.339    616.339
 42.470    636.000    642.514     -6.514    616.400    639.081    619.842    616.400    616.400
 42.570    624.929    652.620    -27.691    616.463    648.842    620.254    616.463    616.463
 42.670    675.000    667.550      7.450    616.526    663.243    620.855    616.526    616.526
 42.770    684.000    687.375     -3.375    616.591    682.351    621.646    616.591    616.591
 42.870    707.000    710.212     -3.212    616.657    704.354    622.556    616.657    616.657
 42.970    732.078    731.269      0.809    616.724    724.646    623.401    616.724    616.724
 43.070    729.000    743.242    -14.242    616.791    736.194    623.901    616.791    616.791
 43.170    715.000    740.617    -25.617    616.860    733.695    623.846    616.860    616.860
 43.270    682.000    724.851    -42.851    616.930    718.547    623.291    616.930    616.930
 43.370    643.000    702.730    -59.730    617.001    697.282    622.496    617.001    617.001
 43.470    666.000    680.822    -14.822    617.073    676.218    621.711    617.073    617.073
 43.570    633.000    662.824    -29.824    617.146    658.915    621.079    617.146    617.146
 43.670    632.526    649.838    -17.312    617.220    646.432    620.641    617.220    617.220
 43.770    648.389    641.365      7.024    617.294    638.291    620.378    617.294    617.294
 43.870    631.000    636.228     -5.228    617.370    633.359    620.246    617.370    617.370
 43.970    664.000    633.229     30.771    617.446    630.482    620.198    617.446    617.446
 44.070    587.412    631.464    -44.052    617.524    628.792    620.200    617.524    617.524
 44.170    663.000    630.375     32.625    617.602    627.750    620.230    617.602    617.602
 44.270    659.000    629.660     29.340    617.681    627.066    620.278    617.681    617.681
 44.370    647.000    629.167     17.833    617.761    626.594    620.336    617.761    617.761
 44.470    587.000    628.821    -41.821    617.842    626.262    620.402    617.842    617.842
 44.570    630.000    628.581      1.419    617.924    626.031    620.476    617.924    617.924
 44.670    640.000    628.425     11.575    618.007    625.878    620.554    618.007    618.007
 44.770    650.000    628.334     21.666    618.090    625.786    620.639    618.090    618.090
 44.870    583.966    628.298    -44.332    618.174    625.745    620.728    618.174    618.174
 44.970    635.677    628.308      7.369    618.259    625.747    620.821    618.259    618.259
 45.070    626.000    628.357     -2.357    618.345    625.784    620.919    618.345    618.345
 45.170    581.115    628.442    -47.327    618.431    625.852    621.021    618.431    618.431
 45.270    620.000    628.557     -8.557    618.518    625.948    621.128    618.518    618.518
 45.370    636.000    628.702      7.298    618.606    626.070    621.239    618.606    618.606
 45.470    587.008    628.873    -41.865    618.694    626.214    621.354    618.694    618.694
 45.570    616.785    629.070    -12.286    618.784    626.381    621.473    618.784    618.784
 45.670    649.000    629.293     19.707    618.873    626.569    621.598    618.873    618.873
 45.770    620.000    629.541     -9.541    618.964    626.778    621.727    618.964    618.964
 45.870    616.630    629.814    -13.184    619.055    627.009    621.861    619.055    619.055
 45.970    667.219    630.114     37.104    619.147    627.261    622.001    619.147    619.147
 46.070    639.555    630.442      9.113    619.240    627.535    622.146    619.240    619.240
 46.170    596.000    630.800    -34.800    619.333    627.834    622.298    619.333    619.333
 46.270    626.394    631.190     -4.796    619.426    628.160    622.457    619.426    619.426
 46.370    651.000    631.616     19.384    619.521    628.513    622.623    619.521    619.521
 46.470    594.000    632.081    -38.081    619.615    628.899    622.797    619.615    619.615
 46.570    612.000    632.592    -20.592    619.711    629.322    622.980    619.711    619.711
 46.670    638.000    633.153      4.847    619.807    629.786    623.174    619.807    619.807
 46.770    627.000    633.775     -6.775    619.903    630.298    623.379    619.903    619.903
 46.870    665.000    634.468     30.532    620.000    630.870    623.598    620.000    620.000
 46.970    648.000    635.248     12.752    620.098    631.512    623.832    620.098    620.098
 47.070    714.000    636.138     77.862    620.196    632.247    624.085    620.196    620.196
 47.170    646.131    637.180      8.951    620.294    633.109    624.363    620.294    620.294
 47.270    631.657    638.448     -6.791    620.393    634.164    624.675    620.393    620.393
 47.370    625.455    640.087    -14.632    620.492    635.538    625.038    620.492    620.492
 47.470    641.000    642.357     -1.357    620.592    637.460    625.485    620.592    620.592
 47.570    678.183    645.688     32.495    620.692    640.309    626.065    620.692    620.692
 47.670    650.511    650.699     -0.189    620.793    644.630    626.853    620.793    620.793
 47.770    663.000    658.117      4.883    620.894    651.062    627.936    620.894    620.894
 47.870    625.000    668.552    -43.552    620.995    660.142    629.385    620.995    620.995
 47.970    669.000    682.122    -13.122    621.097    671.974    631.218    621.097    621.097
 48.070    678.000    697.999    -19.999    621.199    685.821    633.339    621.199    621.199
 48.170    686.000    713.941    -27.941    621.302    699.705    635.492    621.302    621.302
 48.270    750.000    726.185     23.815    621.405    710.297    637.242    621.405    621.405
 48.370    777.204    730.685     46.518    621.508    714.021    638.121    621.508    621.508
 48.470    730.000    726.066      3.934    621.611    709.656    637.975    621.611    621.611
 48.570    702.126    715.039    -12.913    621.715    699.589    637.127    621.715    621.715
 48.670    693.000    701.970     -8.970    621.819    687.665    636.095    621.819    621.819
 48.770    660.000    690.211    -30.211    621.924    676.833    635.281    621.924    621.924
 48.870    710.729    681.511     29.218    622.028    668.621    634.903    622.028    622.028
 48.970    665.000    676.380    -11.380    622.133    663.463    635.039    622.133    622.133
 49.070    660.000    674.582    -14.582    622.238    661.126    635.687    622.238    622.238
 49.170    688.000    675.583     12.417    622.343    661.105    636.816    622.343    622.343
 49.270    673.627    678.912     -5.284    622.449    662.933    638.422    622.449    622.449
 49.370    680.000    684.414     -4.414    622.555    666.390    640.574    622.555    622.555
 49.470    695.000    692.540      2.460    622.661    671.696    643.499    622.661    622.661
 49.570    663.000    704.883    -41.883    622.767    679.878    647.765    622.767    622.767
 49.670    707.000    725.289    -18.289    622.873    693.572    654.579    622.873    622.873
 49.770    744.847    762.666    -17.819    622.979    718.474    667.150    622.979    622.979
 49.870    816.000    832.793    -16.793    623.086    765.108    690.732    623.086    623.086
 49.970    964.852    960.242      4.610    623.193    849.829    733.536    623.193    623.193
 50.070   1231.041   1175.261     55.780    623.299    992.732    805.716    623.299    623.299
 50.170   1461.000   1502.593    -41.593    623.406   1210.259    915.581    623.406    623.406
 50.270   1806.000   1942.752   -136.752    623.513   1502.762   1063.306    623.513    623.513
 50.370   2455.000   2452.294      2.706    623.620   1841.403   1234.311    623.620    623.620
 50.470   2881.126   2934.018    -52.892    623.728   2161.632   1395.966    623.728    623.728
 50.570   3260.000   3252.060      7.940    623.835   2373.214   1502.646    623.835    623.835
 50.670   3218.000   3290.401    -72.401    623.942   2399.086   1515.361    623.942    623.942
 50.770   3122.454   3033.203     89.251    624.049   2228.740   1428.723    624.049    624.049
 50.870   2656.000   2579.263     76.737    624.157   1927.871   1275.802    624.157    624.157
 50.970   2088.627   2068.421     20.205    624.264   1589.503   1103.421    624.264    624.264
 51.070   1607.000   1610.655     -3.655    624.371   1286.854    948.365    624.371    624.371
 51.170   1256.000   1262.310     -6.310    624.478   1057.492    829.436    624.478    624.478
 51.270   1024.394   1031.710     -7.316    624.586    906.977    749.413    624.586    624.586
 51.370    906.000    897.415      8.585    624.693    820.898    701.274    624.693    624.693
 51.470    808.000    827.849    -19.849    624.800    777.807    674.890    624.800    624.800
 51.570    837.000    794.435     42.565    624.907    757.889    661.495    624.907    624.907
 51.670    778.000    776.895      1.105    625.014    746.633    655.313    625.014    625.014
 51.770    787.000    764.059     22.941    625.121    735.953    653.260    625.121    625.121
 51.870    780.000    752.330     27.670    625.228    723.648    653.934    625.228    625.228
 51.970    693.341    742.096    -48.755    625.335    710.795    656.652    625.335    625.335
 52.070    713.000    734.374    -21.374    625.442    699.050    660.774    625.442    625.442
 52.170    731.000    729.297      1.703    625.548    689.509    665.337    625.548    625.548
 52.270    780.000    725.874     54.126    625.655    682.584    668.941    625.655    625.655
 52.370    699.000    722.473    -23.473    625.761    678.179    670.049    625.761    625.761
 52.470    706.000    717.920    -11.920    625.867    675.927    667.854    625.867    625.867
 52.570    706.845    712.369     -5.524    625.973    675.420    662.918    625.973    625.973
 52.670    716.000    706.942      9.058    626.079    676.369    656.650    626.079    626.079
 52.770    709.338    702.935      6.403    626.184    678.714    650.406    626.184    626.184
 52.870    693.000    701.505     -8.505    626.289    682.721    645.074    626.289    626.289
 52.970    681.215    703.792    -22.578    626.395    689.136    641.052    626.395    626.395
 53.070    683.408    711.278    -27.870    626.499    699.428    638.351    626.499    626.499
 53.170    745.000    726.122     18.878    626.604    716.031    636.697    626.604    626.604
 53.270    762.000    751.841     10.159    626.708    742.512    636.038    626.708    626.708
 53.370    824.000    792.638     31.362    626.813    783.271    636.181    626.813    626.813
 53.470    810.599    852.674    -42.075    626.917    842.602    636.989    626.917    626.917
 53.570    896.000    934.375    -38.375    627.020    922.999    638.398    627.020    627.020
 53.670   1002.000   1036.091    -34.091    627.123   1022.908    640.313    627.123    627.123
 53.770   1153.000   1149.617      3.383    627.226   1134.326    642.531    627.226    627.226
 53.870   1276.000   1258.063     17.937    627.329   1240.735    644.682    627.329    627.329
 53.970   1387.084   1336.209     50.876    627.432   1317.448    646.230    627.432    627.432
 54.070   1395.407   1358.762     36.645    627.534   1339.705    646.641    627.534    627.534
 54.170   1291.033   1316.974    -25.941    627.635   1298.938    645.727    627.635    627.635
 54.270   1287.106   1226.440     60.666    627.737   1210.417    643.813    627.737    627.737
 54.370   1166.000   1114.384     51.616    627.838   1100.804    641.465    627.838    627.838
 54.470   1072.000   1003.945     68.055    627.938    992.756    639.166    627.938    627.938
 54.570    854.785    908.993    -54.208    628.039    899.857    637.203    628.039    628.039
 54.670    814.034    835.241    -21.207    628.138    827.704    635.697    628.138    628.138
 54.770    760.000    782.626    -22.626    628.238    776.235    634.644    628.238    628.238
 54.870    792.523    747.743     44.781    628.337    742.118    633.972    628.337    628.337
 54.970    729.000    725.994      3.006    628.436    720.852    633.586    628.436    628.436
 55.070    744.886    713.091     31.795    628.534    708.236    633.395    628.534    628.534
 55.170    678.000    705.769    -27.769    628.631    701.074    633.331    628.631    628.631
 55.270    668.000    701.883    -33.883    628.729    697.267    633.350    628.729    628.729
 55.370    732.463    700.188     32.275    628.826    695.592    633.426    628.826    628.826
 55.470    723.000    700.031     22.969    628.922    695.412    633.545    628.922    628.922
 55.570    700.000    701.116     -1.116    629.018    696.433    633.705    629.018    629.018
 55.670    679.461    703.347    -23.886    629.113    698.561    633.902    629.113    629.113
 55.770    703.000    706.760     -3.760    629.208    701.830    634.142    629.208    629.208
 55.870    732.627    711.521     21.107    629.302    706.395    634.431    629.302    629.302
 55.970    710.000    717.983     -7.983    629.396    712.599    634.784    629.396    629.396
 56.070    710.507    726.856    -16.349    629.490    721.122    635.227    629.490    629.490
 56.170    725.000    739.520    -14.520    629.582    733.293    635.812    629.582    629.582
 56.270    728.629    758.556    -29.927    629.675    751.598    636.635    629.675    629.675
 56.370    802.753    788.479     14.273    629.766    780.382    637.863    629.766    629.766
 56.470    779.000    836.481    -57.481    629.857    826.571    639.764    629.857    629.857
 56.570    852.000    912.747    -60.747    629.948    899.972    642.715    629.948    629.948
 56.670    935.000   1029.653    -94.653    630.038   1012.502    647.175    630.038    630.038
 56.770   1150.000   1199.182    -49.182    630.127   1175.704    653.587    630.127    630.127
 56.870   1378.000   1428.437    -50.437    630.216   1396.416    662.217    630.216    630.216
 56.970   1724.431   1713.938     10.493    630.304   1671.294    672.934    630.304    630.304
 57.070   1949.450   2036.037    -86.587    630.392   1981.420    685.015    630.392    630.392
 57.170   2402.000   2354.719     47.281    630.478   2288.262    696.980    630.478    630.478
 57.270   2747.000   2609.800    137.200    630.565   2533.865    706.601    630.565    630.565
 57.370   2818.241   2734.756     83.485    630.650   2654.160    711.419    630.650    630.650
 57.470   2735.945   2690.344     45.601    630.735   2611.335    709.984    630.735    630.735
 57.570   2558.000   2492.195     65.805    630.819   2420.418    702.876    630.819    630.819
 57.670   2170.589   2198.464    -27.875    630.903   2137.396    692.252    630.903    630.903
 57.770   1856.961   1874.698    -17.737    630.986   1825.391    680.547    630.986    630.986
 57.870   1556.000   1570.997    -14.997    631.068   1532.643    669.633    631.068    631.068
 57.970   1357.000   1316.614     40.386    631.149   1287.298    660.628    631.149    631.149
 58.070   1143.658   1122.533     21.125    631.230   1099.875    654.006    631.230    631.230
 58.170    956.000    986.680    -30.680    631.310    968.252    649.817    631.310    631.310
 58.270    978.000    899.921     78.079    631.390    883.412    647.948    631.390    631.390
 58.370    863.000    851.439     11.561    631.468    834.590    648.346    631.468    631.468
 58.470    813.000    832.332    -19.332    631.546    812.735    651.154    631.546    631.546
 58.570    832.000    837.041     -5.041    631.623    811.963    656.698    631.623    631.623
 58.670    820.000    862.968    -42.968    631.699    829.334    665.320    631.699    631.699
 58.770    905.832    908.987     -3.155    631.775    863.639    677.097    631.775    631.775
 58.870    977.481    973.557      3.924    631.850    913.832    691.541    631.850    631.850
 58.970   1009.000   1053.003    -44.003    631.924    977.524    707.364    631.924    631.924
 59.070   1154.887   1140.399     14.489    631.997   1049.910    722.447    631.997    631.997
 59.170   1236.000   1225.915     10.085    632.069   1123.755    734.200    632.069    632.069
 59.270   1200.000   1299.485    -99.485    632.141   1191.114    740.499    632.141    632.141
 59.370   1376.569   1354.010     22.560    632.212   1245.556    740.670    632.212    632.212
 59.470   1339.000   1385.496    -46.496    632.282   1282.318    735.483    632.282    632.282
 59.570   1392.000   1391.441      0.559    632.351   1297.535    726.298    632.351    632.351
 59.670   1363.000   1372.490     -9.490    632.419   1290.427    714.531    632.419    632.419
 59.770   1303.000   1336.097    -33.097    632.486   1266.948    701.682    632.486    632.486
 59.870   1321.950   1295.756     26.194    632.553   1239.114    689.224    632.553    632.553
 59.970   1296.000   1265.488     30.512    632.618   1219.862    678.244    632.618    632.618
 60.070   1262.000   1255.178      6.822    632.683   1218.586    669.236    632.683    632.683
 60.170   1233.000   1269.650    -36.650    632.747   1240.112    662.201    632.747    632.747
 60.270   1352.000   1310.323     41.677    632.810   1286.105    656.896    632.810    632.810
 60.370   1370.000   1375.807     -5.807    632.872   1355.469    653.031    632.872    632.872
 60.470   1596.000   1459.384    136.616    632.933   1441.762    650.336    632.933    632.933
 60.570   1579.000   1546.224     32.776    632.994   1530.405    648.565    632.994    632.994
 60.670   1669.000   1613.823     55.177    633.053   1599.116    647.505    633.053    633.053
 60.770   1701.551   1637.778     63.774    633.112   1623.658    646.994    633.112    633.112
 60.870   1660.000   1603.173     56.827    633.169   1589.228    646.918    633.169    633.169
 60.970   1564.000   1513.614     50.386    633.226   1499.489    647.203    633.226    633.226
 61.070   1463.000   1388.112     74.888    633.281   1373.475    647.817    633.281    633.281
 61.170   1301.912   1250.168     51.744    633.336   1234.674    648.765    633.336    633.336
 61.270   1106.000   1119.520    -13.520    633.390   1102.759    650.112    633.390    633.390
 61.370   1000.000   1009.256     -9.256    633.442    990.655    652.020    633.442    633.442
 61.470    952.000    926.006     25.994    633.494    904.677    654.805    633.494    633.494
 61.570    911.834    871.581     40.253    633.545    846.071    659.036    633.545    633.545
 61.670    803.905    845.305    -41.400    633.595    813.242    665.633    633.595    633.595
 61.770    892.000    846.320     45.680    633.644    803.976    675.950    633.644    633.644
 61.870    874.000    875.120     -1.120    633.691    816.991    691.766    633.691    633.691
 61.970    937.183    933.835      3.348    633.738    852.409    715.086    633.738    633.738
 62.070    976.000   1025.132    -49.132    633.784    911.101    747.708    633.784    633.784
 62.170   1129.000   1150.033    -21.033    633.829    993.171    790.551    633.829    633.829
 62.270   1286.000   1305.228    -19.228    633.872   1096.059    842.869    633.872    633.872
 62.370   1458.000   1480.617    -22.617    633.915   1212.797    901.535    633.915    633.915
 62.470   1618.000   1657.714    -39.714    633.956   1330.873    960.583    633.956    633.956
 62.570   1719.000   1809.775    -90.775    633.997   1432.268   1011.292    633.997    633.997
 62.670   1983.565   1905.916     77.649    634.036   1496.205   1043.562    634.036    634.036
 62.770   1871.176   1921.778    -50.602    634.075   1506.294   1049.417    634.075    634.075
 62.870   1862.000   1852.602      9.398    634.112   1459.313   1027.306    634.112    634.112
 62.970   1721.000   1716.424      4.576    634.149   1367.362    983.159    634.149    634.149
 63.070   1571.000   1543.397     27.603    634.184   1250.681    926.878    634.184    634.184
 63.170   1369.000   1362.679      6.321    634.218   1128.853    868.042    634.218    634.218
 63.270   1181.000   1195.819    -14.819    634.251   1016.347    813.731    634.251    634.251
 63.370   1069.000   1055.576     13.424    634.283    921.730    768.139    634.283    634.283
 63.470    936.000    946.742    -10.742    634.314    848.217    732.847    634.314    634.314
 63.570    900.620    868.206     32.414    634.343    795.060    707.495    634.343    634.343
 63.670    804.000    815.342    -11.342    634.372    759.150    690.566    634.372    634.372
 63.770    817.000    782.294     34.706    634.399    736.555    680.136    634.399    634.399
 63.870    813.242    763.674     49.568    634.426    723.662    674.432    634.426    634.426
 63.970    749.000    755.542     -6.542    634.451    717.823    672.162    634.451    634.451
 64.070    763.000    755.765      7.235    634.475    717.581    672.647    634.475    634.475
 64.170    715.998    764.014    -48.016    634.498    722.631    675.866    634.498    634.498
 64.270    819.000    781.574     37.426    634.519    733.623    682.448    634.519    634.519
 64.370    862.009    811.025     50.984    634.540    751.880    693.655    634.540    634.540
 64.470    830.528    855.757    -25.229    634.559    778.988    711.286    634.559    634.559
 64.570    925.475    919.209      6.265    634.578    816.276    737.453    634.578    634.578
 64.670   1041.000   1003.808     37.192    634.595    864.176    774.150    634.595    634.595
 64.770   1117.901   1109.655      8.245    634.611    921.559    822.610    634.611    634.611
 64.870   1241.000   1233.135      7.865    634.625    985.106    882.539    634.625    634.625
 64.970   1429.000   1365.730     63.270    634.639   1048.873    951.368    634.639    634.639
 65.070   1497.000   1493.587      3.413    634.651   1104.415   1023.692    634.651    634.651
 65.170   1648.000   1598.871     49.129    634.662   1142.341   1091.070    634.662    634.662
 65.270   1778.000   1663.698    114.302    634.672   1155.601   1142.671    634.672    634.672
 65.370   1724.000   1675.732     48.268    634.681   1142.589   1167.760    634.681    634.681
 65.470   1622.000   1633.046    -11.046    634.688   1107.543   1160.167    634.688    634.688
 65.570   1526.000   1545.394    -19.394    634.695   1058.360   1121.741    634.695    634.695
 65.670   1467.000   1430.179     36.821    634.700   1003.680   1061.238    634.700    634.700
 65.770   1319.000   1305.726     13.274    634.703    950.592    989.894    634.703    634.703
 65.870   1097.000   1186.385    -89.385    634.706    903.487    917.670    634.706    634.706
 65.970   1022.503   1080.868    -58.365    634.707    863.969    851.674    634.707    634.707
 66.070    973.161    992.769    -19.608    634.707    831.548    795.993    634.707    634.707
 66.170    974.744    922.155     52.588    634.706    804.832    752.088    634.706    634.706
 66.270    869.309    867.315      1.995    634.704    782.607    719.459    634.704    634.704
 66.370    774.000    825.885    -51.885    634.700    764.208    696.415    634.700    634.700
 66.470    794.000    795.364     -1.364    634.695    749.302    680.786    634.695    634.695
 66.570    771.296    773.400     -2.104    634.689    737.645    670.465    634.689    634.689
 66.670    741.089    758.011    -16.922    634.681    729.004    663.704    634.681    634.681
 66.770    662.000    747.689    -85.689    634.673    723.155    659.217    634.673    634.673
 66.870    711.000    741.376    -30.376    634.663    719.908    656.139    634.663    634.663
 66.970    785.808    738.396     47.412    634.651    719.121    653.933    634.651    634.651
 67.070    679.000    738.412    -59.412    634.639    720.768    652.289    634.639    634.639
 67.170    760.167    741.462     18.706    634.625    725.051    651.041    634.625    634.625
 67.270    748.000    748.075     -0.075    634.610    732.576    650.115    634.610    634.610
 67.370    730.000    759.474    -29.474    634.593    744.578    649.495    634.593    634.593
 67.470    704.000    777.831    -73.831    634.575    763.192    649.220    634.575    634.575
 67.570    758.000    806.527    -48.527    634.556    791.714    649.375    634.556    634.556
 67.670    868.000    850.305     17.695    634.536    834.752    650.092    634.536    634.536
 67.770    873.000    915.149    -42.149    634.514    898.116    651.550    634.514    634.514
 67.870   1039.068   1007.715     31.353    634.491    988.261    653.949    634.491    634.491
 67.970   1052.000   1134.166    -82.166    634.467   1111.167    657.475    634.467    634.467
 68.070   1294.987   1298.454     -3.467    634.441   1270.670    662.245    634.441    634.441
 68.170   1475.000   1500.254    -25.254    634.414   1466.464    668.244    634.414    634.414
 68.270   1708.000   1732.933    -24.933    634.386   1692.134    675.257    634.386    634.386
 68.370   1930.000   1981.914    -51.914    634.356   1933.569    682.817    634.356    634.356
 68.470   2112.000   2223.766   -111.766    634.325   2168.087    690.179    634.325    634.325
 68.570   2365.364   2426.941    -61.578    634.292   2365.138    696.340    634.292    634.292
 68.670   2551.190   2556.512     -5.321    634.259   2490.894    700.192    634.259    634.259
 68.770   2650.466   2585.084     65.381    634.224   2518.818    700.865    634.224    634.224
 68.870   2587.000   2505.818     81.182    634.187   2442.276    698.139    634.187    634.187
 68.970   2333.000   2336.439     -3.439    634.149   2278.427    692.573    634.149    634.149
 69.070   2156.222   2109.807     46.416    634.110   2059.095    685.207    634.110    634.110
 69.170   1939.000   1860.427     78.573    634.070   1817.705    677.132    634.070    634.070
 69.270   1659.000   1616.318     42.682    634.028   1581.396    669.235    634.028    634.028
 69.370   1443.996   1396.625     47.371    633.985   1368.717    662.122    633.985    633.985
 69.470   1202.094   1211.936     -9.842    633.940   1189.927    656.125    633.940    633.940
 69.570   1039.738   1065.601    -25.863    633.894   1048.279    651.347    633.894    633.894
 69.670   1065.000    955.612    109.388    633.847    941.822    647.731    633.847    633.847
 69.770    991.000    876.673    114.327    633.798    865.430    645.108    633.798    633.798
 69.870    860.528    822.150     38.378    633.748    812.679    643.266    633.748    633.748
 69.970    928.000    785.542    142.458    633.697    777.274    641.998    633.697    633.697
 70.070    808.000    761.344     46.656    633.644    753.883    641.129    633.644    633.644
 70.170    754.822    745.372      9.450    633.590    738.453    640.527    633.590    633.590
 70.270    735.558    734.709      0.848    633.534    728.158    640.099    633.534    633.534
 70.370    777.000    727.468     49.532    633.477    721.170    639.786    633.477    633.477
 70.470    774.000    722.501     51.499    633.419    716.378    639.551    633.419    633.419
 70.570    718.000    719.151     -1.151    633.359    713.144    639.373    633.359    633.359
 70.670    762.651    717.068     45.584    633.298    711.129    639.242    633.298    633.298
 70.770    753.644    716.098     37.546    633.235    710.183    639.153    633.235    633.235
 70.870    713.000    716.229     -3.229    633.171    710.294    639.108    633.171    633.171
 70.970    742.000    717.587     24.413    633.106    711.581    639.113    633.106    633.106
 71.070    755.015    720.474     34.541    633.039    714.332    639.180    633.039    633.039
 71.170    707.508    725.446    -17.938    632.971    719.079    639.334    632.971    632.971
 71.270    763.569    733.430     30.139    632.901    726.711    639.613    632.901    632.901
 71.370    735.000    745.869    -10.869    632.830    738.611    640.077    632.830    632.830
 71.470    741.000    764.863    -23.863    632.758    756.789    640.813    632.758    632.758
 71.570    775.000    793.249    -18.249    632.684    783.966    641.940    632.684    632.684
 71.670    852.000    834.556     17.444    632.609    823.522    643.604    632.609    632.609
 71.770    934.000    892.735     41.265    632.532    879.243    645.969    632.532    632.532
 71.870    951.000    971.605    -20.605    632.454    954.791    649.194    632.454    632.454
 71.970   1018.000   1074.026    -56.026    632.375   1052.906    653.398    632.375    632.375
 72.070   1119.000   1200.855    -81.855    632.294   1174.408    658.618    632.294    632.294
 72.170   1330.000   1349.865    -19.865    632.211   1317.165    664.764    632.211    632.211
 72.270   1528.914   1514.793     14.121    632.128   1475.172    671.579    632.128    632.128
 72.370   1648.000   1684.650    -36.650    632.043   1637.895    678.612    632.043    632.043
 72.470   1865.000   1843.503     21.497    631.956   1790.060    685.208    631.956    631.956
 72.570   2031.699   1971.408     60.291    631.868   1912.547    690.546    631.868    631.868
 72.670   1962.949   2047.846    -84.896    631.779   1985.681    693.782    631.779    631.779
 72.770   2044.000   2058.187    -14.187    631.688   1995.432    694.315    631.688    631.688
 72.870   2007.000   2000.201      6.799    631.596   1939.649    692.057    631.596    631.596
 72.970   1842.000   1885.234    -43.234    631.502   1829.202    687.476    631.502    631.502
 73.070   1795.000   1732.866     62.134    631.407   1682.862    681.380    631.407    631.407
 73.170   1642.000   1563.796     78.204    631.310   1520.479    674.616    631.310    631.310
 73.270   1409.000   1395.353     13.647    631.212   1358.683    667.884    631.212    631.212
 73.370   1209.000   1239.984    -30.984    631.113   1209.431    661.675    631.113    631.113
 73.470   1055.000   1105.260    -50.260    631.012   1080.007    656.275    631.012    631.012
 73.570   1023.000    994.475     28.525    630.910    973.600    651.796    630.910    630.910
 73.670    925.000    907.563     17.437    630.806    890.154    648.224    630.806    630.806
 73.770    846.000    842.167      3.833    630.701    827.400    645.475    630.701    630.701
 73.870    807.000    794.709     12.291    630.595    781.874    643.434    630.595    630.595
 73.970    782.837    761.283     21.554    630.487    749.790    641.982    630.487    630.487
 74.070    821.000    738.280     82.720    630.378    727.645    641.016    630.378    630.378
 74.170    711.409    722.738    -11.329    630.267    712.550    640.457    630.267    630.267
 74.270    697.110    712.436    -15.326    630.155    702.336    640.259    630.155    630.155
 74.370    686.000    705.845    -19.845    630.041    695.494    640.398    630.041    630.041
 74.470    726.000    701.976     24.024    629.926    691.042    640.868    629.926    629.926
 74.570    717.000    700.216     16.784    629.810    688.365    641.672    629.810    629.810
 74.670    666.418    700.172    -33.754    629.692    687.076    642.803    629.692    629.692
 74.770    684.000    701.542    -17.542    629.572    686.898    644.238    629.572    629.572
 74.870    667.322    704.028    -36.706    629.452    687.582    645.924    629.452    629.452
 74.970    699.000    707.267     -8.267    629.330    688.856    647.773    629.330    629.330
 75.070    682.000    710.800    -28.800    629.206    690.386    649.659    629.206    629.206
 75.170    677.162    714.058    -36.896    629.081    691.770    651.413    629.081    629.081
 75.270    764.000    716.420     47.580    628.955    692.570    652.853    628.955    628.955
 75.370    753.503    717.348     36.155    628.827    692.404    653.821    628.827    628.827
 75.470    747.000    716.605     30.395    628.698    691.087    654.266    628.698    628.698
 75.570    734.771    714.399     20.372    628.567    688.726    654.288    628.567    628.567
 75.670    734.000    711.343     22.657    628.435    685.688    654.133    628.435    628.435
 75.770    737.000    708.291     28.709    628.302    682.481    654.148    628.302    628.302
 75.870    720.000    706.195     13.805    628.167    679.648    654.743    628.167    628.167
 75.970    758.772    706.049     52.723    628.030    677.724    656.378    628.030    628.030
 76.070    714.000    708.885      5.115    627.893    677.223    659.569    627.893    627.893
 76.170    674.082    715.769    -41.686    627.754    678.643    664.884    627.754    627.754
 76.270    702.452    727.767    -25.315    627.613    682.456    672.921    627.613    627.613
 76.370    724.402    745.867    -21.466    627.471    689.076    684.250    627.471    627.471
 76.470    782.000    770.835     11.165    627.328    698.809    699.333    627.328    627.328
 76.570    830.789    803.025     27.765    627.183    711.778    718.400    627.183    627.183
 76.670    832.000    842.167    -10.167    627.037    727.834    741.331    627.037    627.037
 76.770    870.000    887.167    -17.167    626.890    746.487    767.523    626.890    626.890
 76.870    907.000    935.919    -28.919    626.741    766.812    795.794    626.741    626.741
 76.970    935.223    985.193    -49.970    626.590    787.413    824.312    626.590    626.590
 77.070   1004.000   1030.635    -26.635    626.439    806.419    850.594    626.439    626.439
 77.170   1074.089   1067.036      7.053    626.286    821.597    871.666    626.286    626.286
 77.270   1092.000   1089.164      2.836    626.131    830.708    884.534    626.131    626.131
 77.370   1151.226   1093.242     57.984    625.975    832.136    887.037    625.975    625.975
 77.470   1043.823   1078.435    -34.611    625.818    825.520    878.698    625.818    625.818
 77.570   1009.756   1047.235    -37.479    625.660    811.921    860.949    625.660    625.660
 77.670    945.000   1004.390    -59.390    625.500    793.363    836.511    625.500    625.500
 77.770   1003.000    955.260     47.740    625.338    772.130    808.459    625.338    625.338
 77.870    882.000    904.630    -22.630    625.176    750.263    779.538    625.176    625.176
 77.970    832.406    856.207    -23.801    625.012    729.344    751.874    625.012    625.012
 78.070    763.000    812.529    -49.529    624.846    710.453    726.924    624.846    624.846
 78.170    714.000    775.048    -61.048    624.679    694.209    705.520    624.679    624.679
 78.270    764.088    744.279     19.808    624.511    680.832    687.961    624.511    624.511
 78.370    733.000    720.018     12.982    624.342    670.233    674.128    624.342    624.342
 78.470    716.000    701.568     14.432    624.171    662.115    663.626    624.171    624.171
 78.570    733.213    687.980     45.233    623.999    656.071    655.908    623.999    623.999
 78.670    657.000    678.234    -21.234    623.825    651.666    650.394    623.825    623.825
 78.770    714.624    671.389     43.235    623.650    648.497    646.543    623.650    623.650
 78.870    654.000    666.648    -12.648    623.474    646.223    643.899    623.474    623.474
 78.970    630.000    663.393    -33.393    623.296    644.579    642.111    623.296    623.296
 79.070    621.000    661.175    -40.175    623.118    643.373    640.920    623.118    623.118
 79.170    626.087    659.687    -33.600    622.937    642.471    640.153    622.937    622.937
 79.270    636.000    658.734    -22.734    622.756    641.792    639.698    622.756    622.756
 79.370    678.000    658.206     19.794    622.573    641.284    639.495    622.573    622.573
 79.470    690.742    658.050     32.692    622.389    640.924    639.515    622.389    622.389
 79.570    618.000    658.264    -40.264    622.203    640.707    639.760    622.203    622.203
 79.670    620.010    658.888    -38.878    622.016    640.642    640.262    622.016    622.016
 79.770    662.000    660.004      1.996    621.828    640.749    641.082    621.828    621.828
 79.870    635.000    661.753    -26.753    621.639    641.062    642.329    621.639    621.639
 79.970    638.000    664.353    -26.353    621.448    641.626    644.173    621.448    621.448
 80.070    676.000    668.126      7.874    621.256    642.500    646.880    621.256    621.256
 80.170    708.948    673.536     35.412    621.063    643.759    650.836    621.063    621.063
 80.270    698.000    681.233     16.767    620.868    645.500    656.596    620.868    620.868
 80.370    696.000    692.090      3.910    620.672    647.846    664.909    620.672    620.672
 80.470    685.000    707.222    -22.222    620.475    650.948    676.738    620.475    620.475
 80.570    675.000    727.972    -52.972    620.277    654.991    693.243    620.277    620.277
 80.670    751.000    755.834     -4.834    620.077    660.184    715.709    620.077    620.077
 80.770    753.376    792.309    -38.933    619.876    666.752    745.411    619.876    619.876
 80.870    790.049    838.700    -48.651    619.674    674.921    783.427    619.674    619.674
 80.970    867.000    895.853    -28.853    619.471    684.908    830.387    619.471    619.471
 81.070    966.726    963.880      2.846    619.266    696.900    886.216    619.266    619.266
 81.170   1093.782   1041.859     51.922    619.060    711.013    949.878    619.060    619.060
 81.270   1195.000   1127.559     67.441    618.853    727.223   1019.166    618.853    618.853
 81.370   1239.000   1217.249     21.751    618.644    745.285   1090.594    618.644    618.644
 81.470   1347.000   1305.709     41.291    618.435    764.683   1159.459    618.435    618.435
 81.570   1381.187   1386.549     -5.362    618.224    784.614   1220.176    618.224    618.224
 81.670   1446.971   1453.076     -6.105    618.012    804.099   1267.027    618.012    618.012
 81.770   1580.000   1499.504     80.496    617.798    822.118   1295.246    617.798    617.798
 81.870   1594.000   1522.016     71.984    617.584    837.675   1302.008    617.584    617.584
 81.970   1542.106   1519.463     22.643    617.368    849.987   1286.949    617.368    617.368
 82.070   1530.650   1493.219     37.430    617.151    858.523   1251.969    617.151    617.151
 82.170   1556.000   1446.719    109.281    616.933    863.042   1200.745    616.933    616.933
 82.270   1448.000   1384.868     63.132    616.714    863.561   1138.163    616.714    616.714
 82.370   1317.000   1313.207      3.793    616.494    860.244   1069.602    616.494    616.494
 82.470   1299.289   1237.008     62.280    616.272    853.287   1000.137    616.272    616.272
 82.570   1193.000   1160.692     32.308    616.049    842.945    933.935    616.049    616.049
 82.670   1119.000   1087.655     31.345    615.825    829.660    873.951    615.825    615.825
 82.770   1018.000   1020.317     -2.317    615.600    814.135    821.904    615.600    615.600
 82.870    908.879    960.154    -51.275    615.374    797.213    778.425    615.374    615.374
 82.970    887.000    907.734    -20.734    615.147    779.689    743.289    615.147    615.147
 83.070    832.118    862.874    -30.756    614.918    762.184    715.694    614.918    614.918
 83.170    785.731    824.940    -39.209    614.689    745.175    694.529    614.689    614.689
 83.270    768.000    793.154    -25.154    614.458    729.067    678.608    614.458    614.458
 83.370    753.000    766.806    -13.806    614.226    714.249    666.836    614.226    614.226
 83.470    758.000    745.330     12.670    613.993    701.079    658.288    613.993    613.993
 83.570    710.988    728.293    -17.305    613.759    689.847    652.238    613.759    613.759
 83.670    685.447    715.358    -29.911    613.524    680.752    648.153    613.524    613.524
 83.770    628.000    706.243    -78.243    613.288    673.890    645.654    613.288    613.288
 83.870    674.479    700.685    -26.206    613.050    669.261    644.478    613.050    613.050
 83.970    686.000    698.393    -12.393    612.812    666.768    644.432    612.812    612.812
 84.070    649.000    699.014    -50.014    612.573    666.223    645.349    612.573    612.573
 84.170    733.265    702.095     31.170    612.332    667.347    647.056    612.332    612.332
 84.270    664.000    707.063    -43.063    612.091    669.773    649.349    612.091    612.091
 84.370    728.720    713.225     15.495    611.848    673.055    651.979    611.848    611.848
 84.470    722.070    719.769      2.301    611.604    676.678    654.651    611.604    611.604
 84.570    672.000    725.795    -53.795    611.360    680.076    657.030    611.360    611.360
 84.670    730.644    730.383      0.261    611.114    682.679    658.766    611.114    611.114
 84.770    767.379    732.713     34.666    610.867    683.984    659.545    610.867    610.867
 84.870    750.000    732.225     17.775    610.620    683.641    659.153    610.620    610.620
 84.970    722.565    728.764     -6.199    610.371    681.547    657.541    610.371    610.371
 85.070    733.008    722.613     10.395    610.121    677.858    654.834    610.121    610.121
 85.170    701.000    714.380    -13.380    609.871    672.925    651.289    609.871    609.871
 85.270    696.000    704.827     -8.827    609.619    667.187    647.227    609.619    609.619
 85.370    702.000    694.719      7.281    609.366    661.084    642.974    609.366    609.366
 85.470    687.000    684.734      2.266    609.113    655.001    638.824    609.113    609.113
 85.570    677.000    675.430      1.570    608.858    649.245    635.024    608.858    608.858
 85.670    680.000    667.224     12.776    608.603    644.036    631.775    608.603    608.603
 85.770    634.000    660.403    -26.403    608.346    639.510    629.226    608.346    608.346
 85.870    643.000    655.134    -12.134    608.089    635.725    627.485    608.089    608.089
 85.970    654.000    651.484      2.516    607.831    632.680    626.623    607.831    607.831
 86.070    641.450    649.445     -7.995    607.572    630.329    626.676    607.572    607.572
 86.170    613.000    648.955    -35.955    607.312    628.600    627.654    607.312    607.312
 86.270    615.306    649.917    -34.611    607.051    627.417    629.537    607.051    607.051
 86.370    657.000    652.206      4.794    606.789    626.709    632.270    606.789    606.789
 86.470    673.366    655.677     17.689    606.526    626.425    635.760    606.526    606.526
 86.570    658.000    660.164     -2.164    606.263    626.541    639.865    606.263    606.263
 86.670    675.178    665.478      9.701    605.999    627.064    644.388    605.999    605.999
 86.770    635.000    671.404    -36.404    605.733    628.034    649.076    605.733    605.733
 86.870    641.000    677.706    -36.706    605.467    629.524    653.618    605.467    605.467
 86.970    695.717    684.126     11.591    605.200    631.637    657.653    605.200    605.200
 87.070    768.000    690.410     77.590    604.933    634.500    660.803    604.933    604.933
 87.170    676.493    696.351    -19.858    604.664    638.251    662.719    604.664    604.664
 87.270    709.000    701.842      7.158    604.395    643.027    663.160    604.395    604.395
 87.370    688.995    706.932    -17.937    604.125    648.944    662.057    604.125    604.125
 87.470    670.820    711.806    -40.987    603.854    656.074    659.523    603.854    603.854
 87.570    716.000    716.724     -0.724    603.582    664.416    655.819    603.582    603.582
 87.670    747.000    721.914     25.086    603.310    673.874    651.269    603.310    603.310
 87.770    747.000    727.490     19.510    603.037    684.232    646.204    603.037    603.037
 87.870    771.262    733.399     37.864    602.763    695.139    640.922    602.763    602.763
 87.970    731.000    739.394     -8.394    602.488    706.099    635.672    602.488    602.488
 88.070    766.000    745.042     20.958    602.213    716.478    630.658    602.213    602.213
 88.170    754.000    749.748      4.252    601.937    725.531    626.029    601.937    601.937
 88.270    708.943    752.837    -43.894    601.660    732.487    621.882    601.660    601.660
 88.370    834.000    753.700     80.300    601.383    736.691    618.265    601.383    601.383
 88.470    742.000    751.968     -9.968    601.105    737.773    615.179    601.105    601.105
 88.570    762.000    747.642     14.358    600.826    735.760    612.595    600.826    600.826
 88.670    762.000    741.088     20.912    600.547    731.067    610.466    600.547    600.547
 88.770    728.000    732.926     -4.926    600.267    724.374    608.732    600.267    600.267
 88.870    775.000    723.891     51.109    599.986    716.471    607.332    599.986    599.986
 88.970    756.289    714.720     41.569    599.705    708.155    606.212    599.705    599.705
 89.070    706.000    706.102     -0.102    599.423    700.161    605.320    599.423    599.423
 89.170    690.000    698.622     -8.622    599.141    693.118    604.614    599.141    599.141
 89.270    694.000    692.736      1.264    598.858    687.515    604.060    598.858    598.858
 89.370    725.145    688.742     36.402    598.574    683.680    603.630    598.574    598.574
 89.470    723.504    686.763     36.741    598.290    681.757    603.300    598.290    598.290
 89.570    692.000    686.742      5.258    598.005    681.713    603.048    598.005    598.005
 89.670    690.000    688.461      1.539    597.720    683.348    602.856    597.720    597.720
 89.770    693.000    691.547      1.453    597.434    686.311    602.703    597.434    597.434
 89.870    718.000    695.504     22.496    597.148    690.123    602.569    597.148    597.148
 89.970    683.958    699.735    -15.777    596.861    694.211    602.434    596.861    596.861
 90.070    767.000    703.584     63.416    596.573    697.940    602.273    596.573    596.573
 90.170    653.395    706.394    -52.999    596.286    700.675    602.066    596.286    596.286
 90.270    695.000    707.598    -12.598    595.997    701.867    601.795    595.997    595.997
 90.370    752.000    706.820     45.180    595.709    701.150    601.447    595.709    595.709
 90.470    661.624    703.950    -42.326    595.419    698.417    601.021    595.419    595.419
 90.570    712.937    699.152     13.785    595.130    693.825    600.524    595.130    595.130
 90.670    716.632    692.799     23.832    594.840    687.731    599.971    594.840    594.840
 90.770    721.050    685.371     35.679    594.549    680.599    599.379    594.549    594.549
 90.870    709.506    677.361     32.145    594.258    672.904    598.768    594.258    594.258
 90.970    658.000    669.222    -11.222    593.967    665.082    598.153    593.967    593.967
 91.070    669.119    661.333      7.786    593.676    657.498    597.549    593.676    593.676
 91.170    655.000    653.985      1.015    593.384    650.435    596.967    593.384    593.384
 91.270    657.000    647.388      9.612    593.091    644.092    596.413    593.091    593.091
 91.370    638.618    641.664     -3.046    592.799    638.590    595.894    592.799    592.799
 91.470    650.000    636.869     13.131    592.506    633.981    595.410    592.506    592.506
 91.570    620.240    632.995    -12.755    592.212    630.259    594.961    592.212    592.212
 91.670    590.000    629.998    -39.998    591.919    627.380    594.546    591.919    591.919
 91.770    567.000    627.809    -60.809    591.625    625.277    594.163    591.625    591.625
 91.870    605.000    626.350    -21.350    591.331    623.877    593.808    591.331    591.331
 91.970    626.237    625.556      0.681    591.037    623.115    593.479    591.037    591.037
 92.070    644.000    625.378     18.622    590.742    622.946    593.175    590.742    590.742
 92.170    607.266    625.799    -18.533    590.447    623.349    592.895    590.447    590.447
 92.270    667.000    626.832     40.168    590.152    624.341    592.640    590.152    590.152
 92.370    612.554    628.530    -15.976    589.857    625.970    592.412    589.857    589.857
 92.470    644.318    630.979     13.339    589.562    628.319    592.214    589.562    589.562
 92.570    606.000    634.297    -28.297    589.266    631.503    592.051    589.266    589.266
 92.670    612.000    638.628    -26.628    588.970    635.659    591.928    588.970    588.970
 92.770    670.000    644.132     25.868    588.674    640.941    591.850    588.674    588.674
 92.870    636.000    650.971    -14.971    588.378    647.506    591.824    588.378    588.378
 92.970    695.701    659.296     36.405    588.082    655.503    591.853    588.082    588.082
 93.070    703.000    669.233     33.767    587.786    665.051    591.940    587.786    587.786
 93.170    693.711    680.864     12.847    587.490    676.232    592.087    587.490    587.490
 93.270    683.000    694.211    -11.211    587.193    689.071    592.294    587.193    587.193
 93.370    705.193    709.228     -4.036    586.897    703.521    592.557    586.897    586.897
 93.470    739.000    725.780     13.220    586.600    719.455    592.872    586.600    586.600
 93.570    726.444    743.638    -17.195    586.304    736.649    593.233    586.304    586.304
 93.670    734.000    762.529    -28.529    586.007    754.834    593.636    586.007    586.007
 93.770    788.000    782.038      5.962    585.711    773.599    594.078    585.711    585.711
 93.870    771.794    801.709    -29.915    585.415    792.486    594.560    585.415    585.415
 93.970    872.156    821.091     51.065    585.118    811.034    595.094    585.118    585.118
 94.070    858.795    839.831     18.965    584.822    828.863    595.705    584.822    584.822
 94.170    856.636    857.764     -1.128    584.525    845.767    596.438    584.525    584.525
 94.270    904.000    874.971     29.029    584.229    861.759    597.356    584.229    584.229
 94.370    936.000    891.734     44.266    583.933    877.041    598.540    583.933    583.933
 94.470    954.060    908.430     45.630    583.637    891.902    600.079    583.637    583.637
 94.570    892.165    925.390    -33.224    583.341    906.585    602.062    583.341    583.341
 94.670    913.000    942.792    -29.792    583.045    921.194    604.561    583.045    583.045
 94.770    905.000    960.623    -55.623    582.750    935.669    607.623    582.750    582.750
 94.870    940.000    978.715    -38.715    582.454    949.829    611.261    582.454    582.454
 94.970    984.000    996.819    -12.819    582.159    963.458    615.443    582.159    582.159
 95.070   1025.000   1014.664     10.336    581.864    976.368    620.086    581.864    581.864
 95.170   1010.000   1031.949    -21.949    581.569    988.395    625.053    581.569    581.569
 95.270   1060.028   1048.262     11.766    581.275    999.317    630.155    581.275    581.275
 95.370   1086.000   1062.980     23.020    580.980   1008.751    635.151    580.980    580.980
 95.470   1090.000   1075.206     14.794    580.686   1016.084    639.757    580.686    580.686
 95.570   1140.000   1083.821     56.179    580.393   1020.501    643.669    580.393    580.393
 95.670   1082.000   1087.599     -5.599    580.099   1021.077    646.586    580.099    580.099
 95.770   1116.000   1085.434     30.566    579.806   1016.969    648.246    579.806    579.806
 95.870   1085.000   1076.628      8.372    579.513   1007.647    648.480    579.513    579.513
 95.970   1066.000   1061.118      4.882    579.221    993.093    647.241    579.221    579.221
 96.070   1095.415   1039.561     55.854    578.929    973.871    644.621    578.929    578.929
 96.170   1010.000   1013.241     -3.241    578.637    951.058    640.829    578.637    578.637
 96.270   1015.000    983.853     31.147    578.346    926.070    636.143    578.346    578.346
 96.370   1037.000    953.281     83.719    578.055    900.479    630.874    578.055    578.055
 96.470    969.000    923.424     45.576    577.765    875.881    625.323    577.765    577.765
 96.570    889.000    896.086     -7.086    577.475    853.810    619.766    577.475    577.475
 96.670    897.068    872.924     24.143    577.185    835.690    614.431    577.185    577.185
 96.770    802.676    855.408    -52.732    576.896    822.811    609.500    576.896    576.896
 96.870    821.000    844.802    -23.802    576.608    816.312    605.099    576.608    576.608
 96.970    836.022    842.157     -6.135    576.320    817.167    601.304    576.320    576.320
 97.070    864.230    848.295     15.935    576.033    826.167    598.147    576.033    576.033
 97.170    920.149    863.768     56.381    575.746    843.875    595.617    575.746    575.746
 97.270    935.000    889.011     45.989    575.460    870.754    593.686    575.460    575.460
 97.370    922.000    924.098     -2.098    575.174    906.933    592.300    575.174    575.174
 97.470    994.000    968.800     25.200    574.889    952.243    591.398    574.889    574.889
 97.570   1031.000   1022.560      8.440    574.605   1006.192    590.916    574.605    574.605
 97.670   1105.000   1084.448     20.552    574.321   1067.918    590.787    574.321    574.321
 97.770   1191.000   1153.100     37.900    574.038   1136.123    590.946    574.038    574.038
 97.870   1279.292   1226.662     52.630    573.756   1209.021    591.322    573.756    573.756
 97.970   1233.390   1302.778    -69.388    573.474   1284.332    591.844    573.474    573.474
 98.070   1424.000   1378.585     45.415    573.193   1359.265    592.438    573.193    573.193
 98.170   1508.718   1450.744     57.974    572.913   1430.563    593.023    572.913    572.913
 98.270   1632.000   1515.555    116.445    572.634   1494.609    593.517    572.634    572.634
 98.370   1565.000   1569.202     -4.202    572.355   1547.670    593.838    572.355    572.355
 98.470   1637.000   1608.156     28.844    572.077   1586.288    593.911    572.077    572.077
 98.570   1581.000   1629.706    -48.706    571.801   1607.812    593.679    571.801    571.801
 98.670   1646.000   1632.476     13.524    571.524   1610.891    593.114    571.524    571.524
 98.770   1621.000   1616.698      4.302    571.249   1595.753    592.218    571.249    571.249
 98.870   1593.516   1584.139      9.377    570.975   1564.129    591.026    570.975    570.975
 98.970   1529.000   1537.722     -8.722    570.702   1518.883    589.596    570.702    570.702
 99.070   1414.165   1481.025    -66.859    570.429   1463.525    587.996    570.429    570.429
 99.170   1299.000   1417.840   -118.840    570.158   1401.771    586.299    570.158    570.158
 99.270   1394.000   1351.851     42.149    569.887   1337.240    584.574    569.887    569.887
 99.370   1312.000   1286.444     25.556    569.617   1273.251    582.885    569.617    569.617
 99.470   1211.544   1224.598    -13.054    569.349   1212.730    581.286    569.349    569.349
 99.570   1160.000   1168.845     -8.845    569.081   1158.167    579.822    569.081    569.081
 99.670   1134.617   1121.278     13.339    568.815   1111.619    578.530    568.815    568.815
 99.770   1144.201   1083.578     60.623    568.549   1074.740    577.434    568.549    568.549
 99.870   1090.000   1057.053     32.947    568.285   1048.822    576.552    568.285    568.285
 99.970    999.000   1042.670    -43.670    568.022   1034.827    575.893    568.022    568.022
100.070   1070.000   1041.083     28.917    567.760   1033.405    575.457    567.760    567.760
100.170   1081.428   1052.639     28.789    567.499   1044.912    575.238    567.499    567.499
100.270   1094.000   1077.390     16.610    567.239   1069.413    575.223    567.239    567.239
100.370   1168.000   1115.100     52.900    566.980   1106.691    575.393    566.980    566.980
100.470   1121.785   1165.240    -43.454    566.723   1156.240    575.725    566.723    566.723
100.570   1216.000   1226.978    -10.978    566.467   1217.258    576.190    566.467    566.467
100.670   1326.000   1299.163     26.837    566.212   1288.627    576.755    566.212    566.212
100.770   1422.000   1380.278     41.722    565.958   1368.868    577.383    565.958    565.958
100.870   1455.718   1468.474    -12.756    565.706   1456.171    578.035    565.706    565.706
100.970   1597.487   1561.478     36.009    565.455   1548.306    578.666    565.455    565.455
101.070   1711.000   1656.638     54.362    565.205   1642.669    579.232    565.205    565.205
101.170   1733.939   1751.034    -17.096    564.957   1736.379    579.690    564.957    564.957
101.270   1815.243   1841.648    -26.405    564.710   1826.456    580.002    564.710    564.710
101.370   1939.504   1925.614     13.890    564.464   1910.063    580.142    564.464    564.464
101.470   2055.000   2000.471     54.529    564.220   1984.750    580.095    564.220    564.220
101.570   2101.000   2064.302     36.698    563.978   2048.590    579.868    563.978    563.978
101.670   2105.000   2115.692    -10.692    563.736   2100.150    579.482    563.736    563.736
101.770   2111.000   2153.560    -42.560    563.497   2138.313    578.970    563.497    563.497
101.870   2097.772   2176.956    -79.184    563.259   2162.087    578.373    563.259    563.259
101.970   2152.000   2184.984    -32.984    563.022   2170.536    577.733    563.022    563.022
102.070   2104.000   2176.942    -72.942    562.787   2162.916    577.088    562.787    562.787
102.170   2115.000   2152.641    -37.641    562.553   2139.005    576.474    562.553    562.553
102.270   2088.807   2112.782    -23.975    562.322   2099.475    575.918    562.322    562.322
102.370   1983.000   2059.182    -76.182    562.091   2046.120    575.442    562.091    562.091
102.470   1971.000   1994.706    -23.706    561.863   1981.793    575.060    561.863    561.863
102.570   1917.000   1922.918     -5.918    561.636   1910.053    574.776    561.636    561.636
102.670   1848.000   1847.592      0.408    561.411   1834.679    574.587    561.411    561.411
102.770   1730.000   1772.248    -42.248    561.187   1759.204    574.480    561.187    561.187
102.870   1738.000   1699.832     38.168    560.965   1686.597    574.434    560.965    560.965
102.970   1604.000   1632.552    -28.552    560.745   1619.090    574.425    560.745    560.745
103.070   1622.403   1571.821     50.582    560.527   1558.126    574.425    560.527    560.527
103.170   1455.000   1518.272    -63.272    560.311   1504.364    574.407    560.311    560.311
103.270   1532.772   1471.807     60.964    560.096   1457.732    574.347    560.096    560.096
103.370   1440.876   1431.693      9.182    559.884   1417.517    574.225    559.884    559.884
103.470   1452.000   1396.636     55.364    559.673   1382.444    574.021    559.673    559.673
103.570   1352.000   1364.953    -12.953    559.464   1350.847    573.720    559.464    559.464
103.670   1266.000   1334.778    -68.778    559.257   1320.874    573.305    559.257    559.257
103.770   1350.865   1304.315     46.550    559.052   1290.740    572.769    559.052    559.052
103.870   1274.178   1272.096      2.082    558.849   1258.977    572.106    558.849    558.849
103.970   1296.232   1237.176     59.056    558.648   1224.636    571.323    558.648    558.648
104.070   1205.000   1199.213      5.787    558.449   1187.359    570.434    558.449    558.449
104.170   1115.872   1158.411    -42.539    558.252   1147.330    569.461    558.252    558.252
104.270   1086.185   1115.381    -29.196    558.058   1105.131    568.429    558.058    558.058
104.370   1035.792   1070.961    -35.170    557.865   1061.575    567.365    557.865    557.865
104.470    998.000   1026.082    -28.082    557.674   1017.568    566.295    557.674    557.674
104.570   1015.676    981.658     34.017    557.486    974.001    565.242    557.486    557.486
104.670    960.000    938.529     21.471    557.300    931.695    564.223    557.300    557.300
104.770    851.228    897.420    -46.191    557.116    891.363    563.253    557.116    557.116
104.870    881.000    858.925     22.075    556.934    853.587    562.344    556.934    556.934
104.970    787.103    823.481    -36.378    556.754    818.801    561.498    556.754    556.754
105.070    781.744    791.391     -9.647    556.577    787.304    560.720    556.577    556.577
105.170    722.000    762.849    -40.849    556.402    759.277    560.022    556.402    556.402
105.270    713.433    737.859    -24.426    556.230    734.732    559.397    556.230    556.230
105.370    769.000    716.330     52.670    556.059    713.583    558.840    556.059    556.059
105.470    685.705    698.086    -12.382    555.892    695.659    558.347    555.892    555.892
105.570    659.000    682.886    -23.886    555.726    680.723    557.912    555.726    555.726
105.670    695.000    670.449     24.551    555.563    668.502    557.530    555.563    555.563
105.770    705.183    660.482     44.701    555.403    658.706    557.193    555.403    555.403
105.870    673.248    652.695     20.553    555.245    651.054    556.897    555.245    555.245
105.970    686.000    646.819     39.181    555.089    645.280    556.636    555.089    555.089
106.070    634.000    642.619     -8.619    554.936    641.155    556.406    554.936    554.936
106.170    665.000    639.897     25.103    554.786    638.483    556.202    554.786    554.786
106.270    682.129    638.498     43.632    554.638    637.114    556.022    554.638    554.638
106.370    664.229    638.307     25.922    554.493    636.935    555.863    554.493    554.493
106.470    691.000    639.248     51.752    554.350    637.870    555.724    554.350    554.350
106.570    594.044    641.276    -47.232    554.210    639.877    555.603    554.210    554.210
106.670    602.727    644.372    -41.644    554.073    642.937    555.499    554.073    554.073
106.770    604.306    648.534    -44.229    553.939    647.049    555.413    553.939    553.939
106.870    679.000    653.774     25.226    553.807    652.223    555.343    553.807    553.807
106.970    666.000    660.103      5.897    553.678    658.473    555.291    553.678    553.678
107.070    662.421    667.529     -5.108    553.552    665.805    555.255    553.552    553.552
107.170    633.385    676.045    -42.660    553.429    674.214    555.236    553.429    553.429
107.270    661.000    685.621    -24.621    553.309    683.669    555.234    553.309    553.309
107.370    715.000    696.195     18.805    553.191    694.109    555.246    553.191    553.191
107.470    690.336    707.662    -17.325    553.077    705.432    555.273    553.077    553.077
107.570    671.602    719.872    -48.269    552.965    717.489    555.311    552.965    552.965
107.670    724.813    732.626     -7.814    552.856    730.084    555.359    552.856    552.856
107.770    767.000    745.677     21.323    552.751    742.974    555.412    552.751    552.751
107.870    729.000    758.729    -29.729    552.648    755.867    555.466    552.648    552.648
107.970    812.190    771.446     40.744    552.549    768.432    555.517    552.549    552.549
108.070    794.000    783.465     10.535    552.453    780.312    555.559    552.453    552.453
108.170    819.000    794.410     24.590    552.359    791.136    555.586    552.359    552.359
108.270    728.000    803.926    -75.926    552.269    800.554    555.595    552.269    552.269
108.370    858.404    811.714     46.690    552.182    808.273    555.579    552.182    552.182
108.470    828.000    817.578     10.422    552.099    814.099    555.536    552.099    552.099
108.570    813.000    821.458     -8.458    552.018    817.974    555.464    552.018    552.018
108.670    808.012    823.454    -15.442    551.941    819.997    555.363    551.941    551.941
108.770    857.139    823.815     33.325    551.867    820.414    555.237    551.867    551.867
108.870    801.000    822.902    -21.902    551.796    819.583    555.090    551.796    551.796
108.970    849.313    821.147     28.165    551.729    817.928    554.928    551.729    551.729
109.070    835.000    818.994     16.006    551.665    815.887    554.755    551.665    551.665
109.170    867.590    816.855     50.735    551.605    813.870    554.578    551.605    551.605
109.270    808.000    815.083     -7.083    551.548    812.221    554.402    551.548    551.548
109.370    784.000    813.943    -29.943    551.494    811.203    554.231    551.494    551.494
109.470    789.000    813.604    -24.604    551.444    810.979    554.070    551.444    551.444
109.570    812.878    814.127     -1.249    551.398    811.609    553.920    551.398    551.398
109.670    764.319    815.467    -51.147    551.355    813.046    553.784    551.355    551.355
109.770    760.000    817.469    -57.469    551.316    815.136    553.661    551.316    551.316
109.870    864.391    819.882     44.509    551.280    817.626    553.552    551.280    551.280
109.970    774.023    822.361    -48.338    551.248    820.173    553.456    551.248    551.248
110.070    845.790    824.496     21.295    551.220    822.369    553.370    551.220    551.220
110.170    763.000    825.840    -62.840    551.195    823.770    553.292    551.195    551.195
110.270    774.000    825.953    -51.953    551.174    823.938    553.219    551.174    551.174
110.370    817.000    824.443     -7.443    551.157    822.494    553.138    551.157    551.157
110.470    845.770    821.062     24.708    551.144    819.177    553.064    551.144    551.144
110.570    810.000    815.690     -5.690    551.134    813.865    552.995    551.134    551.134
110.670    747.000    808.358    -61.358    551.129    806.597    552.926    551.129    551.129
110.770    749.410    799.247    -49.837    551.127    797.554    552.856    551.127    551.127
110.870    812.000    788.647     23.353    551.129    787.025    552.787    551.129    551.129
110.970    821.207    776.910     44.297    551.136    775.361    552.719    551.136    551.136
111.070    819.000    764.414     54.586    551.146    762.938    552.655    551.146    551.146
111.170    724.597    751.520    -26.923    551.160    750.117    552.595    551.160    551.160
111.270    748.000    738.586      9.414    551.178    737.252    552.541    551.178    551.178
111.370    679.557    725.915    -46.358    551.201    724.648    552.495    551.201    551.201
111.470    711.392    713.768     -2.376    551.227    712.562    552.457    551.227    551.227
111.570    733.000    702.359     30.641    551.258    701.209    552.428    551.258    551.258
111.670    646.240    691.855    -45.615    551.293    690.755    552.410    551.293    551.293
111.770    713.369    682.378     30.991    551.332    681.322    552.403    551.332    551.332
111.870    680.000    674.005      5.995    551.376    672.985    552.407    551.376    551.376
111.970    667.000    666.769      0.231    551.423    665.779    552.422    551.423    551.423
112.070    637.844    660.668    -22.824    551.475    659.702    552.448    551.475    551.475
112.170    680.206    655.672     24.533    551.532    654.724    552.485    551.532    551.532
112.270    656.000    651.726      4.274    551.592    650.789    552.533    551.592    551.592
112.370    697.970    648.753     49.216    551.657    647.822    552.590    551.657    551.657
112.470    633.596    646.669    -13.073    551.727    645.738    552.657    551.727    551.727
112.570    650.000    645.379      4.621    551.801    644.446    552.732    551.801    551.801
112.670    675.000    644.791     30.209    551.880    643.853    552.815    551.880    551.880
112.770    661.587    644.815     16.771    551.963    643.868    552.905    551.963    551.963
112.870    654.000    645.366      8.634    552.051    644.409    553.002    552.051    552.051
112.970    704.000    646.369     57.631    552.143    645.400    553.105    552.143    552.143
113.070    667.000    647.758     19.242    552.240    646.778    553.213    552.240    552.240
113.170    699.000    649.483     49.517    552.342    648.491    553.327    552.342    552.342
113.270    654.000    651.506      2.494    552.448    650.502    553.445    552.448    552.448
113.370    643.000    653.805    -10.805    552.559    652.788    553.567    552.559    552.559
113.470    686.000    656.372     29.628    552.675    655.343    553.695    552.675    552.675
113.570    684.000    659.218     24.782    552.796    658.177    553.828    552.796    552.796
113.670    632.000    662.369    -30.369    552.922    661.314    553.967    552.922    552.922
113.770    651.000    665.870    -14.870    553.052    664.800    554.113    553.052    553.052
113.870    691.000    669.784     21.216    553.188    668.695    554.267    553.188    553.188
113.970    635.000    674.196    -39.196    553.328    673.085    554.429    553.328    553.328
114.070    677.477    679.220     -1.743    553.474    678.081    554.602    553.474    553.474
114.170    722.000    685.000     37.000    553.624    683.826    554.786    553.624    553.624
114.270    642.848    691.721    -48.873    553.780    690.504    554.984    553.780    553.780
114.370    742.077    699.622     42.455    553.940    698.351    555.197    553.940    553.940
114.470    722.000    709.001     12.999    554.106    707.663    555.427    554.106    554.106
114.570    674.000    720.233    -46.233    554.277    718.813    555.678    554.277    554.277
114.670    718.000    733.787    -15.787    554.453    732.267    555.951    554.453    554.453
114.770    706.782    750.239    -43.456    554.635    748.598    556.249    554.635    554.635
114.870    718.789    770.290    -51.500    554.821    768.503    556.575    554.821    554.821
114.970    770.000    794.786    -24.786    555.013    792.826    556.934    555.013    555.013
115.070    813.000    824.732    -11.732    555.211    822.568    557.328    555.211    555.211
115.170    875.783    861.307     14.476    555.414    858.902    557.761    555.414    555.414
115.270    856.000    905.871    -49.871    555.622    903.185    558.238    555.622    555.622
115.370    948.000    959.965    -11.965    555.835    956.955    558.761    555.835    555.835
115.470    978.000   1025.311    -47.311    556.054   1021.928    559.336    556.054    556.054
115.570   1058.000   1103.787    -45.787    556.279   1099.979    559.965    556.279    556.279
115.670   1195.529   1197.399     -1.870    556.509   1193.109    560.653    556.509    556.509
115.770   1293.000   1308.235    -15.235    556.745   1303.404    561.402    556.745    556.745
115.870   1440.000   1438.399      1.601    556.987   1432.967    562.215    556.987    556.987
115.970   1650.000   1589.940     60.060    557.234   1583.842    563.094    557.234    557.234
116.070   1747.000   1764.750    -17.750    557.487   1757.923    564.039    557.487    557.487
116.170   1942.995   1964.460    -21.465    557.745   1956.840    565.050    557.745    557.745
116.270   2264.000   2190.319     73.681    558.010   2181.847    566.125    558.010    558.010
116.370   2522.000   2443.074     78.926    558.280   2433.693    567.260    558.280    558.280
116.470   2808.000   2722.843     85.157    558.556   2712.504    568.451    558.556    558.556
116.570   3076.000   3028.998     47.002    558.838   3017.658    569.689    558.838    558.838
116.670   3271.891   3360.046    -88.156    559.126   3347.676    570.967    559.126    559.126
116.770   3672.482   3713.570    -41.089    559.420   3700.151    572.271    559.420    559.420
116.870   3983.000   4086.244   -103.244    559.720   4071.769    573.594    559.720    559.720
116.970   4398.000   4473.616    -75.616    560.026   4458.095    574.920    560.026    560.026
117.070   4992.821   4870.259    122.562    560.338   4853.714    576.237    560.338    560.338
117.170   5136.000   5269.775   -133.775    560.657   5252.247    577.531    560.657    560.657
117.270   5787.453   5664.874    122.579    560.981   5646.413    578.790    560.981    560.981
117.370   6003.000   6047.480    -44.480    561.312   6028.155    580.001    561.312    561.312
117.470   6322.528   6408.903    -86.376    561.649   6388.795    581.151    561.649    561.649
117.570   6745.000   6740.070      4.930    561.992   6719.272    582.227    561.992    561.992
117.670   7275.000   7031.839    243.161    562.341   7010.459    583.216    562.341    562.341
117.770   7120.178   7275.427   -155.249    562.697   7253.585    584.106    562.697    562.697
117.870   7466.000   7462.928      3.072    563.059   7440.753    584.884    563.059    563.059
117.970   7516.000   7587.902    -71.902    563.428   7565.533    585.542    563.428    563.428
118.070   7495.000   7645.945   -150.945    563.803   7623.523    586.071    563.803    563.803
118.170   7541.000   7635.120    -94.120    564.185   7612.786    586.468    564.185    564.185
118.270   7593.000   7556.167     36.833    564.573   7534.059    586.734    564.573    564.573
118.370   7520.000   7412.415    107.585    564.968   7390.659    586.874    564.968    564.968
118.470   7363.564   7209.429    154.135    565.370   7188.141    586.895    565.370    565.370
118.570   6879.000   6954.484    -75.484    565.778   6933.769    586.808    565.778    565.778
118.670   6621.000   6655.973    -34.973    566.193   6635.919    586.625    566.193    566.193
118.770   6111.000   6322.843   -211.843    566.615   6303.526    586.359    566.615    566.615
118.870   5884.224   5964.133    -79.909    567.043   5945.615    586.023    567.043    567.043
118.970   5502.000   5588.604    -86.604    567.479   5570.935    585.631    567.479    567.479
119.070   5196.670   5204.475     -7.805    567.921   5187.692    585.197    567.921    567.921
119.170   4709.304   4819.232   -109.928    568.370   4803.358    584.735    568.370    568.370
119.270   4475.000   4439.492     35.508    568.826   4424.538    584.258    568.826    568.826
119.370   4181.679   4070.918    110.761    569.289   4056.882    583.781    569.289    569.289
119.470   3790.000   3718.167     71.833    569.760   3705.038    583.317    569.760    569.760
119.570   3314.327   3384.889    -70.562    570.237   3372.643    582.877    570.237    570.237
119.670   3028.010   3073.747    -45.737    570.721   3062.352    582.474    570.721    570.721
119.770   2749.500   2786.484    -36.984    571.213   2775.898    582.116    571.213    571.213
119.870   2563.887   2524.005     39.882    571.712   2514.182    581.814    571.712    571.712
119.970   2402.000   2286.492    115.508    572.218   2277.377    581.573    572.218    572.218
120.070   2079.000   2073.515      5.485    572.731   2065.049    581.400    572.731    572.731
120.170   1831.000   1884.156    -53.156    573.252   1876.276    581.299    573.252    573.252
120.270   1731.847   1717.120     14.727    573.780   1709.763    581.273    573.780    573.780
120.370   1582.000   1570.849     11.151    574.315   1563.946    581.326    574.315    574.315
120.470   1480.000   1443.610     36.390    574.858   1437.093    581.459    574.858    574.858
120.570   1421.000   1333.586     87.414    575.408   1327.383    581.673    575.408    575.408
120.670   1200.191   1238.942    -38.750    575.966   1232.984    581.969    575.966    575.966
120.770   1194.000   1157.891     36.109    576.532   1152.106    582.347    576.532    576.532
120.870   1129.373   1088.734     40.639    577.105   1083.051    582.809    577.105    577.105
120.970   1061.199   1029.900     31.298    577.686   1024.245    583.353    577.686    577.686
121.070    975.965    979.961     -3.997    578.275    974.260    583.981    578.275    578.275
121.170    969.396    937.646     31.750    578.871    931.825    584.693    578.871    578.871
121.270    918.000    901.842     16.158    579.475    895.826    585.489    579.475    579.475
121.370    874.000    871.589      2.411    580.087    865.300    586.372    580.087    580.087
121.470    830.000    846.067    -16.067    580.707    839.427    587.343    580.707    580.707
121.570    857.615    824.586     33.030    581.335    817.514    588.403    581.335    581.335
121.670    783.000    806.569    -23.569    581.971    798.983    589.553    581.971    581.971
121.770    743.171    791.537    -48.366    582.614    783.353    590.797    582.614    582.614
121.870    747.000    779.094    -32.094    583.266    770.224    592.136    583.266    583.266
121.970    801.000    768.913     32.087    583.926    759.268    593.573    583.926    583.926
122.070    714.000    760.724    -46.724    584.594    750.213    595.109    584.594    584.594
122.170    776.042    754.302     21.740    585.271    742.832    596.745    585.271    585.271
122.270    761.781    749.460     12.321    585.955    736.938    598.483    585.955    585.955
122.370    699.000    746.038    -47.038    586.648    732.370    600.323    586.648    586.648
122.470    711.000    743.899    -32.899    587.349    728.991    602.266    587.349    587.349
122.570    699.000    742.922    -43.922    588.059    726.681    604.310    588.059    588.059
122.670    776.000    743.000     33.000    588.777    725.335    606.454    588.777    588.777
122.770    772.921    744.030     28.891    589.503    724.852    608.695    589.503    589.503
122.870    727.000    745.917    -18.917    590.238    725.143    611.028    590.238    590.238
122.970    717.000    748.565    -31.565    590.982    726.120    613.446    590.982    590.982
123.070    770.202    751.880     18.322    591.734    727.695    615.940    591.734    591.734
123.170    704.740    755.762    -51.022    592.495    729.782    618.497    592.495    592.495
123.270    717.484    760.108    -42.625    593.264    732.294    621.104    593.264    593.264
123.370    811.735    764.811     46.924    594.042    735.142    623.740    594.042    594.042
123.470    699.000    769.755    -70.755    594.829    738.231    626.385    594.829    594.829
123.570    753.431    774.819    -21.389    595.625    741.466    629.014    595.625    595.625
123.670    801.000    779.877     21.123    596.430    744.748    631.597    596.430    596.430
123.770    786.690    784.795      1.895    597.243    747.975    634.105    597.243    597.243
123.870    826.419    789.437     36.982    598.066    751.042    636.506    598.066    598.066
123.970    771.000    793.665    -22.665    598.897    753.847    638.764    598.897    598.897
124.070    846.011    797.344     48.667    599.738    756.288    640.847    599.738    599.738
124.170    811.000    800.343     10.657    600.588    758.266    642.720    600.588    600.588
124.270    867.000    802.532     64.468    601.446    759.682    644.355    601.446    601.446
124.370    816.843    803.817     13.025    602.314    760.467    645.726    602.314    602.314
124.470    869.000    804.167     64.833    603.192    760.605    646.817    603.192    603.192
124.570    817.792    803.516     14.276    604.078    760.043    647.617    604.078    604.078
124.670    855.000    801.852     53.148    604.974    758.768    648.125    604.974    604.974
124.770    785.000    799.199    -14.199    605.880    756.799    648.348    605.880    605.880
124.870    766.876    795.615    -28.739    606.794    754.174    648.304    606.794    606.794
124.970    813.780    791.180     22.600    607.718    750.951    648.016    607.718    607.718
