neutron_powder_diffraction_0083
R_wp: 4.317
Temperature (K): 808.568
Counts: 83114.00
Wavelength (Ã…): 2.52098
COMMENTS
Test file for demonstrating the .xyy file format in Reel1.0
END OF HEADER
   tth       Y_obs     Y_calc      Y_res    Background    Phase_1_Nuc    Phase_1_Mag    Phase_2_Nuc    Phase_2_Mag
  9.970    633.000    574.452     58.548    573.319    574.451    573.319    573.319    573.319
 10.070    592.347    575.089     17.258    573.865    575.089    573.865    573.865    573.865
 10.170    586.000    575.729     10.271    574.400    575.728    574.400    574.400    574.400
 10.270    669.000    576.375     92.625    574.923    576.375    574.923    574.923    574.923
 10.370    611.000    577.026     33.974    575.436    577.026    575.436    575.436    575.436
 10.470    576.901    577.689     -0.788    575.937    577.688    575.937    575.937    575.937
 10.570    573.311    578.369     -5.058    576.427    578.368    576.427    576.427    576.427
 10.670    589.346    579.073     10.273    576.906    579.071    576.906    576.906    576.906
 10.770    617.000    579.810     37.190    577.375    579.809    577.375    577.375    577.375
 10.870    602.000    580.593     21.407    577.833    580.592    577.833    577.833    577.833
 10.970    530.706    581.439    -50.733    578.280    581.438    578.280    578.280    578.280
 11.070    547.574    582.372    -34.799    578.716    582.370    578.716    578.716    578.716
 11.170    605.000    583.436     21.564    579.142    583.434    579.142    579.142    579.142
 11.270    632.834    584.764     48.070    579.557    584.761    579.557    579.557    579.557
 11.370    585.516    586.309     -0.793    579.963    586.306    579.963    579.963    579.963
 11.470    620.000    588.236     31.764    580.358    588.232    580.358    580.358    580.358
 11.570    616.166    591.000     25.166    580.742    590.994    580.742    580.742    580.742
 11.670    649.000    595.556     53.444    581.117    595.548    581.117    581.117    581.117
 11.770    613.000    603.811      9.189    581.482    603.799    581.482    581.482    581.482
 11.870    675.000    618.664     56.336    581.836    618.643    581.836    581.836    581.836
 11.970    631.000    642.801    -11.801    582.181    642.768    582.181    582.181    582.181
 12.070    718.000    675.720     42.280    582.516    675.668    582.516    582.516    582.516
 12.170    714.000    709.280      4.720    582.842    709.210    582.842    582.842    582.842
 12.270    717.000    725.624     -8.624    583.158    725.545    583.158    583.158    583.158
 12.370    670.893    712.132    -41.239    583.464    712.061    583.464    583.464    583.464
 12.470    660.000    680.020    -20.020    583.761    679.966    583.761    583.761    583.761
 12.570    615.000    647.315    -32.315    584.048    647.280    584.048    584.048    584.048
 12.670    587.284    622.971    -35.687    584.327    622.949    584.327    584.327    584.327
 12.770    558.000    608.005    -50.005    584.596    607.992    584.596    584.596    584.596
 12.870    615.000    599.895     15.105    584.856    599.887    584.856    584.856    584.856
 12.970    557.000    595.711    -38.711    585.106    595.706    585.106    585.106    585.106
 13.070    593.000    593.467     -0.467    585.348    593.463    585.348    585.348    585.348
 13.170    585.000    592.134     -7.134    585.581    592.131    585.581    585.581    585.581
 13.270    540.702    591.250    -50.548    585.805    591.247    585.805    585.805    585.805
 13.370    599.000    590.638      8.362    586.021    590.635    586.021    586.021    586.021
 13.470    538.000    590.206    -52.206    586.228    590.204    586.228    586.228    586.228
 13.570    599.000    589.902      9.098    586.426    589.900    586.426    586.426    586.426
 13.670    572.000    589.689    -17.689    586.615    589.688    586.615    586.615    586.615
 13.770    601.000    589.544     11.456    586.797    589.543    586.797    586.797    586.797
 13.870    590.858    589.450      1.408    586.970    589.449    586.970    586.970    586.970
 13.970    614.000    589.395     24.605    587.134    589.394    587.134    587.134    587.134
 14.070    572.000    589.364    -17.364    587.290    589.363    587.290    587.290    587.290
 14.170    585.000    589.354     -4.354    587.439    589.353    587.439    587.439    587.439
 14.270    567.797    589.358    -21.561    587.579    589.357    587.579    587.579    587.579
 14.370    550.000    589.374    -39.374    587.711    589.373    587.711    587.711    587.711
 14.470    551.000    589.398    -38.398    587.835    589.397    587.835    587.835    587.835
 14.570    555.000    589.427    -34.427    587.952    589.426    587.952    587.952    587.952
 14.670    574.000    589.459    -15.459    588.060    589.458    588.060    588.060    588.060
 14.770    561.000    589.493    -28.493    588.161    589.492    588.161    588.161    588.161
 14.870    593.000    589.527      3.473    588.254    589.527    588.254    588.254    588.254
 14.970    635.305    589.568     45.738    588.340    589.567    588.340    588.340    588.340
 15.070    557.000    589.667    -32.667    588.418    589.667    588.418    588.418    588.418
 15.170    568.000    589.715    -21.715    588.489    589.715    588.489    588.489    588.489
 15.270    566.000    589.743    -23.743    588.552    589.743    588.552    588.552    588.552
 15.370    582.000    589.767     -7.767    588.608    589.767    588.608    588.608    588.608
 15.470    573.043    589.787    -16.745    588.657    589.787    588.657    588.657    588.657
 15.570    567.000    589.804    -22.804    588.699    589.804    588.699    588.699    588.699
 15.670    559.000    589.822    -30.822    588.734    589.821    588.734    588.734    588.734
 15.770    567.000    589.832    -22.832    588.761    589.832    588.761    588.761    588.761
 15.870    569.473    589.844    -20.371    588.782    589.844    588.782    588.782    588.782
 15.970    574.000    589.847    -15.847    588.796    589.847    588.796    588.796    588.796
 16.070    534.000    589.840    -55.840    588.803    589.840    588.803    588.803    588.803
 16.170    546.000    589.828    -43.828    588.804    589.827    588.804    588.804    588.804
 16.270    604.174    589.810     14.364    588.797    589.810    588.797    588.797    588.797
 16.370    579.783    589.787    -10.005    588.784    589.787    588.784    588.784    588.784
 16.470    593.000    589.765      3.235    588.765    589.764    588.765    588.765    588.765
 16.570    620.000    589.788     30.212    588.739    589.788    588.739    588.739    588.739
 16.670    538.000    589.760    -51.760    588.707    589.760    588.707    588.707    588.707
 16.770    569.935    589.718    -19.782    588.668    589.717    588.668    588.668    588.668
 16.870    589.832    589.677      0.155    588.623    589.677    588.623    588.623    588.623
 16.970    553.314    589.651    -36.337    588.572    589.651    588.572    588.572    588.572
 17.070    638.000    589.601     48.399    588.515    589.601    588.515    588.515    588.515
 17.170    585.657    589.536     -3.879    588.451    589.536    588.451    588.451    588.451
 17.270    589.000    589.466     -0.466    588.382    589.466    588.382    588.382    588.382
 17.370    542.000    589.391    -47.391    588.307    589.390    588.307    588.307    588.307
 17.470    578.092    589.310    -11.218    588.225    589.310    588.225    588.225    588.225
 17.570    562.000    589.224    -27.224    588.138    589.224    588.138    588.138    588.138
 17.670    579.657    589.133     -9.476    588.045    589.132    588.045    588.045    588.045
 17.770    616.715    589.038     27.676    587.947    589.038    587.947    587.947    587.947
 17.870    617.059    588.958     28.101    587.843    588.958    587.843    587.843    587.843
 17.970    629.971    588.865     41.106    587.733    588.865    587.733    587.733    587.733
 18.070    543.000    588.762    -45.762    587.618    588.762    587.618    587.618    587.618
 18.170    564.000    588.687    -24.687    587.497    588.687    587.497    587.497    587.497
 18.270    640.194    588.588     51.606    587.371    588.588    587.371    587.371    587.371
 18.370    557.000    588.478    -31.478    587.240    588.478    587.240    587.240    587.240
 18.470    581.000    588.404     -7.404    587.103    588.404    587.103    587.103    587.103
 18.570    547.872    588.275    -40.403    586.961    588.275    586.961    586.961    586.961
 18.670    593.000    588.136      4.864    586.814    588.136    586.814    586.814    586.814
 18.770    568.000    588.001    -20.001    586.662    588.001    586.662    586.662    586.662
 18.870    587.000    587.877     -0.877    586.505    587.877    586.505    586.505    586.505
 18.970    618.000    587.762     30.238    586.343    587.762    586.343    586.343    586.343
 19.070    550.944    587.630    -36.686    586.176    587.630    586.176    586.176    586.176
 19.170    532.000    587.472    -55.472    586.004    587.472    586.004    586.004    586.004
 19.270    538.886    587.307    -48.421    585.827    587.307    585.827    585.827    585.827
 19.370    545.000    587.137    -42.137    585.646    587.137    585.646    585.646    585.646
 19.470    549.000    586.964    -37.964    585.459    586.964    585.459    585.459    585.459
 19.570    575.000    586.793    -11.793    585.269    586.793    585.269    585.269    585.269
 19.670    566.000    586.615    -20.615    585.073    586.615    585.073    585.073    585.073
 19.770    590.000    586.431      3.569    584.873    586.431    584.873    584.873    584.873
 19.870    637.862    586.245     51.617    584.669    586.245    584.669    584.669    584.669
 19.970    568.257    586.057    -17.800    584.460    586.057    584.460    584.460    584.460
 20.070    562.000    585.865    -23.865    584.247    585.865    584.247    584.247    584.247
 20.170    563.000    585.668    -22.668    584.030    585.668    584.030    584.030    584.030
 20.270    610.450    585.465     24.984    583.808    585.465    583.808    583.808    583.808
 20.370    586.682    585.260      1.422    583.583    585.260    583.583    583.583    583.583
 20.470    576.000    585.051     -9.051    583.353    585.051    583.353    583.353    583.353
 20.570    636.069    584.839     51.231    583.119    584.839    583.119    583.119    583.119
 20.670    596.000    584.623     11.377    582.881    584.623    582.881    582.881    582.881
 20.770    561.000    584.409    -23.409    582.639    584.409    582.639    582.639    582.639
 20.870    598.000    584.188     13.812    582.393    584.188    582.393    582.393    582.393
 20.970    541.000    583.964    -42.964    582.143    583.964    582.143    582.143    582.143
 21.070    606.000    583.738     22.262    581.889    583.738    581.889    581.889    581.889
 21.170    580.000    583.510     -3.510    581.632    583.510    581.632    581.632    581.632
 21.270    614.930    583.279     31.650    581.371    583.280    581.371    581.371    581.371
 21.370    529.716    583.047    -53.331    581.106    583.047    581.106    581.106    581.106
 21.470    542.000    582.813    -40.813    580.838    582.813    580.838    580.838    580.838
 21.570    568.000    582.578    -14.578    580.566    582.578    580.566    580.566    580.566
 21.670    606.000    582.342     23.658    580.291    582.342    580.291    580.291    580.291
 21.770    580.638    582.105     -1.467    580.012    582.105    580.012    580.012    580.012
 21.870    562.000    581.867    -19.867    579.730    581.867    579.730    579.730    579.730
 21.970    578.000    581.630     -3.630    579.444    581.630    579.444    579.444    579.444
 22.070    571.000    581.392    -10.392    579.156    581.392    579.156    579.156    579.156
 22.170    606.000    581.156     24.844    578.863    581.156    578.863    578.863    578.863
 22.270    600.000    580.922     19.078    578.568    580.922    578.568    578.568    578.568
 22.370    560.000    580.691    -20.691    578.270    580.691    578.270    578.270    578.270
 22.470    564.000    580.461    -16.461    577.968    580.462    577.968    577.968    577.968
 22.570    567.000    580.236    -13.236    577.664    580.236    577.664    577.664    577.664
 22.670    580.000    580.016     -0.016    577.356    580.016    577.356    577.356    577.356
 22.770    577.000    579.803     -2.803    577.045    579.803    577.045    577.045    577.045
 22.870    552.629    579.598    -26.969    576.732    579.599    576.732    576.732    576.732
 22.970    583.000    579.404      3.596    576.416    579.405    576.416    576.416    576.416
 23.070    632.884    579.224     53.660    576.097    579.224    576.097    576.097    576.097
 23.170    562.000    579.061    -17.061    575.775    579.062    575.775    575.775    575.775
 23.270    579.735    578.919      0.816    575.450    578.920    575.450    575.450    575.450
 23.370    585.588    578.804      6.784    575.123    578.805    575.123    575.123    575.123
 23.470    585.000    578.726      6.274    574.793    578.727    574.793    574.793    574.793
 23.570    558.000    578.693    -20.693    574.460    578.694    574.460    574.460    574.460
 23.670    545.317    578.722    -33.406    574.125    578.724    574.125    574.125    574.125
 23.770    577.455    578.834     -1.379    573.788    578.836    573.788    573.788    573.788
 23.870    601.000    579.061     21.939    573.448    579.063    573.448    573.448    573.448
 23.970    582.000    579.457      2.543    573.105    579.459    573.105    573.105    573.105
 24.070    538.666    580.128    -41.461    572.760    580.131    572.760    572.760    572.760
 24.170    600.000    581.311     18.689    572.413    581.316    572.413    572.413    572.413
 24.270    561.000    583.546    -22.546    572.064    583.552    572.064    572.064    572.064
 24.370    615.773    587.903     27.870    571.712    587.912    571.712    571.712    571.712
 24.470    604.000    596.042      7.958    571.358    596.057    571.358    571.358    571.358
 24.570    637.000    609.640     27.360    571.003    609.666    571.003    571.003    571.003
 24.670    663.000    628.929     34.071    570.645    628.969    570.645    570.645    570.645
 24.770    661.000    650.269     10.731    570.284    650.324    570.284    570.284    570.284
 24.870    694.000    664.470     29.530    569.922    664.536    569.922    569.922    569.922
 24.970    605.866    662.307    -56.441    569.558    662.372    569.558    569.558    569.558
 25.070    666.000    645.269     20.731    569.192    645.322    569.192    569.192    569.192
 25.170    626.000    623.351      2.649    568.824    623.388    568.824    568.824    568.824
 25.270    612.000    604.588      7.412    568.455    604.611    568.455    568.455    568.455
 25.370    630.492    591.651     38.840    568.083    591.666    568.083    568.083    568.083
 25.470    577.000    583.884     -6.884    567.710    583.893    567.710    567.710    567.710
 25.570    608.000    579.537     28.463    567.335    579.542    567.335    567.335    567.335
 25.670    561.742    577.065    -15.323    566.958    577.069    566.958    566.958    566.958
 25.770    576.973    575.525      1.449    566.579    575.528    566.579    566.579    566.579
 25.870    625.186    574.454     50.732    566.199    574.456    566.199    566.199    566.199
 25.970    618.000    573.652     44.348    565.818    573.654    565.818    565.818    565.818
 26.070    569.408    573.031     -3.622    565.435    573.032    565.435    565.435    565.435
 26.170    639.000    572.546     66.454    565.050    572.547    565.050    565.050    565.050
 26.270    604.000    572.175     31.825    564.664    572.176    564.664    564.664    564.664
 26.370    607.000    571.904     35.096    564.277    571.905    564.277    564.277    564.277
 26.470    609.000    571.728     37.272    563.888    571.728    563.888    563.888    563.888
 26.570    517.002    571.648    -54.645    563.498    571.648    563.498    563.498    563.498
 26.670    605.000    571.669     33.331    563.106    571.669    563.106    563.106    563.106
 26.770    605.807    571.804     34.002    562.713    571.804    562.713    562.713    562.713
 26.870    622.520    572.073     50.447    562.319    572.073    562.319    562.319    562.319
 26.970    643.000    572.503     70.497    561.924    572.502    561.924    561.924    561.924
 27.070    594.000    573.134     20.866    561.528    573.132    561.528    561.528    561.528
 27.170    630.000    574.022     55.978    561.131    574.021    561.131    561.131    561.131
 27.270    630.000    575.252     54.748    560.732    575.250    560.732    560.732    560.732
 27.370    557.491    576.952    -19.460    560.332    576.949    560.332    560.332    560.332
 27.470    601.000    579.356     21.644    559.932    579.352    559.932    559.932    559.932
 27.570    601.000    582.979     18.021    559.530    582.975    559.530    559.530    559.530
 27.670    623.000    589.114     33.886    559.128    589.107    559.128    559.128    559.128
 27.770    648.000    600.828     47.172    558.725    600.817    558.725    558.725    558.725
 27.870    590.669    624.121    -33.451    558.320    624.101    558.320    558.320    558.320
 27.970    701.043    667.463     33.579    557.915    667.428    557.915    557.915    557.915
 28.070    764.000    737.026     26.974    557.509    736.972    557.509    557.509    557.509
 28.170    878.000    826.958     51.042    557.103    826.885    557.103    557.103    557.103
 28.270    914.000    909.449      4.551    556.695    909.371    556.695    556.695    556.695
 28.370    943.000    940.490      2.510    556.287    940.422    556.287    556.287    556.287
 28.470    956.000    902.200     53.800    555.878    902.152    555.878    555.878    555.878
 28.570    871.000    832.886     38.114    555.469    832.852    555.469    555.469    555.469
 28.670    758.000    781.203    -23.203    555.059    781.177    555.059    555.059    555.059
 28.770    788.000    769.834     18.166    554.648    769.809    554.648    554.648    554.648
 28.870    745.703    794.125    -48.422    554.237    794.102    554.237    554.237    554.237
 28.970    839.000    827.973     11.027    553.826    827.958    553.826    553.826    553.826
 29.070    895.725    835.576     60.149    553.414    835.572    553.414    553.414    553.414
 29.170    856.000    799.687     56.313    553.001    799.691    553.001    553.001    553.001
 29.270    755.000    738.712     16.288    552.588    738.719    552.588    552.588    552.588
 29.370    738.000    679.083     58.917    552.175    679.088    552.175    552.175    552.175
 29.470    689.000    634.014     54.986    551.761    634.017    551.761    551.761    551.761
 29.570    590.596    605.131    -14.534    551.347    605.131    551.347    551.347    551.347
 29.670    596.000    588.510      7.490    550.933    588.510    550.933    550.933    550.933
 29.770    552.122    579.298    -27.175    550.519    579.296    550.519    550.519    550.519
 29.870    616.000    573.963     42.037    550.104    573.961    550.104    550.104    550.104
 29.970    656.000    570.585     85.415    549.689    570.583    549.689    549.689    549.689
 30.070    642.000    568.303     73.697    549.274    568.300    549.274    549.274    549.274
 30.170    635.000    566.794     68.206    548.859    566.791    548.859    548.859    548.859
 30.270    642.000    566.019     75.981    548.443    566.015    548.443    548.443    548.443
 30.370    614.071    566.186     47.885    548.028    566.181    548.028    548.028    548.028
 30.470    605.000    567.832     37.168    547.612    567.824    547.612    547.612    547.612
 30.570    598.000    571.852     26.148    547.197    571.840    547.197    547.197    547.197
 30.670    641.000    579.278     61.722    546.781    579.260    546.781    546.781    546.781
 30.770    659.000    590.636     68.364    546.366    590.610    546.366    546.366    546.366
 30.870    549.856    604.878    -55.022    545.950    604.843    545.950    545.950    545.950
 30.970    683.000    618.056     64.944    545.535    618.013    545.535    545.535    545.535
 31.070    644.621    623.332     21.289    545.120    623.288    545.120    545.120    545.120
 31.170    653.000    616.629     36.371    544.705    616.591    544.705    544.705    544.705
 31.270    580.000    602.162    -22.162    544.290    602.133    544.290    544.290    544.290
 31.370    534.979    586.750    -51.771    543.875    586.730    543.875    543.875    543.875
 31.470    592.000    574.246     17.754    543.461    574.233    543.461    543.461    543.461
 31.570    618.000    565.619     52.381    543.046    565.610    543.046    543.046    543.046
 31.670    572.000    560.290     11.710    542.632    560.284    542.632    542.632    542.632
 31.770    616.000    557.190     58.810    542.219    557.186    542.219    542.219    542.219
 31.870    517.697    555.386    -37.689    541.805    555.382    541.805    541.805    541.805
 31.970    513.644    554.286    -40.642    541.392    554.283    541.392    541.392    541.392
 32.070    595.000    553.589     41.411    540.980    553.586    540.980    540.980    540.980
 32.170    569.000    553.160     15.840    540.568    553.158    540.568    540.568    540.568
 32.270    557.000    552.946      4.054    540.156    552.944    540.156    540.156    540.156
 32.370    607.000    552.930     54.070    539.744    552.928    539.744    539.744    539.744
 32.470    533.000    553.115    -20.115    539.333    553.113    539.333    539.333    539.333
 32.570    566.000    553.517     12.483    538.923    553.515    538.923    538.923    538.923
 32.670    537.578    554.169    -16.591    538.513    554.167    538.513    538.513    538.513
 32.770    539.375    555.119    -15.744    538.104    555.117    538.104    538.104    538.104
 32.870    573.000    556.438     16.562    537.695    556.436    537.695    537.695    537.695
 32.970    576.000    558.230     17.770    537.287    558.228    537.287    537.287    537.287
 33.070    618.000    560.661     57.339    536.879    560.658    536.879    536.879    536.879
 33.170    641.000    564.014     76.986    536.472    564.011    536.472    536.472    536.472
 33.270    572.635    568.847      3.787    536.066    568.844    536.066    536.066    536.066
 33.370    573.000    576.318     -3.318    535.660    576.313    535.660    535.660    535.660
 33.470    589.000    588.724      0.276    535.255    588.717    535.255    535.255    535.255
 33.570    587.000    610.095    -23.095    534.851    610.085    534.851    534.851    534.851
 33.670    651.038    646.226      4.812    534.448    646.210    534.448    534.448    534.448
 33.770    698.000    703.224     -5.224    534.045    703.200    534.045    534.045    534.045
 33.870    741.000    783.951    -42.951    533.643    783.916    533.643    533.643    533.643
 33.970    937.218    882.334     54.884    533.242    882.288    533.242    533.242    533.242
 34.070   1025.004    976.115     48.888    532.842    976.064    532.842    532.842    532.842
 34.170   1040.452   1026.194     14.258    532.442   1026.150    532.442    532.442    532.442
 34.270    956.000   1003.753    -47.753    532.044   1003.725    532.044    532.044    532.044
 34.370    883.216    922.887    -39.671    531.646    922.876    531.646    531.646    531.646
 34.470    769.000    822.441    -53.441    531.249    822.439    531.249    531.249    531.249
 34.570    732.000    732.154     -0.154    530.854    732.156    530.854    530.854    530.854
 34.670    617.823    664.213    -46.390    530.459    664.216    530.459    530.459    530.459
 34.770    594.000    618.889    -24.889    530.065    618.890    530.065    530.065    530.065
 34.870    602.000    590.988     11.012    529.672    590.988    529.672    529.672    529.672
 34.970    581.000    574.355      6.645    529.280    574.355    529.280    529.280    529.280
 35.070    533.796    564.177    -30.381    528.889    564.176    528.889    528.889    528.889
 35.170    551.000    557.472     -6.472    528.499    557.471    528.499    528.499    528.499
 35.270    511.000    552.658    -41.658    528.110    552.657    528.110    528.110    528.110
 35.370    535.000    548.961    -13.961    527.722    548.960    527.722    527.722    527.722
 35.470    564.253    545.994     18.259    527.336    545.994    527.336    527.336    527.336
 35.570    539.291    543.549     -4.258    526.950    543.548    526.950    526.950    526.950
 35.670    573.979    541.493     32.486    526.566    541.492    526.566    526.566    526.566
 35.770    506.000    539.737    -33.737    526.183    539.736    526.183    526.183    526.183
 35.870    524.903    538.217    -13.314    525.801    538.217    525.801    525.801    525.801
 35.970    486.000    536.886    -50.886    525.420    536.885    525.420    525.420    525.420
 36.070    480.000    535.707    -55.707    525.040    535.707    525.040    525.040    525.040
 36.170    495.834    534.655    -38.821    524.661    534.655    524.661    524.661    524.661
 36.270    575.897    533.708     42.189    524.284    533.708    524.284    524.284    524.284
 36.370    493.000    532.851    -39.851    523.908    532.851    523.908    523.908    523.908
 36.470    510.000    532.073    -22.073    523.533    532.073    523.533    523.533    523.533
 36.570    493.844    531.365    -37.521    523.160    531.365    523.160    523.160    523.160
 36.670    530.668    530.722     -0.054    522.788    530.722    522.788    522.788    522.788
 36.770    491.000    530.144    -39.144    522.417    530.144    522.417    522.417    522.417
 36.870    506.000    529.634    -23.634    522.047    529.634    522.047    522.047    522.047
 36.970    502.608    529.209    -26.601    521.679    529.210    521.679    521.679    521.679
 37.070    569.000    528.912     40.088    521.312    528.912    521.312    521.312    521.312
 37.170    532.000    528.831      3.169    520.947    528.831    520.947    520.947    520.947
 37.270    520.000    529.129     -9.129    520.583    529.130    520.583    520.583    520.583
 37.370    546.350    530.038     16.311    520.220    530.039    520.220    520.220    520.220
 37.470    527.622    531.789     -4.167    519.859    531.790    519.859    519.859    519.859
 37.570    523.000    534.453    -11.453    519.499    534.455    519.499    519.499    519.499
 37.670    504.000    537.720    -33.720    519.141    537.723    519.141    519.141    519.141
 37.770    577.171    540.665     36.506    518.784    540.670    518.784    518.784    518.784
 37.870    551.000    541.858      9.142    518.428    541.865    518.428    518.428    518.428
 37.970    558.342    540.488     17.854    518.074    540.496    518.074    518.074    518.074
 38.070    587.375    537.312     50.063    517.722    537.322    517.722    517.722    517.722
 38.170    512.000    533.598    -21.598    517.371    533.609    517.371    517.371    517.371
 38.270    512.000    530.132    -18.132    517.021    530.142    517.021    517.021    517.021
 38.370    498.000    527.274    -29.274    516.673    527.282    516.673    516.673    516.673
 38.470    477.000    525.111    -48.111    516.327    525.118    516.327    516.327    516.327
 38.570    516.925    523.548     -6.623    515.982    523.552    515.982    515.982    515.982
 38.670    504.513    522.414    -17.901    515.639    522.417    515.639    515.639    515.639
 38.770    508.000    521.572    -13.572    515.297    521.574    515.297    515.297    515.297
 38.870    529.000    520.912      8.088    514.957    520.913    514.957    514.957    514.957
 38.970    516.000    520.365     -4.365    514.619    520.366    514.619    514.619    514.619
 39.070    482.730    519.890    -37.160    514.282    519.891    514.282    514.282    514.282
 39.170    481.915    519.460    -37.546    513.947    519.461    513.947    513.947    513.947
 39.270    499.000    519.064    -20.064    513.613    519.064    513.613    513.613    513.613
 39.370    556.130    518.691     37.439    513.281    518.692    513.281    513.281    513.281
 39.470    544.000    518.338     25.662    512.951    518.339    512.951    512.951    512.951
 39.570    510.000    518.002     -8.002    512.622    518.003    512.622    512.622    512.622
 39.670    507.000    517.682    -10.682    512.295    517.683    512.295    512.295    512.295
 39.770    557.643    517.376     40.267    511.970    517.377    511.970    511.970    511.970
 39.870    475.676    517.084    -41.408    511.646    517.084    511.646    511.646    511.646
 39.970    531.743    516.805     14.938    511.324    516.805    511.324    511.324    511.324
 40.070    563.956    516.540     47.417    511.004    516.540    511.004    511.004    511.004
 40.170    538.000    516.288     21.712    510.686    516.289    510.686    510.686    510.686
 40.270    551.656    516.052     35.604    510.369    516.052    510.369    510.369    510.369
 40.370    482.000    515.830    -33.830    510.054    515.831    510.054    510.054    510.054
 40.470    471.000    515.626    -44.626    509.741    515.627    509.741    509.741    509.741
 40.570    485.000    515.441    -30.441    509.429    515.442    509.429    509.429    509.429
 40.670    465.000    515.276    -50.276    509.120    515.277    509.120    509.120    509.120
 40.770    514.000    515.136     -1.136    508.812    515.136    508.812    508.812    508.812
 40.870    516.000    515.022      0.978    508.506    515.023    508.506    508.506    508.506
 40.970    493.000    514.941    -21.941    508.202    514.942    508.202    508.202    508.202
 41.070    487.000    514.897    -27.897    507.899    514.898    507.899    507.899    507.899
 41.170    505.000    514.899     -9.899    507.598    514.900    507.598    507.598    507.598
 41.270    487.000    514.955    -27.955    507.300    514.957    507.300    507.300    507.300
 41.370    492.262    515.080    -22.818    507.003    515.082    507.003    507.003    507.003
 41.470    554.310    515.291     39.019    506.707    515.293    506.707    506.707    506.707
 41.570    535.898    515.614     20.284    506.414    515.616    506.414    506.414    506.414
 41.670    487.585    516.091    -28.506    506.122    516.094    506.122    506.122    506.122
 41.770    491.000    516.798    -25.798    505.833    516.801    505.833    505.833    505.833
 41.870    479.000    517.880    -38.880    505.545    517.884    505.545    505.545    505.545
 41.970    517.478    519.614     -2.136    505.259    519.618    505.259    505.259    505.259
 42.070    506.000    522.495    -16.495    504.975    522.500    504.975    504.975    504.975
 42.170    535.164    527.308      7.855    504.693    527.316    504.693    504.693    504.693
 42.270    519.000    535.097    -16.097    504.413    535.109    504.413    504.413    504.413
 42.370    550.851    546.926      3.925    504.134    546.943    504.134    504.134    504.134
 42.470    502.000    563.376    -61.376    503.858    563.401    503.858    503.858    503.858
 42.570    529.000    583.810    -54.810    503.583    583.847    503.583    503.583    503.583
 42.670    624.634    605.466     19.168    503.311    605.514    503.311    503.311    503.311
 42.770    630.511    622.738      7.773    503.040    622.797    503.040    503.040    503.040
 42.870    640.013    628.573     11.440    502.771    628.638    502.771    502.771    502.771
 42.970    588.000    619.819    -31.819    502.504    619.882    502.504    502.504    502.504
 43.070    591.000    600.724     -9.724    502.239    600.777    502.239    502.239    502.239
 43.170    560.000    578.487    -18.487    501.976    578.529    501.976    501.976    501.976
 43.270    518.000    558.237    -40.237    501.715    558.267    501.715    501.715    501.715
 43.370    527.299    542.256    -14.957    501.456    542.277    501.456    501.456    501.456
 43.470    549.000    530.873     18.127    501.199    530.887    501.199    501.199    501.199
 43.570    510.000    523.356    -13.356    500.943    523.366    500.943    500.943    500.943
 43.670    566.751    518.610     48.141    500.690    518.617    500.690    500.690    500.690
 43.770    507.000    515.624     -8.624    500.439    515.629    500.439    500.439    500.439
 43.870    506.278    513.669     -7.391    500.189    513.673    500.189    500.189    500.189
 43.970    507.000    512.299     -5.299    499.942    512.302    499.942    499.942    499.942
 44.070    530.000    511.268     18.732    499.696    511.271    499.696    499.696    499.696
 44.170    497.475    510.451    -12.976    499.453    510.453    499.453    499.453    499.453
 44.270    511.000    509.782      1.218    499.211    509.784    499.211    499.211    499.211
 44.370    556.458    509.223     47.235    498.972    509.224    498.972    498.972    498.972
 44.470    495.593    508.750    -13.157    498.734    508.751    498.734    498.734    498.734
 44.570    506.000    508.348     -2.348    498.499    508.349    498.499    498.499    498.499
 44.670    520.000    508.004     11.996    498.265    508.005    498.265    498.265    498.265
 44.770    521.000    507.710     13.290    498.033    507.711    498.033    498.033    498.033
 44.870    534.540    507.460     27.081    497.804    507.460    497.804    497.804    497.804
 44.970    512.000    507.247      4.753    497.576    507.248    497.576    497.576    497.576
 45.070    510.000    507.070      2.930    497.351    507.070    497.351    497.351    497.351
 45.170    536.000    506.925     29.075    497.127    506.925    497.127    497.127    497.127
 45.270    456.751    506.810    -50.059    496.905    506.810    496.905    496.905    496.905
 45.370    523.861    506.724     17.136    496.686    506.725    496.686    496.686    496.686
 45.470    466.000    506.668    -40.668    496.468    506.668    496.468    496.468    496.468
 45.570    513.000    506.640      6.360    496.252    506.640    496.252    496.252    496.252
 45.670    515.069    506.642      8.427    496.039    506.642    496.039    496.039    496.039
 45.770    531.633    506.675     24.958    495.827    506.675    495.827    495.827    495.827
 45.870    475.000    506.740    -31.740    495.618    506.740    495.618    495.618    495.618
 45.970    496.717    506.840    -10.122    495.410    506.839    495.410    495.410    495.410
 46.070    531.000    506.977     24.023    495.204    506.977    495.204    495.204    495.204
 46.170    497.484    507.157     -9.672    495.001    507.156    495.001    495.001    495.001
 46.270    524.632    507.383     17.249    494.799    507.382    494.799    494.799    494.799
 46.370    497.406    507.662    -10.256    494.600    507.661    494.600    494.600    494.600
 46.470    487.022    508.003    -20.981    494.402    508.002    494.402    494.402    494.402
 46.570    525.000    508.416     16.584    494.207    508.415    494.207    494.207    494.207
 46.670    514.000    508.916      5.084    494.013    508.914    494.013    494.013    494.013
 46.770    558.832    509.525     49.307    493.822    509.523    493.822    493.822    493.822
 46.870    549.130    510.281     38.849    493.632    510.279    493.632    493.632    493.632
 46.970    486.684    511.250    -24.567    493.444    511.248    493.444    493.444    493.444
 47.070    491.000    512.557    -21.557    493.259    512.553    493.259    493.259    493.259
 47.170    509.000    514.418     -5.418    493.075    514.413    493.075    493.075    493.075
 47.270    530.964    517.190     13.774    492.894    517.183    492.894    492.894    492.894
 47.370    531.020    521.379      9.640    492.714    521.370    492.714    492.714    492.714
 47.470    496.000    527.588    -31.588    492.537    527.575    492.537    492.537    492.537
 47.570    584.000    536.347     47.653    492.361    536.327    492.361    492.361    492.361
 47.670    496.736    547.836    -51.099    492.188    547.808    492.188    492.188    492.188
 47.770    567.000    561.527      5.473    492.016    561.490    492.016    492.016    492.016
 47.870    616.000    575.773     40.227    491.847    575.727    491.847    491.847    491.847
 47.970    627.814    587.495     40.318    491.679    587.443    491.679    491.679    491.679
 48.070    604.000    592.885     11.115    491.514    592.831    491.514    491.514    491.514
 48.170    584.000    590.055     -6.055    491.350    590.005    491.350    491.350    491.350
 48.270    529.000    580.956    -51.956    491.189    580.914    491.189    491.189    491.189
 48.370    590.000    569.459     20.541    491.029    569.426    491.029    491.029    491.029
 48.470    592.000    558.705     33.295    490.872    558.681    490.872    490.872    490.872
 48.570    602.260    550.415     51.846    490.716    550.397    490.716    490.716    490.716
 48.670    534.000    545.201    -11.201    490.562    545.189    490.562    490.562    490.562
 48.770    542.000    542.994     -0.994    490.411    542.986    490.411    490.411    490.411
 48.870    556.000    543.407     12.593    490.261    543.401    490.261    490.261    490.261
 48.970    562.000    546.034     15.966    490.113    546.029    490.113    490.113    490.113
 49.070    541.000    550.666     -9.666    489.968    550.661    489.968    489.968    489.968
 49.170    566.000    557.468      8.532    489.824    557.464    489.824    489.824    489.824
 49.270    520.566    567.258    -46.692    489.682    567.253    489.682    489.682    489.682
 49.370    585.000    582.082      2.918    489.542    582.076    489.542    489.542    489.542
 49.470    628.000    606.292     21.708    489.404    606.281    489.404    489.404    489.404
 49.570    596.000    648.032    -52.032    489.269    648.015    489.269    489.269    489.269
 49.670    743.287    720.454     22.834    489.135    720.425    489.135    489.135    489.135
 49.770    822.881    841.053    -18.173    489.003    841.005    489.003    489.003    489.003
 49.870   1070.386   1027.218     43.167    488.872   1027.145    488.872    488.872    488.872
 49.970   1326.903   1287.256     39.648    488.744   1287.154    488.744    488.744    488.744
 50.070   1559.806   1608.788    -48.981    488.618   1608.665    488.618    488.618    488.618
 50.170   1943.438   1948.195     -4.757    488.494   1948.070    488.494    488.494    488.494
 50.270   2265.000   2226.258     38.742    488.371   2226.165    488.371    488.371    488.371
 50.370   2387.000   2346.791     40.209    488.251   2346.771    488.251    488.251    488.251
 50.470   2234.213   2258.045    -23.832    488.132   2258.116    488.132    488.132    488.132
 50.570   1974.000   2000.942    -26.942    488.016   2001.081    488.016    488.016    488.016
 50.670   1674.000   1669.558      4.442    487.901   1669.724    487.901    487.901    487.901
 50.770   1209.000   1347.650   -138.650    487.788   1347.809    487.788    487.788    487.788
 50.870   1144.050   1084.536     59.514    487.677   1084.669    487.677    487.677    487.677
 50.970    812.000    896.800    -84.800    487.568    896.903    487.568    487.568    487.568
 51.070    730.000    777.943    -47.943    487.461    778.021    487.461    487.461    487.461
 51.170    671.000    709.817    -38.817    487.356    709.879    487.356    487.356    487.356
 51.270    630.000    672.130    -42.130    487.252    672.181    487.252    487.252    487.252
 51.370    668.856    648.396     20.460    487.151    648.441    487.151    487.151    487.151
 51.470    580.396    628.875    -48.479    487.051    628.913    487.051    487.051    487.051
 51.570    626.000    610.380     15.620    486.953    610.411    486.953    486.953    486.953
 51.670    583.000    593.287    -10.287    486.857    593.311    486.857    486.857    486.857
 51.770    598.000    578.679     19.321    486.763    578.698    486.763    486.763    486.763
 51.870    564.000    567.219     -3.219    486.671    567.232    486.671    486.671    486.671
 51.970    591.000    558.999     32.001    486.580    559.009    486.580    486.580    486.580
 52.070    578.000    553.691     24.309    486.492    553.699    486.492    486.492    486.492
 52.170    554.000    550.784      3.216    486.405    550.790    486.405    486.405    486.405
 52.270    586.616    549.808     36.808    486.320    549.812    486.320    486.320    486.320
 52.370    585.000    550.485     34.515    486.237    550.489    486.237    486.237    486.237
 52.470    503.802    552.829    -49.028    486.155    552.833    486.155    486.155    486.155
 52.570    585.000    557.245     27.755    486.076    557.248    486.076    486.076    486.076
 52.670    576.000    564.681     11.319    485.998    564.684    485.998    485.998    485.998
 52.770    603.000    576.849     26.151    485.922    576.852    485.922    485.922    485.922
 52.870    610.000    596.404     13.596    485.848    596.407    485.848    485.848    485.848
 52.970    645.074    626.933     18.141    485.775    626.935    485.775    485.775    485.775
 53.070    714.000    672.494     41.506    485.704    672.495    485.704    485.704    485.704
 53.170    728.000    736.549     -8.549    485.635    736.551    485.635    485.635    485.635
 53.270    830.496    820.313     10.183    485.568    820.316    485.568    485.568    485.568
 53.370    853.379    920.724    -67.345    485.503    920.731    485.503    485.503    485.503
 53.470   1042.000   1028.162     13.838    485.439   1028.176    485.439    485.439    485.439
 53.570   1143.421   1124.748     18.673    485.377   1124.771    485.377    485.377    485.377
 53.670   1156.000   1186.226    -30.226    485.317   1186.260    485.317    485.317    485.317
 53.770   1218.000   1192.269     25.731    485.258   1192.313    485.258    485.258    485.258
 53.870   1133.758   1140.680     -6.922    485.201   1140.730    485.201    485.201    485.201
 53.970   1038.000   1049.343    -11.343    485.146   1049.391    485.146    485.146    485.146
 54.070    904.000    943.029    -39.029    485.093    943.072    485.093    485.093    485.093
 54.170    780.000    841.209    -61.209    485.041    841.244    485.041    485.041    485.041
 54.270    812.232    754.912     57.320    484.991    754.938    484.991    484.991    484.991
 54.370    645.000    688.227    -43.227    484.942    688.247    484.942    484.942    484.942
 54.470    657.000    640.554     16.446    484.896    640.568    484.896    484.896    484.896
 54.570    624.000    608.694     15.306    484.850    608.705    484.850    484.850    484.850
 54.670    598.000    588.597      9.403    484.807    588.605    484.807    484.807    484.807
 54.770    570.020    576.541     -6.521    484.765    576.547    484.765    484.765    484.765
 54.870    597.663    569.689     27.974    484.725    569.694    484.725    484.725    484.725
 54.970    593.000    566.160     26.840    484.686    566.164    484.686    484.686    484.686
 55.070    585.576    564.842     20.734    484.649    564.846    484.649    484.649    484.649
 55.170    594.000    565.152     28.848    484.613    565.156    484.613    484.613    484.613
 55.270    607.998    566.827     41.171    484.580    566.830    484.580    484.580    484.580
 55.370    567.000    569.801     -2.801    484.547    569.804    484.547    484.547    484.547
 55.470    598.000    574.146     23.854    484.517    574.149    484.517    484.517    484.517
 55.570    562.000    580.081    -18.081    484.487    580.084    484.487    484.487    484.487
 55.670    622.000    588.043     33.957    484.460    588.046    484.460    484.460    484.460
 55.770    573.000    598.859    -25.859    484.434    598.862    484.434    484.434    484.434
 55.870    618.000    614.066      3.934    484.409    614.068    484.409    484.409    484.409
 55.970    635.000    636.393     -1.393    484.386    636.395    484.386    484.386    484.386
 56.070    666.000    670.387     -4.387    484.365    670.387    484.365    484.365    484.365
 56.170    737.345    722.961     14.385    484.345    722.957    484.345    484.345    484.345
 56.270    779.290    803.469    -24.180    484.326    803.461    484.326    484.326    484.326
 56.370    886.371    922.774    -36.404    484.309    922.761    484.309    484.309    484.309
 56.470   1150.157   1090.846     59.311    484.294   1090.828    484.294    484.294    484.294
 56.570   1227.000   1312.914    -85.914    484.280   1312.894    484.280    484.280    484.280
 56.670   1563.534   1584.735    -21.201    484.267   1584.720    484.267    484.267    484.267
 56.770   1867.322   1887.593    -20.271    484.256   1887.593    484.256    484.256    484.256
 56.870   2104.000   2183.785    -79.785    484.246   2183.817    484.246    484.246    484.246
 56.970   2344.000   2415.825    -71.825    484.238   2415.906    484.238    484.238    484.238
 57.070   2479.141   2520.402    -41.261    484.231   2520.547    484.231    484.231    484.231
 57.170   2496.000   2463.193     32.807    484.226   2463.399    484.226    484.226    484.226
 57.270   2238.985   2264.739    -25.754    484.222   2264.982    484.222    484.222    484.222
 57.370   1889.024   1983.761    -94.737    484.219   1984.008    484.219    484.219    484.219
 57.470   1693.000   1681.266     11.734    484.218   1681.490    484.218    484.218    484.218
 57.570   1335.000   1400.929    -65.929    484.218   1401.117    484.218    484.218    484.218
 57.670   1103.000   1166.814    -63.814    484.219   1166.961    484.219    484.219    484.219
 57.770   1025.000    987.257     37.743    484.222    987.365    484.222    484.222    484.222
 57.870    832.000    859.864    -27.864    484.226    859.939    484.226    484.226    484.226
 57.970    737.363    776.527    -39.164    484.232    776.575    484.232    484.232    484.232
 58.070    722.000    727.735     -5.735    484.238    727.764    484.238    484.238    484.238
 58.170    728.000    705.477     22.523    484.246    705.491    484.246    484.246    484.246
 58.270    752.000    704.485     47.515    484.256    704.487    484.256    484.256    484.256
 58.370    664.398    722.082    -57.684    484.266    722.073    484.266    484.266    484.266
 58.470    810.411    757.160     53.251    484.278    757.141    484.278    484.278    484.278
 58.570    851.000    808.764     42.236    484.292    808.736    484.292    484.292    484.292
 58.670    926.746    874.607     52.139    484.306    874.574    484.306    484.306    484.306
 58.770   1017.000    949.848     67.152    484.322    949.813    484.322    484.322    484.322
 58.870   1077.000   1027.031     49.969    484.339   1027.000    484.339    484.339    484.339
 58.970   1104.000   1098.132      5.868    484.357   1098.111    484.357    484.357    484.357
 59.070   1235.000   1156.922     78.078    484.376   1156.913    484.376    484.376    484.376
 59.170   1259.516   1198.448     61.068    484.397   1198.452    484.397    484.397    484.397
 59.270   1171.101   1217.752    -46.651    484.418   1217.768    484.418    484.418    484.418
 59.370   1304.000   1212.943     91.057    484.441   1212.966    484.441    484.441    484.441
 59.470   1216.833   1189.864     26.968    484.465   1189.884    484.465    484.465    484.465
 59.570   1092.026   1160.849    -68.823    484.490   1160.853    484.490    484.490    484.490
 59.670   1197.000   1138.601     58.399    484.517   1138.576    484.517    484.517    484.517
 59.770   1114.226   1132.301    -18.075    484.544   1132.241    484.544    484.544    484.544
 59.870   1157.236   1148.091      9.144    484.573   1147.990    484.573    484.573    484.573
 59.970   1252.000   1190.072     61.928    484.602   1189.926    484.602    484.602    484.602
 60.070   1316.000   1258.394     57.606    484.633   1258.203    484.633    484.633    484.633
 60.170   1394.000   1345.831     48.169    484.665   1345.599    484.665    484.665    484.665
 60.270   1461.000   1435.708     25.292    484.698   1435.447    484.698    484.698    484.698
 60.370   1519.655   1502.860     16.795    484.732   1502.593    484.732    484.732    484.732
 60.470   1528.303   1520.694      7.608    484.767   1520.447    484.767    484.767    484.767
 60.570   1521.000   1475.230     45.770    484.803   1475.027    484.803    484.803    484.803
 60.670   1389.107   1374.439     14.668    484.840   1374.288    484.840    484.840    484.840
 60.770   1240.000   1241.421     -1.421    484.878   1241.318    484.878    484.878    484.878
 60.870   1189.000   1100.753     88.247    484.918   1100.688    484.918    484.918    484.918
 60.970   1016.000    970.905     45.095    484.958    970.866    484.958    484.958    484.958
 61.070    880.044    862.952     17.092    484.999    862.928    484.999    484.999    484.999
 61.170    778.000    781.748     -3.748    485.041    781.730    485.041    485.041    485.041
 61.270    722.830    727.824     -4.994    485.084    727.805    485.084    485.084    485.084
 61.370    666.000    699.528    -33.528    485.128    699.505    485.128    485.128    485.128
 61.470    733.317    694.939     38.378    485.173    694.907    485.173    485.173    485.173
 61.570    712.134    713.045     -0.911    485.218    713.001    485.218    485.218    485.218
 61.670    726.000    753.921    -27.921    485.265    753.861    485.265    485.265    485.265
 61.770    862.627    817.927     44.699    485.313    817.847    485.313    485.313    485.313
 61.870    884.000    904.247    -20.247    485.361    904.145    485.361    485.361    485.361
 61.970    985.981   1009.170    -23.189    485.410   1009.046    485.410    485.410    485.410
 62.070   1150.908   1124.493     26.414    485.461   1124.349    485.461    485.461    485.461
 62.170   1247.845   1236.316     11.529    485.512   1236.161    485.512    485.512    485.512
 62.270   1261.000   1325.221    -64.221    485.564   1325.070    485.564    485.564    485.564
 62.370   1452.540   1370.406     82.134    485.616   1370.274    485.616    485.616    485.616
 62.470   1371.460   1358.973     12.487    485.670   1358.873    485.670    485.670    485.670
 62.570   1290.000   1293.878     -3.878    485.724   1293.812    485.724    485.724    485.724
 62.670   1175.787   1191.779    -15.992    485.779   1191.742    485.779    485.779    485.779
 62.770   1006.445   1073.526    -67.081    485.835   1073.510    485.835    485.835    485.835
 62.870    947.000    956.573     -9.573    485.891    956.569    485.891    485.891    485.891
 62.970    790.024    852.444    -62.420    485.949    852.447    485.949    485.949    485.949
 63.070    736.148    767.039    -30.891    486.007    767.043    486.007    486.007    486.007
 63.170    689.000    701.793    -12.793    486.066    701.795    486.066    486.066    486.066
 63.270    635.677    655.105    -19.428    486.125    655.105    486.125    486.125    486.125
 63.370    670.257    623.796     46.461    486.185    623.793    486.185    486.185    486.185
 63.470    607.000    604.359      2.641    486.246    604.353    486.246    486.246    486.246
 63.570    626.596    593.826     32.770    486.308    593.817    486.308    486.308    486.308
 63.670    596.000    590.220      5.780    486.370    590.209    486.370    486.370    486.370
 63.770    548.904    592.672    -43.768    486.433    592.657    486.433    486.433    486.433
 63.870    612.000    601.312     10.688    486.496    601.292    486.496    486.496    486.496
 63.970    660.000    617.018     42.982    486.560    616.991    486.560    486.560    486.560
 64.070    679.709    641.063     38.647    486.625    641.026    486.625    486.625    486.625
 64.170    713.000    674.641     38.359    486.690    674.592    486.690    486.690    486.690
 64.270    695.000    718.323    -23.323    486.756    718.260    486.756    486.756    486.756
 64.370    787.000    771.449     15.551    486.822    771.370    486.822    486.822    486.822
 64.470    805.838    831.518    -25.681    486.889    831.425    486.889    486.889    486.889
 64.570    945.057    893.650     51.407    486.957    893.544    486.957    486.957    486.957
 64.670    907.394    950.433    -43.040    487.025    950.321    487.025    487.025    487.025
 64.770    983.678    992.951     -9.273    487.094    992.839    487.094    487.094    487.094
 64.870    997.000   1013.555    -16.555    487.163   1013.454    487.163    487.163    487.163
 64.970   1053.000   1009.093     43.907    487.232   1009.009    487.232    487.232    487.232
 65.070    995.000    982.038     12.962    487.302    981.976    487.302    487.302    487.302
 65.170    907.000    938.973    -31.973    487.373    938.934    487.373    487.373    487.373
 65.270    861.000    887.960    -26.960    487.444    887.942    487.444    487.444    487.444
 65.370    821.000    836.113    -15.113    487.515    836.113    487.515    487.515    487.515
 65.470    775.000    788.116    -13.116    487.587    788.129    487.587    487.587    487.587
 65.570    724.212    745.976    -21.764    487.659    745.999    487.659    487.659    487.659
 65.670    671.497    709.782    -38.285    487.732    709.810    487.732    487.732    487.732
 65.770    724.133    678.914     45.219    487.804    678.943    487.804    487.804    487.804
 65.870    592.000    652.969    -60.969    487.878    652.995    487.878    487.878    487.878
 65.970    595.000    631.755    -36.755    487.952    631.776    487.952    487.952    487.952
 66.070    625.000    615.043      9.957    488.026    615.060    488.026    488.026    488.026
 66.170    559.000    602.479    -43.479    488.100    602.491    488.100    488.100    488.100
 66.270    592.000    593.630     -1.630    488.175    593.638    488.175    488.175    488.175
 66.370    541.000    588.072    -47.072    488.250    588.078    488.250    488.250    488.250
 66.470    559.958    585.434    -25.476    488.325    585.438    488.325    488.325    488.325
 66.570    541.000    585.443    -44.443    488.401    585.446    488.401    488.401    488.401
 66.670    600.000    587.985     12.015    488.477    587.988    488.477    488.477    488.477
 66.770    549.515    593.208    -43.693    488.553    593.212    488.553    488.553    488.553
 66.870    614.000    601.668     12.332    488.629    601.671    488.629    488.629    488.629
 66.970    571.612    614.514    -42.902    488.706    614.518    488.706    488.706    488.706
 67.070    636.000    633.719      2.281    488.782    633.723    488.782    488.782    488.782
 67.170    685.103    662.301     22.802    488.859    662.304    488.859    488.859    488.859
 67.270    694.000    704.457    -10.457    488.937    704.458    488.937    488.937    488.937
 67.370    709.000    765.478    -56.478    489.014    765.478    489.014    489.014    489.014
 67.470    822.000    851.285    -29.285    489.092    851.285    489.092    489.092    489.092
 67.570    886.000    967.480    -81.480    489.169    967.483    489.169    489.169    489.169
 67.670   1062.000   1117.918    -55.918    489.247   1117.929    489.247    489.247    489.247
 67.770   1269.000   1302.955    -33.955    489.325   1302.981    489.325    489.325    489.325
 67.870   1458.000   1517.627    -59.627    489.403   1517.679    489.403    489.403    489.403
 67.970   1829.458   1749.981     79.478    489.481   1750.069    489.481    489.481    489.481
 68.070   1963.000   1979.740    -16.740    489.560   1979.879    489.560    489.560    489.560
 68.170   2203.000   2178.103     24.897    489.638   2178.304    489.638    489.638    489.638
 68.270   2327.000   2311.194     15.806    489.716   2311.462    489.716    489.716    489.716
 68.370   2327.000   2350.273    -23.273    489.795   2350.598    489.795    489.795    489.795
 68.470   2301.000   2285.722     15.278    489.873   2286.082    489.873    489.873    489.873
 68.570   2205.000   2132.923     72.077    489.952   2133.287    489.952    489.952    489.952
 68.670   2021.000   1923.396     97.604    490.030   1923.739    490.030    490.030    490.030
 68.770   1714.000   1690.608     23.392    490.109   1690.913    490.109    490.109    490.109
 68.870   1483.000   1461.379     21.621    490.187   1461.637    490.187    490.187    490.187
 68.970   1203.120   1253.750    -50.631    490.266   1253.959    490.266    490.266    490.266
 69.070   1078.000   1077.710      0.290    490.344   1077.872    490.344    490.344    490.344
 69.170    929.000    936.665     -7.665    490.422    936.787    490.422    490.422    490.422
 69.270    841.969    829.163     12.806    490.501    829.253    490.501    490.501    490.501
 69.370    766.766    750.718     16.047    490.579    750.783    490.579    490.579    490.579
 69.470    706.000    695.499     10.501    490.657    695.546    490.657    490.657    490.657
 69.570    654.000    657.643     -3.643    490.735    657.677    490.735    490.735    490.735
 69.670    607.000    632.073    -25.073    490.813    632.098    490.813    490.813    490.813
 69.770    600.000    614.843    -14.843    490.890    614.862    490.890    490.890    490.890
 69.870    616.000    603.137     12.863    490.968    603.152    490.968    490.968    490.968
 69.970    637.000    595.090     41.910    491.045    595.101    491.045    491.045    491.045
 70.070    544.189    589.538    -45.349    491.123    589.547    491.123    491.123    491.123
 70.170    533.000    585.800    -52.800    491.200    585.808    491.200    491.200    491.200
 70.270    602.000    583.506     18.494    491.277    583.511    491.277    491.277    491.277
 70.370    532.186    582.489    -50.303    491.353    582.492    491.353    491.353    491.353
 70.470    587.000    582.739      4.261    491.430    582.741    491.430    491.430    491.430
 70.570    592.000    584.396      7.604    491.506    584.396    491.506    491.506    491.506
 70.670    614.560    587.788     26.772    491.582    587.787    491.582    491.582    491.582
 70.770    588.000    593.510     -5.510    491.658    593.506    491.658    491.658    491.658
 70.870    578.000    602.522    -24.522    491.733    602.515    491.733    491.733    491.733
 70.970    613.000    616.283     -3.283    491.808    616.272    491.808    491.808    491.808
 71.070    584.682    636.850    -52.168    491.883    636.833    491.883    491.883    491.883
 71.170    650.000    666.917    -16.917    491.958    666.892    491.958    491.958    491.958
 71.270    708.000    709.722     -1.722    492.032    709.686    492.032    492.032    492.032
 71.370    738.000    768.744    -30.744    492.106    768.694    492.106    492.106    492.106
 71.470    860.000    847.166     12.834    492.179    847.098    492.179    492.179    492.179
 71.570    886.515    947.111    -60.596    492.252    947.024    492.252    492.252    492.252
 71.670   1060.000   1068.742     -8.742    492.325   1068.632    492.325    492.325    492.325
 71.770   1251.000   1209.331     41.669    492.397   1209.200    492.397    492.397    492.397
 71.870   1276.000   1362.415    -86.415    492.469   1362.265    492.469    492.469    492.469
 71.970   1494.000   1517.087    -23.087    492.541   1516.924    492.541    492.541    492.541
 72.070   1581.462   1657.728    -76.266    492.612   1657.562    492.612    492.612    492.612
 72.170   1684.316   1765.138    -80.822    492.683   1764.981    492.683    492.683    492.683
 72.270   1852.490   1820.637     31.853    492.753   1820.503    492.753    492.753    492.753
 72.370   1820.645   1812.957      7.688    492.823   1812.855    492.823    492.823    492.823
 72.470   1773.000   1743.688     29.312    492.892   1743.621    492.892    492.892    492.892
 72.570   1586.117   1626.402    -40.285    492.961   1626.365    492.961    492.961    492.961
 72.670   1615.000   1480.357    134.643    493.030   1480.343    493.030    493.030    493.030
 72.770   1356.000   1324.107     31.893    493.098   1324.109    493.098    493.098    493.098
 72.870   1097.956   1172.205    -74.249    493.165   1172.216    493.165    493.165    493.165
 72.970   1029.534   1034.494     -4.960    493.232   1034.510    493.232    493.232    493.232
 73.070    997.000    916.518     80.482    493.298    916.535    493.298    493.298    493.298
 73.170    828.624    820.271      8.353    493.364    820.286    493.364    493.364    493.364
 73.270    805.000    745.077     59.923    493.429    745.089    493.429    493.429    493.429
 73.370    737.000    688.522     48.478    493.494    688.532    493.494    493.494    493.494
 73.470    611.076    647.331    -36.255    493.558    647.338    493.558    493.558    493.558
 73.570    663.000    618.080     44.920    493.621    618.085    493.621    493.621    493.621
 73.670    663.000    597.676     65.324    493.684    597.681    493.684    493.684    493.684
 73.770    629.383    583.609     45.774    493.746    583.614    493.746    493.746    493.746
 73.870    557.364    574.003    -16.639    493.808    574.009    493.808    493.808    493.808
 73.970    519.232    567.554    -48.321    493.868    567.561    493.868    493.868    493.868
 74.070    508.279    563.399    -55.120    493.929    563.410    493.929    493.929    493.929
 74.170    601.000    560.982     40.018    493.988    560.996    493.988    493.988    493.988
 74.270    558.368    559.922     -1.554    494.047    559.940    494.047    494.047    494.047
 74.370    594.000    559.920     34.080    494.105    559.944    494.105    494.105    494.105
 74.470    609.667    560.688     48.979    494.163    560.717    494.163    494.163    494.163
 74.570    604.000    561.898     42.102    494.219    561.933    494.219    494.219    494.219
 74.670    564.224    563.162      1.062    494.275    563.201    494.275    494.275    494.275
 74.770    619.000    564.040     54.960    494.331    564.083    494.331    494.331    494.331
 74.870    554.634    564.114     -9.479    494.385    564.160    494.385    494.385    494.385
 74.970    633.000    563.119     69.881    494.439    563.165    494.439    494.439    494.439
 75.070    594.000    561.063     32.937    494.492    561.107    494.492    494.492    494.492
 75.170    505.301    558.236    -52.935    494.544    558.276    494.544    494.544    494.544
 75.270    580.898    555.109     25.789    494.596    555.145    494.596    494.596    494.596
 75.370    505.552    552.216    -46.664    494.646    552.245    494.646    494.646    494.646
 75.470    609.000    550.080     58.920    494.696    550.102    494.696    494.696    494.696
 75.570    590.000    549.200     40.800    494.745    549.216    494.745    494.745    494.745
 75.670    577.866    550.055     27.812    494.793    550.064    494.793    494.793    494.793
 75.770    552.000    553.100     -1.100    494.841    553.102    494.841    494.841    494.841
 75.870    603.989    558.747     45.242    494.887    558.742    494.887    494.887    494.887
 75.970    579.584    567.323     12.261    494.933    567.311    494.933    494.933    494.933
 76.070    637.000    579.008     57.992    494.977    578.989    494.977    494.977    494.977
 76.170    640.000    593.758     46.242    495.021    593.732    495.021    495.021    495.021
 76.270    589.000    611.228    -22.228    495.064    611.194    495.064    495.064    495.064
 76.370    627.000    630.690     -3.690    495.106    630.648    495.106    495.106    495.106
 76.470    602.380    650.970    -48.591    495.147    650.921    495.147    495.147    495.147
 76.570    713.000    670.402     42.598    495.187    670.347    495.187    495.187    495.187
 76.670    774.000    686.859     87.141    495.226    686.800    495.226    495.226    495.226
 76.770    735.000    698.005     36.995    495.265    697.944    495.265    495.265    495.265
 76.870    742.929    701.886     41.042    495.302    701.828    495.302    495.302    495.302
 76.970    717.000    697.695     19.305    495.338    697.641    495.338    495.338    495.338
 77.070    678.000    686.152     -8.152    495.374    686.105    495.374    495.374    495.374
 77.170    680.000    669.150     10.850    495.408    669.111    495.408    495.408    495.408
 77.270    632.000    648.999    -16.999    495.441    648.968    495.441    495.441    495.441
 77.370    588.000    627.812    -39.812    495.474    627.787    495.474    495.474    495.474
 77.470    571.081    607.238    -36.157    495.505    607.219    495.505    495.505    495.505
 77.570    555.000    588.424    -33.424    495.535    588.410    495.535    495.535    495.535
 77.670    603.000    572.052     30.948    495.565    572.042    495.565    495.565    495.565
 77.770    577.000    558.411     18.589    495.593    558.404    495.593    495.593    495.593
 77.870    503.006    547.482    -44.476    495.620    547.477    495.620    495.620    495.620
 77.970    588.000    539.026     48.974    495.646    539.023    495.646    495.646    495.646
 78.070    561.000    532.681     28.319    495.671    532.678    495.671    495.671    495.671
 78.170    542.000    528.038     13.962    495.695    528.036    495.695    495.695    495.695
 78.270    509.000    524.703    -15.703    495.718    524.702    495.718    495.718    495.718
 78.370    480.998    522.333    -41.335    495.740    522.332    495.740    495.740    495.740
 78.470    504.000    520.664    -16.664    495.760    520.663    495.760    495.760    495.760
 78.570    532.000    519.488     12.512    495.780    519.487    495.780    495.780    495.780
 78.670    475.816    518.664    -42.848    495.798    518.663    495.798    495.798    495.798
 78.770    521.891    518.098      3.793    495.815    518.097    495.815    495.815    495.815
 78.870    466.000    517.735    -51.735    495.831    517.734    495.831    495.831    495.831
 78.970    501.000    517.547    -16.547    495.846    517.546    495.846    495.846    495.846
 79.070    550.000    517.524     32.476    495.860    517.523    495.860    495.860    495.860
 79.170    522.000    517.671      4.329    495.873    517.671    495.873    495.873    495.873
 79.270    476.337    518.007    -41.670    495.884    518.006    495.884    495.884    495.884
 79.370    537.000    518.556     18.444    495.894    518.555    495.894    495.894    495.894
 79.470    544.000    519.355     24.645    495.903    519.354    495.903    495.903    495.903
 79.570    557.000    520.450     36.550    495.911    520.448    495.911    495.911    495.911
 79.670    479.713    521.899    -42.186    495.918    521.897    495.918    495.918    495.918
 79.770    521.000    523.778     -2.778    495.923    523.776    495.923    495.923    495.923
 79.870    536.000    526.189      9.811    495.927    526.186    495.927    495.927    495.927
 79.970    532.092    529.262      2.830    495.930    529.258    495.930    495.930    495.930
 80.070    523.160    533.165    -10.004    495.932    533.161    495.932    495.932    495.932
 80.170    545.883    538.103      7.779    495.932    538.100    495.932    495.932    495.932
 80.270    552.754    544.321      8.433    495.931    544.317    495.931    495.931    495.931
 80.370    531.000    552.095    -21.095    495.929    552.092    495.929    495.929    495.929
 80.470    587.012    561.732     25.280    495.926    561.731    495.926    495.926    495.926
 80.570    571.000    573.536     -2.536    495.921    573.537    495.921    495.921    495.921
 80.670    615.503    587.743     27.760    495.915    587.747    495.915    495.915    495.915
 80.770    533.000    604.434    -71.434    495.908    604.441    495.908    495.908    495.908
 80.870    606.000    623.443    -17.443    495.899    623.455    495.899    495.899    495.899
 80.970    608.000    644.290    -36.290    495.889    644.307    495.889    495.889    495.889
 81.070    659.699    666.148     -6.449    495.878    666.171    495.878    495.878    495.878
 81.170    633.000    687.893    -54.893    495.866    687.923    495.866    495.866    495.866
 81.270    679.000    708.245    -29.245    495.852    708.282    495.852    495.852    495.852
 81.370    666.393    725.977    -59.584    495.837    726.021    495.837    495.837    495.837
 81.470    695.000    740.078    -45.078    495.820    740.129    495.820    495.820    495.820
 81.570    758.000    749.827      8.173    495.802    749.885    495.802    495.802    495.802
 81.670    750.000    754.834     -4.834    495.783    754.898    495.783    495.783    495.783
 81.770    732.061    755.059    -22.998    495.762    755.128    495.762    495.762    495.762
 81.870    737.629    750.748    -13.119    495.740    750.821    495.740    495.740    495.740
 81.970    741.000    742.328     -1.328    495.717    742.403    495.717    495.717    495.717
 82.070    707.000    730.369    -23.369    495.692    730.446    495.692    495.692    495.692
 82.170    703.000    715.634    -12.634    495.666    715.710    495.666    495.666    495.666
 82.270    750.342    699.055     51.287    495.639    699.129    495.639    495.639    495.639
 82.370    627.000    681.578    -54.578    495.610    681.649    495.610    495.610    495.610
 82.470    618.897    663.968    -45.071    495.579    664.036    495.579    495.579    495.579
 82.570    639.000    646.731     -7.731    495.548    646.794    495.548    495.548    495.548
 82.670    622.179    630.181     -8.002    495.514    630.239    495.514    495.514    495.514
 82.770    597.926    614.581    -16.655    495.480    614.632    495.480    495.480    495.480
 82.870    579.000    600.223    -21.223    495.444    600.267    495.444    495.444    495.444
 82.970    574.000    587.428    -13.428    495.406    587.465    495.406    495.406    495.406
 83.070    574.000    576.485     -2.485    495.368    576.514    495.368    495.368    495.368
 83.170    576.444    567.608      8.835    495.327    567.629    495.327    495.327    495.327
 83.270    574.000    560.917     13.083    495.286    560.930    495.286    495.286    495.286
 83.370    557.677    556.438      1.239    495.242    556.442    495.242    495.242    495.242
 83.470    581.000    554.104     26.896    495.198    554.101    495.198    495.198    495.198
 83.570    544.000    553.759     -9.759    495.152    553.748    495.152    495.152    495.152
 83.670    548.649    555.149     -6.501    495.104    555.130    495.104    495.104    495.104
 83.770    547.000    557.926    -10.926    495.055    557.899    495.055    495.055    495.055
 83.870    529.000    561.646    -32.646    495.004    561.612    495.004    495.004    495.004
 83.970    563.000    565.779     -2.779    494.952    565.739    494.952    494.952    494.952
 84.070    577.988    569.721      8.266    494.899    569.677    494.899    494.899    494.899
 84.170    539.000    572.830    -33.830    494.844    572.783    494.844    494.844    494.844
 84.270    604.670    574.473     30.197    494.787    574.424    494.787    494.787    494.787
 84.370    563.000    574.335    -11.335    494.729    574.287    494.729    494.729    494.729
 84.470    543.000    572.251    -29.251    494.670    572.206    494.670    494.670    494.670
 84.570    538.000    568.397    -30.397    494.609    568.355    494.609    494.609    494.609
 84.670    557.000    563.187     -6.187    494.547    563.150    494.547    494.547    494.547
 84.770    517.903    557.132    -39.229    494.483    557.099    494.483    494.483    494.483
 84.870    537.000    550.726    -13.726    494.417    550.699    494.417    494.417    494.417
 84.970    579.841    544.391     35.450    494.350    544.368    494.350    494.350    494.350
 85.070    524.000    538.448    -14.448    494.282    538.429    494.282    494.282    494.282
 85.170    493.317    533.122    -39.805    494.212    533.106    494.212    494.212    494.212
 85.270    561.000    528.544     32.456    494.140    528.531    494.140    494.140    494.140
 85.370    497.000    524.768    -27.768    494.067    524.757    494.067    494.067    494.067
 85.470    524.000    521.783      2.217    493.992    521.774    493.992    493.992    493.992
 85.570    517.271    519.537     -2.266    493.916    519.529    493.916    493.916    493.916
 85.670    533.291    517.957     15.334    493.839    517.949    493.839    493.839    493.839
 85.770    531.012    516.961     14.050    493.760    516.954    493.760    493.760    493.760
 85.870    517.000    516.482      0.518    493.679    516.475    493.679    493.679    493.679
 85.970    486.000    516.470    -30.470    493.597    516.462    493.597    493.597    493.597
 86.070    530.000    516.912     13.088    493.513    516.902    493.513    493.513    493.513
 86.170    543.000    517.818     25.182    493.427    517.807    493.427    493.427    493.427
 86.270    544.502    519.235     25.268    493.341    519.222    493.341    493.341    493.341
 86.370    485.140    521.236    -36.095    493.252    521.220    493.252    493.252    493.252
 86.470    499.070    523.919    -24.849    493.162    523.900    493.162    493.162    493.162
 86.570    560.420    527.397     33.023    493.071    527.374    493.071    493.071    493.071
 86.670    539.675    531.783      7.891    492.978    531.754    492.978    492.978    492.978
 86.770    528.000    537.177     -9.177    492.883    537.142    492.883    492.883    492.883
 86.870    513.246    543.647    -30.401    492.787    543.604    492.787    492.787    492.787
 86.970    536.000    551.203    -15.203    492.689    551.152    492.689    492.689    492.689
 87.070    571.000    559.781     11.219    492.590    559.720    492.590    492.590    492.590
 87.170    529.000    569.209    -40.209    492.489    569.138    492.489    492.489    492.489
 87.270    557.931    579.200    -21.269    492.387    579.119    492.387    492.387    492.387
 87.370    594.000    589.328      4.672    492.283    589.237    492.283    492.283    492.283
 87.470    600.000    599.034      0.966    492.178    598.935    492.178    492.178    492.178
 87.570    594.971    607.642    -12.671    492.071    607.536    492.071    492.071    492.071
 87.670    609.000    614.429     -5.429    491.962    614.320    491.962    491.962    491.962
 87.770    646.000    618.752     27.248    491.852    618.642    491.852    491.852    491.852
 87.870    665.781    620.216     45.565    491.740    620.110    491.740    491.740    491.740
 87.970    582.721    618.787    -36.066    491.627    618.688    491.627    491.627    491.627
 88.070    663.000    614.807     48.193    491.512    614.718    491.512    491.512    491.512
 88.170    597.804    608.889    -11.085    491.396    608.812    491.396    491.396    491.396
 88.270    625.000    601.778     23.222    491.278    601.713    491.278    491.278    491.278
 88.370    617.000    594.231     22.769    491.159    594.179    491.159    491.159    491.159
 88.470    607.000    586.956     20.044    491.038    586.916    491.038    491.038    491.038
 88.570    609.000    580.563     28.437    490.916    580.534    490.916    490.916    490.916
 88.670    605.706    575.531     30.176    490.792    575.513    490.792    490.792    490.792
 88.770    578.353    572.191      6.163    490.666    572.183    490.666    490.666    490.666
 88.870    568.000    570.712     -2.712    490.539    570.714    490.539    490.539    490.539
 88.970    602.536    571.101     31.435    490.410    571.112    490.410    490.410    490.410
 89.070    568.000    573.207     -5.207    490.280    573.227    490.280    490.280    490.280
 89.170    571.000    576.736     -5.736    490.149    576.764    490.149    490.149    490.149
 89.270    578.000    581.261     -3.261    490.015    581.297    490.015    490.015    490.015
 89.370    572.215    586.244    -14.029    489.881    586.287    489.881    489.881    489.881
 89.470    633.210    591.055     42.155    489.744    591.105    489.744    489.744    489.744
 89.570    631.000    595.021     35.979    489.607    595.077    489.607    489.607    489.607
 89.670    587.000    597.503    -10.503    489.467    597.564    489.467    489.467    489.467
 89.770    538.000    598.012    -60.012    489.327    598.075    489.327    489.327    489.327
 89.870    604.000    596.320      7.680    489.184    596.385    489.184    489.184    489.184
 89.970    590.000    592.516     -2.516    489.040    592.580    489.040    489.040    489.040
 90.070    598.000    586.948     11.052    488.895    587.009    488.895    488.895    488.895
 90.170    596.679    580.115     16.564    488.748    580.172    488.748    488.748    488.748
 90.270    539.000    572.549    -33.549    488.600    572.601    488.600    488.600    488.600
 90.370    559.000    564.736     -5.736    488.450    564.782    488.450    488.450    488.450
 90.470    541.000    557.085    -16.085    488.299    557.125    488.299    488.299    488.299
 90.570    533.000    549.910    -16.910    488.146    549.944    488.146    488.146    488.146
 90.670    540.000    543.437     -3.437    487.992    543.464    487.992    487.992    487.992
 90.770    548.520    537.804     10.717    487.836    537.826    487.836    487.836    487.836
 90.870    505.971    533.077    -27.106    487.679    533.095    487.679    487.679    487.679
 90.970    518.000    529.262    -11.262    487.520    529.276    487.520    487.520    487.520
 91.070    546.000    526.321     19.679    487.360    526.330    487.360    487.360    487.360
 91.170    504.000    524.187    -20.187    487.198    524.194    487.198    487.198    487.198
 91.270    522.053    522.787     -0.734    487.035    522.791    487.035    487.035    487.035
 91.370    524.935    522.050      2.885    486.871    522.053    486.871    486.871    486.871
 91.470    542.000    521.926     20.074    486.705    521.927    486.705    486.705    486.705
 91.570    505.000    522.388    -17.388    486.538    522.387    486.538    486.538    486.538
 91.670    501.128    523.442    -22.315    486.369    523.440    486.369    486.369    486.369
 91.770    572.969    525.131     47.837    486.199    525.127    486.199    486.199    486.199
 91.870    513.000    527.531    -14.531    486.027    527.525    486.027    486.027    486.027
 91.970    527.000    530.750     -3.750    485.854    530.742    485.854    485.854    485.854
 92.070    546.000    534.922     11.078    485.680    534.912    485.680    485.680    485.680
 92.170    548.000    540.202      7.798    485.504    540.189    485.504    485.504    485.504
 92.270    526.000    546.749    -20.749    485.326    546.731    485.326    485.326    485.326
 92.370    586.891    554.715     32.176    485.148    554.693    485.148    485.148    485.148
 92.470    524.000    564.230    -40.230    484.968    564.204    484.968    484.968    484.968
 92.570    556.000    575.386    -19.386    484.786    575.355    484.786    484.786    484.786
 92.670    554.545    588.218    -33.673    484.604    588.181    484.604    484.604    484.604
 92.770    589.000    602.689    -13.689    484.420    602.645    484.420    484.420    484.420
 92.870    626.836    618.675      8.161    484.234    618.625    484.234    484.234    484.234
 92.970    648.000    635.952     12.048    484.048    635.895    484.048    484.048    484.048
 93.070    671.000    654.183     16.817    483.859    654.120    483.859    483.859    483.859
 93.170    646.000    672.922    -26.922    483.670    672.854    483.670    483.670    483.670
 93.270    648.286    691.637    -43.351    483.479    691.564    483.479    483.479    483.479
 93.370    732.000    709.775     22.225    483.287    709.699    483.287    483.287    483.287
 93.470    679.022    726.867    -47.845    483.094    726.789    483.094    483.094    483.094
 93.570    752.971    742.633     10.338    482.899    742.555    482.899    482.899    482.899
 93.670    781.889    757.044     24.845    482.703    756.967    482.703    482.703    482.703
 93.770    768.000    770.287     -2.287    482.506    770.210    482.506    482.506    482.506
 93.870    812.000    782.651     29.349    482.308    782.576    482.308    482.308    482.308
 93.970    810.000    794.400     15.600    482.108    794.327    482.108    482.108    482.108
 94.070    825.066    805.696     19.370    481.907    805.625    481.907    481.907    481.907
 94.170    815.000    816.601     -1.601    481.705    816.533    481.705    481.705    481.705
 94.270    819.000    827.146     -8.146    481.502    827.081    481.502    481.502    481.502
 94.370    807.000    837.393    -30.393    481.297    837.331    481.297    481.297    481.297
 94.470    825.000    847.477    -22.477    481.091    847.418    481.091    481.091    481.091
 94.570    910.000    857.516     52.484    480.884    857.461    480.884    480.884    480.884
 94.670    808.757    867.431    -58.674    480.676    867.380    480.676    480.676    480.676
 94.770    886.982    876.877     10.105    480.467    876.830    480.467    480.467    480.467
 94.870    870.961    885.179    -14.218    480.257    885.139    480.257    480.257    480.257
 94.970    926.000    891.364     34.636    480.045    891.329    480.045    480.045    480.045
 95.070    908.339    894.282     14.057    479.832    894.254    479.832    479.832    479.832
 95.170    886.262    892.830     -6.568    479.618    892.811    479.618    479.618    479.618
 95.270    942.000    886.237     55.763    479.403    886.226    479.403    479.403    479.403
 95.370    889.000    874.316     14.684    479.187    874.313    479.187    479.187    479.187
 95.470    833.027    857.572    -24.545    478.970    857.574    478.970    478.970    478.970
 95.570    811.333    837.108    -25.776    478.752    837.115    478.752    478.752    478.752
 95.670    804.000    814.411    -10.411    478.533    814.421    478.533    478.533    478.533
 95.770    773.655    791.119    -17.464    478.312    791.130    478.312    478.312    478.312
 95.870    747.335    768.857    -21.522    478.091    768.868    478.091    478.091    478.091
 95.970    767.000    749.153     17.847    477.868    749.162    477.868    477.868    477.868
 96.070    766.000    733.390     32.610    477.645    733.396    477.645    477.645    477.645
 96.170    664.201    722.797    -58.596    477.421    722.799    477.421    477.421    477.421
 96.270    724.000    718.430      5.570    477.195    718.427    477.195    477.195    477.195
 96.370    747.379    721.169     26.210    476.969    721.159    476.969    476.969    476.969
 96.470    747.000    731.706     15.294    476.742    731.689    476.742    476.742    476.742
 96.570    750.908    750.531      0.378    476.513    750.506    476.513    476.513    476.513
 96.670    716.000    777.917    -61.917    476.284    777.885    476.284    476.284    476.284
 96.770    761.000    813.892    -52.892    476.054    813.852    476.054    476.054    476.054
 96.870    883.119    858.200     24.919    475.823    858.153    475.823    475.823    475.823
 96.970    924.000    910.263     13.737    475.591    910.209    475.591    475.591    475.591
 97.070    984.000    969.122     14.878    475.358    969.062    475.358    475.358    475.358
 97.170   1048.000   1033.398     14.602    475.125   1033.334    475.125    475.125    475.125
 97.270   1077.000   1101.242    -24.242    474.890   1101.175    474.890    474.890    474.890
 97.370   1131.000   1170.310    -39.310    474.655   1170.244    474.655    474.655    474.655
 97.470   1240.000   1237.762      2.238    474.419   1237.698    474.419    474.419    474.419
 97.570   1385.000   1300.312     84.688    474.182   1300.255    474.182    474.182    474.182
 97.670   1375.984   1354.397     21.587    473.945   1354.351    473.945    473.945    473.945
 97.770   1364.000   1396.497    -32.497    473.706   1396.465    473.706    473.706    473.706
 97.870   1348.907   1423.636    -74.729    473.467   1423.620    473.467    473.467    473.467
 97.970   1456.000   1433.914     22.086    473.227   1433.916    473.227    473.227    473.227
 98.070   1441.000   1426.901     14.099    472.987   1426.922    472.987    472.987    472.987
 98.170   1463.000   1403.710     59.290    472.745   1403.747    472.745    472.745    472.745
 98.270   1354.464   1366.707    -12.243    472.503   1366.757    472.503    472.503    472.503
 98.370   1295.000   1319.037    -24.037    472.261   1319.098    472.261    472.261    472.261
 98.470   1209.470   1264.155    -54.685    472.018   1264.223    472.018    472.018    472.018
 98.570   1162.735   1205.482    -42.747    471.774   1205.552    471.774    471.774    471.774
 98.670   1193.000   1146.194     46.806    471.529   1146.264    471.529    471.529    471.529
 98.770   1083.000   1089.123     -6.123    471.284   1089.189    471.284    471.284    471.284
 98.870    974.903   1036.722    -61.819    471.039   1036.783    471.039    471.039    471.039
 98.970    984.458    991.072     -6.614    470.793    991.127    470.793    470.793    470.793
 99.070    914.755    953.902    -39.147    470.546    953.949    470.546    470.546    470.546
 99.170    871.000    926.569    -55.569    470.299    926.608    470.299    470.299    470.299
 99.270    888.000    910.286    -22.286    470.051    910.317    470.051    470.051    470.051
 99.370    947.000    905.831     41.169    469.803    905.855    469.803    469.803    469.803
 99.470    903.633    913.713    -10.079    469.555    913.730    469.555    469.555    469.555
 99.570    922.000    934.176    -12.176    469.306    934.188    469.306    469.306    469.306
 99.670   1009.000    967.191     41.809    469.056    967.200    469.056    469.056    469.056
 99.770    966.000   1012.434    -46.434    468.806   1012.442    468.806    468.806    468.806
 99.870   1047.000   1069.297    -22.297    468.556   1069.307    468.556    468.556    468.556
 99.970   1105.000   1136.825    -31.825    468.306   1136.838    468.306    468.306    468.306
100.070   1214.000   1213.672      0.328    468.055   1213.692    468.055    468.055    468.055
100.170   1231.968   1298.072    -66.104    467.804   1298.103    467.804    467.804    467.804
100.270   1429.000   1387.797     41.203    467.552   1387.842    467.552    467.552    467.552
100.370   1498.000   1480.157     17.843    467.301   1480.220    467.301    467.301    467.301
100.470   1586.000   1572.067     13.933    467.049   1572.151    467.049    467.049    467.049
100.570   1625.000   1660.222    -35.222    466.796   1660.329    466.796    466.796    466.796
100.670   1787.374   1741.364     46.010    466.544   1741.497    466.544    466.544    466.544
100.770   1751.000   1812.601    -61.601    466.292   1812.760    466.292    466.292    466.292
100.870   1880.000   1871.630      8.370    466.039   1871.815    466.039    466.039    466.039
100.970   1918.385   1916.792      1.594    465.786   1917.001    465.786    465.786    465.786
101.070   1951.000   1946.940      4.060    465.533   1947.170    465.533    465.533    465.533
101.170   1900.000   1961.263    -61.263    465.280   1961.511    465.280    465.280    465.280
101.270   2056.414   1959.229     97.186    465.027   1959.491    465.027    465.027    465.027
101.370   1938.000   1940.732     -2.732    464.774   1941.004    464.774    464.774    464.774
101.470   1933.000   1906.401     26.599    464.521   1906.678    464.521    464.521    464.521
101.570   1981.000   1857.861    123.139    464.268   1858.138    464.268    464.268    464.268
101.670   1861.517   1797.775     63.742    464.015   1798.048    464.015    464.015    464.015
101.770   1800.526   1729.589     70.937    463.762   1729.853    463.762    463.762    463.762
101.870   1613.311   1657.079    -43.769    463.509   1657.331    463.509    463.509    463.509
101.970   1566.000   1583.876    -17.876    463.256   1584.113    463.256    463.256    463.256
102.070   1546.000   1513.109     32.891    463.003   1513.330    463.003    463.003    463.003
102.170   1418.815   1447.201    -28.386    462.751   1447.404    462.751    462.751    462.751
102.270   1396.000   1387.795      8.205    462.499   1387.982    462.499    462.499    462.499
102.370   1332.138   1335.761     -3.623    462.247   1335.933    462.247    462.247    462.247
102.470   1343.000   1291.235     51.765    461.995   1291.393    461.995    461.995    461.995
102.570   1199.000   1253.688    -54.688    461.743   1253.834    461.743    461.743    461.743
102.670   1177.000   1222.012    -45.012    461.492   1222.149    461.492    461.492    461.492
102.770   1236.478   1194.638     41.840    461.241   1194.768    461.241    461.241    461.241
102.870   1134.000   1169.686    -35.686    460.990   1169.810    460.990    460.990    460.990
102.970   1145.753   1145.288      0.465    460.740   1145.408    460.740    460.740    460.740
103.070   1147.000   1119.709     27.291    460.490   1119.827    460.490    460.490    460.490
103.170   1109.650   1091.674     17.976    460.241   1091.791    460.241    460.241    460.241
103.270   1019.000   1060.511    -41.511    459.992   1060.626    459.992    459.992    459.992
103.370   1019.435   1026.159     -6.724    459.743   1026.271    459.743    459.743    459.743
103.470    996.000    989.057      6.943    459.495    989.165    459.495    459.495    459.495
103.570    965.311    949.965     15.346    459.248    950.069    459.248    459.248    459.248
103.670    939.000    909.796     29.204    459.001    909.893    459.001    459.001    459.001
103.770    857.000    869.474    -12.474    458.754    869.565    458.754    458.754    458.754
103.870    849.000    829.863     19.137    458.509    829.947    458.509    458.509    458.509
103.970    783.060    791.714     -8.654    458.264    791.791    458.264    458.264    458.264
104.070    801.000    755.662     45.338    458.019    755.731    458.019    458.019    458.019
104.170    748.000    722.192     25.808    457.776    722.254    457.776    457.776    457.776
104.270    693.000    691.650      1.350    457.533    691.704    457.533    457.533    457.533
104.370    655.269    664.241     -8.972    457.291    664.288    457.291    457.291    457.291
104.470    697.086    640.046     57.040    457.050    640.087    457.050    457.050    457.050
104.570    601.000    619.030    -18.030    456.809    619.064    456.809    456.809    456.809
104.670    607.000    601.064      5.936    456.569    601.093    456.569    456.569    456.569
104.770    611.000    585.953     25.047    456.331    585.977    456.331    456.331    456.331
104.870    642.000    573.454     68.546    456.093    573.473    456.093    456.093    456.093
104.970    584.000    563.300     20.700    455.856    563.316    455.856    455.856    455.856
105.070    599.000    555.223     43.777    455.620    555.236    455.620    455.620    455.620
105.170    585.000    548.970     36.030    455.386    548.979    455.386    455.386    455.386
105.270    529.211    544.309    -15.098    455.152    544.316    455.152    455.152    455.152
105.370    544.000    541.046      2.954    454.919    541.050    454.919    454.919    454.919
105.470    520.000    539.023    -19.023    454.688    539.025    454.688    454.688    454.688
105.570    531.000    538.122     -7.122    454.458    538.122    454.458    454.458    454.458
105.670    520.000    538.262    -18.262    454.228    538.260    454.228    454.228    454.228
105.770    561.000    539.395     21.605    454.001    539.391    454.001    454.001    454.001
105.870    550.000    541.502      8.498    453.774    541.496    453.774    453.774    453.774
105.970    550.000    544.587      5.413    453.549    544.578    453.549    453.549    453.549
106.070    599.381    548.670     50.711    453.324    548.658    453.324    453.324    453.324
106.170    607.000    553.779     53.221    453.102    553.765    453.102    453.102    453.102
106.270    517.000    559.946    -42.946    452.881    559.929    452.881    452.881    452.881
106.370    599.187    567.189     31.998    452.661    567.169    452.661    452.661    452.661
106.470    575.518    575.506      0.012    452.442    575.483    452.442    452.442    452.442
106.570    627.117    584.867     42.249    452.225    584.841    452.225    452.225    452.225
106.670    636.343    595.202     41.140    452.010    595.173    452.010    452.010    452.010
106.770    543.000    606.396    -63.396    451.796    606.364    451.796    451.796    451.796
106.870    609.000    618.284     -9.284    451.584    618.249    451.584    451.584    451.584
106.970    642.000    630.633     11.367    451.374    630.595    451.374    451.374    451.374
107.070    621.000    643.207    -22.207    451.165    643.167    451.165    451.165    451.165
107.170    656.000    655.694      0.306    450.958    655.652    450.958    450.958    450.958
107.270    643.000    667.730    -24.730    450.752    667.687    450.752    450.752    450.752
107.370    687.000    678.934      8.066    450.549    678.891    450.549    450.549    450.549
107.470    676.569    688.927    -12.358    450.347    688.884    450.347    450.347    450.347
107.570    705.199    697.364      7.834    450.147    697.323    450.147    450.147    450.147
107.670    643.000    703.991    -60.991    449.950    703.952    449.950    449.950    449.950
107.770    711.000    708.681      2.319    449.754    708.645    449.754    449.754    449.754
107.870    736.168    711.472     24.697    449.560    711.439    449.560    449.560    449.560
107.970    758.089    712.559     45.530    449.368    712.531    449.368    449.368    449.368
108.070    662.000    712.270    -50.270    449.178    712.246    449.178    449.178    449.178
108.170    693.000    711.009    -18.009    448.990    710.989    448.990    448.990    448.990
108.270    658.000    709.200    -51.200    448.804    709.185    448.804    448.804    448.804
108.370    674.000    707.239    -33.239    448.621    707.228    448.621    448.621    448.621
108.470    762.639    705.454     57.185    448.440    705.447    448.440    448.440    448.440
108.570    688.272    704.089    -15.817    448.261    704.086    448.261    448.261    448.261
108.670    697.000    703.286     -6.286    448.084    703.287    448.084    448.084    448.084
108.770    689.000    703.083    -14.083    447.910    703.088    447.910    447.910    447.910
108.870    665.129    703.412    -38.283    447.738    703.421    447.738    447.738    447.738
108.970    756.308    704.106     52.201    447.568    704.119    447.568    447.568    447.568
109.070    684.000    704.906    -20.906    447.401    704.921    447.401    447.401    447.401
109.170    634.000    705.477    -71.477    447.237    705.496    447.237    447.237    447.237
109.270    665.000    705.441    -40.441    447.075    705.463    447.075    447.075    447.075
109.370    699.485    704.416     -4.931    446.916    704.441    446.916    446.916    446.916
109.470    739.000    702.063     36.937    446.759    702.090    446.759    446.759    446.759
109.570    715.000    698.138     16.862    446.605    698.168    446.605    446.605    446.605
109.670    697.000    692.530      4.470    446.454    692.561    446.454    446.454    446.454
109.770    713.000    685.271     27.729    446.305    685.303    446.305    446.305    446.305
109.870    652.000    676.522    -24.522    446.160    676.554    446.160    446.160    446.160
109.970    623.488    666.545    -43.057    446.017    666.576    446.017    446.017    446.017
110.070    634.382    655.654    -21.272    445.877    655.685    445.877    445.877    445.877
110.170    632.937    644.184    -11.247    445.740    644.213    445.740    445.740    445.740
110.270    645.000    632.460     12.540    445.606    632.487    445.606    445.606    445.606
110.370    627.338    620.780      6.558    445.475    620.805    445.475    445.475    445.475
110.470    589.000    609.407    -20.407    445.347    609.430    445.347    445.347    445.347
110.570    621.000    598.565     22.435    445.223    598.586    445.223    445.223    445.223
110.670    620.000    588.433     31.567    445.101    588.451    445.101    445.101    445.101
110.770    604.000    579.153     24.847    444.983    579.169    444.983    444.983    444.983
110.870    622.149    570.823     51.326    444.868    570.836    444.868    444.868    444.868
110.970    567.948    563.502      4.446    444.756    563.513    444.756    444.756    444.756
111.070    582.000    557.216     24.784    444.648    557.225    444.648    444.648    444.648
111.170    514.876    551.959    -37.082    444.543    551.965    444.543    444.543    444.543
111.270    570.000    547.698     22.302    444.442    547.703    444.442    444.442    444.442
111.370    597.273    544.382     52.890    444.344    544.385    444.344    444.344    444.344
111.470    571.000    541.945     29.055    444.249    541.946    444.249    444.249    444.249
111.570    585.000    540.308     44.692    444.159    540.308    444.159    444.159    444.159
111.670    524.615    539.393    -14.778    444.072    539.391    444.072    444.072    444.072
111.770    531.709    539.116     -7.406    443.988    539.113    443.988    443.988    443.988
111.870    565.000    539.399     25.601    443.909    539.395    443.909    443.909    443.909
111.970    542.000    540.169      1.831    443.833    540.164    443.833    443.833    443.833
112.070    579.000    541.357     37.643    443.761    541.352    443.761    443.761    443.761
112.170    585.000    542.909     42.091    443.693    542.903    443.693    443.693    443.693
112.270    553.106    544.782      8.324    443.629    544.775    443.629    443.629    443.629
112.370    528.549    546.939    -18.390    443.569    546.933    443.569    443.569    443.569
112.470    540.217    549.360     -9.143    443.513    549.353    443.513    443.513    443.513
112.570    537.000    552.035    -15.035    443.461    552.027    443.461    443.461    443.461
112.670    528.925    554.964    -26.039    443.413    554.956    443.413    443.413    443.413
112.770    549.000    558.171     -9.171    443.370    558.163    443.370    443.370    443.370
112.870    561.000    561.696     -0.696    443.330    561.688    443.330    443.330    443.330
112.970    605.000    565.581     39.419    443.295    565.573    443.295    443.295    443.295
113.070    580.000    569.886     10.114    443.265    569.878    443.265    443.265    443.265
113.170    540.971    574.695    -33.723    443.239    574.686    443.239    443.239    443.239
113.270    581.000    580.110      0.890    443.217    580.101    443.217    443.217    443.217
113.370    535.981    586.267    -50.285    443.200    586.257    443.200    443.200    443.200
113.470    571.000    593.336    -22.336    443.187    593.324    443.187    443.187    443.187
113.570    618.515    601.535     16.980    443.180    601.522    443.180    443.180    443.180
113.670    586.000    611.141    -25.141    443.176    611.127    443.176    443.176    443.176
113.770    601.000    622.504    -21.504    443.178    622.488    443.178    443.178    443.178
113.870    617.056    636.061    -19.006    443.184    636.042    443.184    443.184    443.184
113.970    608.000    652.357    -44.357    443.196    652.334    443.196    443.196    443.196
114.070    683.000    672.057     10.943    443.212    672.030    443.212    443.212    443.212
114.170    751.257    695.972     55.285    443.233    695.938    443.233    443.233    443.233
114.270    740.000    725.069     14.931    443.259    725.028    443.259    443.259    443.259
114.370    806.000    760.491     45.509    443.290    760.442    443.290    443.290    443.290
114.470    820.000    803.563     16.437    443.327    803.503    443.327    443.327    443.327
114.570    860.000    855.798      4.202    443.368    855.724    443.368    443.368    443.368
114.670    955.000    918.886     36.114    443.415    918.797    443.415    443.415    443.415
114.770    986.000    994.681     -8.681    443.467    994.573    443.467    443.467    443.467
114.870   1061.072   1085.165    -24.094    443.525   1085.037    443.525    443.525    443.525
114.970   1238.000   1192.404     45.596    443.588   1192.252    443.588    443.588    443.588
115.070   1384.316   1318.478     65.838    443.656   1318.299    443.656    443.656    443.656
115.170   1535.000   1465.400     69.600    443.730   1465.191    443.730    443.730    443.730
115.270   1729.000   1635.018     93.982    443.810   1634.777    443.810    443.810    443.810
115.370   1975.000   1828.899    146.101    443.895   1828.624    443.895    443.895    443.895
115.470   2206.000   2048.210    157.790    443.986   2047.900    443.986    443.986    443.986
115.570   2412.000   2293.585    118.415    444.083   2293.238    444.083    444.083    444.083
115.670   2595.000   2564.996     30.004    444.186   2564.614    444.186    444.186    444.186
115.770   2943.000   2861.641     81.359    444.294   2861.224    444.294    444.294    444.294
115.870   3222.000   3181.830     40.170    444.409   3181.382    444.409    444.409    444.409
115.970   3490.126   3522.907    -32.781    444.529   3522.432    444.529    444.529    444.529
116.070   3986.000   3881.189    104.811    444.656   3880.694    444.656    444.656    444.656
116.170   4279.000   4251.938     27.062    444.789   4251.429    444.789    444.789    444.789
116.270   4758.000   4629.357    128.643    444.928   4628.843    444.928    444.928    444.928
116.370   4961.000   5006.624    -45.624    445.073   5006.116    445.073    445.073    445.073
116.470   5375.000   5375.965     -0.965    445.225   5375.474    445.225    445.225    445.225
116.570   5871.653   5728.768    142.885    445.383   5728.308    445.383    445.383    445.383
116.670   6039.000   6055.786    -16.786    445.547   6055.370    445.547    445.547    445.547
116.770   6311.407   6347.436    -36.029    445.719   6347.078    445.719    445.719    445.719
116.870   6452.746   6594.235   -141.489    445.896   6593.949    445.896    445.896    445.896
116.970   6682.000   6787.397   -105.397    446.081   6787.195    446.081    446.081    446.081
117.070   6769.187   6919.536   -150.349    446.272   6919.428    446.272    446.272    446.272
117.170   6952.602   6985.387    -32.785    446.470   6985.378    446.470    446.470    446.470
117.270   6994.251   6982.401     11.850    446.674   6982.493    446.674    446.674    446.674
117.370   6861.000   6911.047    -50.047    446.886   6911.238    446.886    446.886    446.886
117.470   6803.000   6774.749     28.251    447.105   6775.030    447.105    447.105    447.105
117.570   6571.000   6579.461     -8.461    447.330   6579.822    447.330    447.330    447.330
117.670   6247.000   6333.018    -86.018    447.563   6333.446    447.563    447.563    447.563
117.770   5872.668   6044.397   -171.729    447.803   6044.876    447.803    447.803    447.803
117.870   5644.000   5723.043    -79.043    448.051   5723.559    448.051    448.051    448.051
117.970   5147.000   5378.329   -231.329    448.305   5378.868    448.305    448.305    448.305
118.070   5102.362   5019.166     83.196    448.567   5019.713    448.567    448.567    448.567
118.170   4627.000   4653.736    -26.736    448.837   4654.279    448.837    448.837    448.837
118.270   4184.480   4289.318   -104.838    449.114   4289.846    449.114    449.114    449.114
118.370   3930.000   3932.184     -2.184    449.399   3932.689    449.399    449.399    449.399
118.470   3550.663   3587.690    -37.027    449.691   3588.164    449.691    449.691    449.691
118.570   3177.336   3260.002    -82.666    449.991   3260.440    449.991    449.991    449.991
118.670   2950.782   2952.305     -1.524    450.299   2952.704    450.299    450.299    450.299
118.770   2607.000   2666.826    -59.826    450.615   2667.184    450.615    450.615    450.615
118.870   2488.747   2404.910     83.837    450.938   2405.225    450.938    450.938    450.938
118.970   2102.000   2167.121    -65.121    451.270   2167.396    451.270    451.270    451.270
119.070   1894.967   1953.358    -58.391    451.610   1953.593    451.610    451.610    451.610
119.170   1770.000   1762.966      7.034    451.958   1763.165    451.958    451.958    451.958
119.270   1607.162   1594.852     12.310    452.314   1595.017    452.314    452.314    452.314
119.370   1474.000   1447.593     26.407    452.678   1447.728    452.678    452.678    452.678
119.470   1331.197   1319.539     11.658    453.051   1319.648    453.051    453.051    453.051
119.570   1143.587   1208.910    -65.322    453.433   1208.996    453.433    453.433    453.433
119.670   1181.790   1113.874     67.916    453.823   1113.941    453.823    453.823    453.823
119.770    961.000   1032.621    -71.621    454.221   1032.672    454.221    454.221    454.221
119.870   1019.000    963.416     55.584    454.628    963.456    454.628    454.628    454.628
119.970    868.000    904.644    -36.644    455.044    904.673    455.044    455.044    455.044
120.070    898.059    854.830     43.229    455.469    854.851    455.469    455.469    455.469
120.170    782.000    812.657    -30.657    455.902    812.673    455.902    455.902    455.902
120.270    794.548    776.972     17.576    456.345    776.984    456.345    456.345    456.345
120.370    786.003    746.777     39.227    456.797    746.786    456.797    456.797    456.797
120.470    689.766    721.224    -31.457    457.258    721.231    457.258    457.258    457.258
120.570    667.000    699.597    -32.597    457.727    699.604    457.727    457.727    457.727
120.670    655.217    681.302    -26.084    458.207    681.308    458.207    458.207    458.207
120.770    654.000    665.845    -11.845    458.695    665.852    458.695    458.695    458.695
120.870    589.000    652.824    -63.824    459.193    652.831    459.193    459.193    459.193
120.970    626.740    641.906    -15.167    459.701    641.914    459.701    459.701    459.701
121.070    651.000    632.823     18.177    460.218    632.831    460.218    460.218    460.218
121.170    626.000    625.352      0.648    460.745    625.361    460.745    460.745    460.745
121.270    605.000    619.311    -14.311    461.281    619.321    461.281    461.281    461.281
121.370    649.141    614.550     34.591    461.828    614.561    461.828    461.828    461.828
121.470    559.171    610.943    -51.772    462.384    610.955    462.384    462.384    462.384
121.570    616.038    608.381      7.657    462.950    608.394    462.950    462.950    462.950
121.670    601.702    606.768     -5.066    463.527    606.783    463.527    463.527    463.527
121.770    651.788    606.020     45.768    464.113    606.036    464.113    464.113    464.113
121.870    583.000    606.057    -23.057    464.710    606.074    464.710    464.710    464.710
121.970    586.000    606.801    -20.801    465.317    606.821    465.317    465.317    465.317
122.070    627.241    608.178     19.063    465.934    608.199    465.934    465.934    465.934
122.170    622.000    610.109     11.891    466.562    610.133    466.562    466.562    466.562
122.270    633.046    612.514     20.532    467.200    612.541    467.200    467.200    467.200
122.370    564.201    615.309    -51.108    467.849    615.338    467.849    467.849    467.849
122.470    592.000    618.405    -26.405    468.509    618.436    468.509    468.509    468.509
122.570    613.603    621.705     -8.102    469.179    621.739    469.179    469.179    469.179
122.670    652.683    625.108     27.575    469.861    625.146    469.861    469.861    469.861
122.770    575.475    628.509    -53.034    470.553    628.549    470.553    470.553    470.553
122.870    612.000    631.796    -19.796    471.256    631.839    471.256    471.256    471.256
122.970    591.000    634.854    -43.854    471.971    634.900    471.971    471.971    471.971
123.070    620.000    637.570    -17.570    472.696    637.619    472.696    472.696    472.696
123.170    642.000    639.835      2.165    473.433    639.887    473.433    473.433    473.433
123.270    691.000    641.549     49.451    474.182    641.602    474.182    474.182    474.182
123.370    624.000    642.626    -18.626    474.942    642.682    474.942    474.942    474.942
123.470    637.000    643.003     -6.003    475.713    643.061    475.713    475.713    475.713
123.570    627.000    642.641    -15.641    476.496    642.700    476.496    476.496    476.496
123.670    671.000    641.528     29.472    477.291    641.588    477.291    477.291    477.291
123.770    644.000    639.680      4.320    478.098    639.740    478.098    478.098    478.098
123.870    644.126    637.134      6.992    478.916    637.194    478.916    478.916    478.916
123.970    680.000    633.950     46.050    479.747    634.009    479.747    479.747    479.747
124.070    646.000    630.200     15.800    480.589    630.258    480.589    480.589    480.589
124.170    592.000    625.965    -33.965    481.444    626.021    481.444    481.444    481.444
124.270    655.000    621.331     33.669    482.311    621.386    482.311    482.311    482.311
124.370    623.381    616.387      6.995    483.190    616.439    483.190    483.190    483.190
124.470    620.000    611.217      8.783    484.082    611.267    484.082    484.082    484.082
124.570    590.912    605.906    -14.994    484.986    605.953    484.986    484.986    484.986
124.670    634.839    600.533     34.306    485.903    600.577    485.903    485.903    485.903
124.770    559.615    595.171    -35.556    486.833    595.212    486.833    486.833    486.833
124.870    644.000    589.888     54.112    487.775    589.926    487.775    487.775    487.775
124.970    596.000    584.744     11.256    488.731    584.779    488.731    488.731    488.731
