neutron_powder_diffraction_0167
R_wp: 3.786
Temperature (K): 1074.000
Counts: 83879.00
Wavelength (Ã…): 2.52098
COMMENTS
Test file for demonstrating the .xyy file format in Reel1.0
END OF HEADER
   tth       Y_obs     Y_calc      Y_res    Background    Phase_1_Nuc    Phase_1_Mag    Phase_2_Nuc    Phase_2_Mag
  9.970    629.000    576.831     52.169    576.052    576.769    576.052    576.113    576.052
 10.070    600.033    576.849     23.185    576.007    576.787    576.007    576.069    576.007
 10.170    573.000    576.871     -3.871    575.958    576.809    575.958    576.019    575.958
 10.270    592.857    576.900     15.957    575.904    576.838    575.904    575.966    575.904
 10.370    595.000    576.938     18.062    575.846    576.875    575.846    575.908    575.846
 10.470    553.000    576.989    -23.989    575.783    576.926    575.783    575.846    575.783
 10.570    568.519    577.055     -8.536    575.717    576.992    575.717    575.779    575.717
 10.670    599.000    577.143     21.857    575.645    577.079    575.645    575.708    575.645
 10.770    605.285    577.259     28.026    575.570    577.195    575.570    575.633    575.570
 10.870    561.375    577.413    -16.038    575.490    577.349    575.490    575.554    575.490
 10.970    598.908    577.619     21.289    575.407    577.555    575.407    575.470    575.407
 11.070    596.420    577.896     18.524    575.319    577.831    575.319    575.383    575.319
 11.170    613.000    578.273     34.727    575.227    578.207    575.227    575.291    575.227
 11.270    599.000    578.791     20.209    575.131    578.725    575.131    575.195    575.131
 11.370    569.000    579.530    -10.530    575.031    579.463    575.031    575.096    575.031
 11.470    573.000    580.659     -7.659    574.927    580.591    574.927    574.992    574.927
 11.570    633.000    582.641     50.359    574.819    582.571    574.819    574.885    574.819
 11.670    593.000    586.685      6.315    574.708    586.613    574.708    574.773    574.708
 11.770    670.000    595.381     74.619    574.592    595.303    574.592    574.658    574.592
 11.870    626.000    612.563     13.437    574.473    612.476    574.473    574.539    574.473
 11.970    686.000    640.836     45.164    574.350    640.732    574.350    574.417    574.350
 12.070    685.766    676.282      9.484    574.224    676.158    574.224    574.291    574.224
 12.170    698.057    703.746     -5.689    574.094    703.606    574.094    574.161    574.094
 12.270    704.740    704.507      0.233    573.960    704.366    573.960    574.027    573.960
 12.370    671.000    677.777     -6.777    573.823    677.651    573.823    573.890    573.823
 12.470    601.000    641.945    -40.945    573.682    641.839    573.682    573.750    573.682
 12.570    628.000    612.816     15.184    573.538    612.726    573.538    573.606    573.538
 12.670    587.000    594.818     -7.818    573.390    594.737    573.390    573.458    573.390
 12.770    586.000    585.525      0.475    573.239    585.449    573.239    573.308    573.239
 12.870    595.337    581.063     14.274    573.084    580.990    573.084    573.154    573.084
 12.970    584.000    578.758      5.242    572.927    578.684    572.927    572.997    572.927
 13.070    594.000    577.343     16.657    572.766    577.266    572.766    572.840    572.766
 13.170    555.000    576.330    -21.330    572.601    576.252    572.601    572.678    572.601
 13.270    613.256    575.542     37.714    572.434    575.463    572.434    572.511    572.434
 13.370    546.963    574.900    -27.937    572.263    574.821    572.263    572.341    572.263
 13.470    530.000    574.359    -44.359    572.090    574.280    572.090    572.167    572.090
 13.570    545.440    573.892    -28.452    571.913    573.813    571.913    571.991    571.913
 13.670    598.000    573.478     24.522    571.733    573.399    571.733    571.812    571.733
 13.770    606.000    573.104     32.896    571.550    573.025    571.550    571.629    571.550
 13.870    519.000    572.761    -53.761    571.365    572.681    571.365    571.444    571.365
 13.970    570.000    572.441     -2.441    571.176    572.361    571.176    571.256    571.176
 14.070    570.648    572.139     -1.491    570.985    572.058    570.985    571.065    570.985
 14.170    600.117    571.850     28.266    570.790    571.770    570.790    570.871    570.790
 14.270    588.000    571.576     16.424    570.593    571.495    570.593    570.674    570.593
 14.370    564.000    571.308     -7.308    570.393    571.226    570.393    570.474    570.393
 14.470    548.000    571.045    -23.045    570.191    570.963    570.191    570.272    570.191
 14.570    547.000    570.788    -23.788    569.985    570.706    569.985    570.067    569.985
 14.670    533.000    570.536    -37.536    569.777    570.454    569.777    569.860    569.777
 14.770    515.000    570.285    -55.285    569.567    570.202    569.567    569.650    569.567
 14.870    599.000    570.036     28.964    569.354    569.953    569.354    569.437    569.354
 14.970    562.000    569.789     -7.789    569.138    569.705    569.138    569.222    569.138
 15.070    557.000    569.543    -12.543    568.920    569.458    568.920    569.004    568.920
 15.170    579.833    569.297     10.536    568.699    569.212    568.699    568.784    568.699
 15.270    562.000    569.051     -7.051    568.476    568.966    568.476    568.561    568.476
 15.370    577.539    568.806      8.733    568.251    568.720    568.251    568.336    568.251
 15.470    574.000    568.560      5.440    568.023    568.474    568.023    568.109    568.023
 15.570    555.722    568.314    -12.592    567.793    568.227    567.793    567.879    567.793
 15.670    544.000    568.067    -24.067    567.560    567.980    567.560    567.647    567.560
 15.770    596.958    567.819     29.139    567.326    567.731    567.326    567.413    567.326
 15.870    598.959    567.570     31.388    567.089    567.482    567.089    567.177    567.089
 15.970    573.000    567.321      5.679    566.850    567.232    566.850    566.938    566.850
 16.070    589.534    567.070     22.464    566.608    566.981    566.608    566.697    566.608
 16.170    546.688    566.818    -20.130    566.365    566.728    566.365    566.454    566.365
 16.270    581.878    566.565     15.313    566.119    566.475    566.119    566.209    566.119
 16.370    562.000    566.310     -4.310    565.872    566.220    565.872    565.963    565.872
 16.470    532.000    566.055    -34.055    565.622    565.964    565.622    565.714    565.622
 16.570    588.000    565.798     22.202    565.371    565.707    565.371    565.463    565.371
 16.670    552.982    565.540    -12.558    565.117    565.448    565.117    565.210    565.117
 16.770    559.000    565.283     -6.283    564.862    565.190    564.862    564.955    564.862
 16.870    551.000    565.023    -14.023    564.605    564.929    564.605    564.698    564.605
 16.970    562.000    564.760     -2.760    564.346    564.666    564.346    564.440    564.346
 17.070    529.255    564.497    -35.242    564.085    564.402    564.085    564.179    564.085
 17.170    566.000    564.232      1.768    563.822    564.137    563.822    563.917    563.822
 17.270    601.804    563.966     37.839    563.557    563.870    563.557    563.653    563.557
 17.370    518.902    563.698    -44.797    563.291    563.602    563.291    563.388    563.291
 17.470    559.000    563.429     -4.429    563.023    563.332    563.023    563.120    563.023
 17.570    558.000    563.159     -5.159    562.754    563.062    562.754    562.851    562.754
 17.670    576.206    562.888     13.318    562.483    562.789    562.483    562.581    562.483
 17.770    549.000    562.615    -13.615    562.210    562.516    562.210    562.309    562.210
 17.870    546.000    562.343    -16.343    561.935    562.243    561.935    562.035    561.935
 17.970    533.000    562.068    -29.068    561.659    561.968    561.659    561.760    561.659
 18.070    548.000    561.792    -13.792    561.382    561.691    561.382    561.483    561.382
 18.170    542.000    561.515    -19.515    561.103    561.413    561.103    561.205    561.103
 18.270    535.000    561.236    -26.236    560.823    561.134    560.823    560.926    560.823
 18.370    565.000    560.959      4.041    560.541    560.853    560.541    560.646    560.541
 18.470    537.000    560.679    -23.679    560.258    560.572    560.258    560.365    560.258
 18.570    535.116    560.398    -25.281    559.974    560.290    559.974    560.081    559.974
 18.670    559.292    560.115     -0.823    559.688    560.006    559.688    559.796    559.688
 18.770    553.286    559.831     -6.545    559.401    559.722    559.401    559.510    559.401
 18.870    558.293    559.546     -1.254    559.112    559.436    559.112    559.222    559.112
 18.970    516.000    559.261    -43.261    558.823    559.150    558.823    558.934    558.823
 19.070    551.531    558.974     -7.443    558.532    558.862    558.532    558.644    558.532
 19.170    577.000    558.687     18.313    558.240    558.574    558.240    558.353    558.240
 19.270    558.000    558.400     -0.400    557.947    558.286    557.947    558.060    557.947
 19.370    542.000    558.124    -16.124    557.652    558.010    557.652    557.767    557.652
 19.470    562.000    557.845      4.155    557.357    557.730    557.357    557.472    557.357
 19.570    548.000    557.556     -9.556    557.061    557.439    557.061    557.177    557.061
 19.670    575.000    557.264     17.736    556.763    557.147    556.763    556.880    556.763
 19.770    564.353    556.973      7.380    556.465    556.855    556.465    556.583    556.465
 19.870    564.000    556.681      7.319    556.165    556.561    556.165    556.284    556.165
 19.970    555.000    556.388     -1.388    555.865    556.268    555.865    555.985    555.865
 20.070    548.000    556.095     -8.095    555.563    555.973    555.563    555.685    555.563
 20.170    527.708    555.801    -28.093    555.261    555.679    555.261    555.384    555.261
 20.270    544.929    555.507    -10.578    554.958    555.384    554.958    555.081    554.958
 20.370    509.588    555.213    -45.625    554.654    555.088    554.654    554.779    554.654
 20.470    568.000    554.918     13.082    554.349    554.793    554.349    554.475    554.349
 20.570    563.000    554.624      8.376    554.043    554.497    554.043    554.171    554.043
 20.670    543.747    554.329    -10.582    553.737    554.201    553.737    553.865    553.737
 20.770    547.000    554.034     -7.034    553.430    553.905    553.430    553.559    553.430
 20.870    535.315    553.739    -18.424    553.122    553.609    553.122    553.253    553.122
 20.970    553.000    553.445     -0.445    552.813    553.313    552.813    552.946    552.813
 21.070    554.000    553.151      0.849    552.504    553.017    552.504    552.638    552.504
 21.170    577.822    552.857     24.966    552.194    552.722    552.194    552.329    552.194
 21.270    549.000    552.563     -3.563    551.884    552.427    551.884    552.020    551.884
 21.370    538.000    552.270    -14.270    551.573    552.132    551.573    551.711    551.573
 21.470    503.000    551.978    -48.978    551.261    551.839    551.261    551.400    551.261
 21.570    524.000    551.687    -27.687    550.949    551.546    550.949    551.090    550.949
 21.670    537.000    551.407    -14.407    550.636    551.265    550.636    550.779    550.636
 21.770    572.000    551.203     20.797    550.323    551.059    550.323    550.467    550.323
 21.870    553.000    550.937      2.063    550.009    550.791    550.009    550.155    550.009
 21.970    522.146    550.653    -28.507    549.695    550.505    549.695    549.843    549.695
 22.070    560.000    550.370      9.630    549.381    550.221    549.381    549.530    549.381
 22.170    580.000    550.089     29.911    549.066    549.938    549.066    549.217    549.066
 22.270    614.000    549.813     64.187    548.750    549.660    548.750    548.903    548.750
 22.370    587.655    549.546     38.109    548.435    549.391    548.435    548.590    548.435
 22.470    584.535    549.323     35.212    548.119    549.166    548.119    548.276    548.119
 22.570    545.000    549.096     -4.096    547.802    548.937    547.802    547.962    547.802
 22.670    562.269    548.865     13.404    547.486    548.704    547.486    547.647    547.486
 22.770    582.081    548.616     33.465    547.169    548.453    547.169    547.333    547.169
 22.870    525.886    548.373    -22.487    546.852    548.207    546.852    547.018    546.852
 22.970    555.000    548.140      6.860    546.534    547.972    546.534    546.703    546.534
 23.070    541.000    547.920     -6.920    546.217    547.750    546.217    546.388    546.217
 23.170    508.289    547.716    -39.427    545.899    547.543    545.899    546.073    545.899
 23.270    553.000    547.531      5.469    545.581    547.355    545.581    545.758    545.581
 23.370    518.000    547.371    -29.371    545.263    547.193    545.263    545.443    545.263
 23.470    539.000    547.244     -8.244    544.945    547.062    544.945    545.128    544.945
 23.570    566.423    547.159     19.264    544.627    546.974    544.627    544.813    544.627
 23.670    548.000    547.132      0.868    544.309    546.944    544.309    544.498    544.309
 23.770    518.611    547.181    -28.570    543.990    546.990    543.990    544.183    543.990
 23.870    551.000    547.343      3.657    543.672    547.149    543.672    543.868    543.672
 23.970    581.631    547.681     33.950    543.354    547.483    543.354    543.553    543.354
 24.070    568.000    548.347     19.653    543.035    548.146    543.035    543.239    543.035
 24.170    529.398    549.750    -20.352    542.717    549.546    542.717    542.925    542.717
 24.270    518.805    552.887    -34.081    542.399    552.682    542.399    542.611    542.399
 24.370    607.000    559.661     47.339    542.081    559.456    542.081    542.297    542.081
 24.470    595.000    572.464     22.536    541.763    572.263    541.763    541.984    541.763
 24.570    612.000    592.209     19.791    541.445    592.018    541.445    541.671    541.445
 24.670    625.000    614.956     10.044    541.127    614.777    541.127    541.359    541.127
 24.770    625.000    629.815     -4.815    540.809    629.640    540.809    541.046    540.809
 24.870    628.641    626.141      2.501    540.492    625.958    540.492    540.735    540.492
 24.970    605.000    606.817     -1.817    540.175    606.614    540.175    540.424    540.175
 25.070    605.000    583.823     21.177    539.858    583.598    539.858    540.113    539.858
 25.170    578.000    565.748     12.252    539.541    565.503    539.541    539.804    539.541
 25.270    592.000    554.584     37.416    539.224    554.324    539.224    539.495    539.224
 25.370    566.488    548.665     17.823    538.908    548.392    538.908    539.186    538.908
 25.470    575.000    545.679     29.321    538.592    545.396    538.592    538.879    538.592
 25.570    525.161    544.044    -18.883    538.276    543.750    538.276    538.572    538.276
 25.670    584.000    542.983     41.017    537.961    542.679    537.961    538.266    537.961
 25.770    586.614    542.195     44.419    537.646    541.880    537.646    537.962    537.646
 25.870    508.564    541.568    -33.004    537.331    541.241    537.331    537.658    537.331
 25.970    582.900    541.052     41.849    537.017    540.713    537.017    537.356    537.017
 26.070    548.000    540.628      7.372    536.703    540.276    536.703    537.055    536.703
 26.170    572.897    540.307     32.590    536.389    539.941    536.389    536.756    536.389
 26.270    541.000    540.032      0.968    536.076    539.650    536.076    536.458    536.076
 26.370    506.000    539.779    -33.779    535.764    539.381    535.764    536.162    535.764
 26.470    517.000    539.570    -22.570    535.452    539.154    535.452    535.868    535.452
 26.570    561.910    539.411     22.499    535.140    538.974    535.140    535.576    535.140
 26.670    549.000    539.305      9.695    534.829    538.847    534.829    535.287    534.829
 26.770    552.982    539.260     13.722    534.518    538.778    534.518    535.000    534.518
 26.870    545.000    539.298      5.702    534.208    538.789    534.208    534.716    534.208
 26.970    536.000    539.434     -3.434    533.898    538.896    533.898    534.436    533.898
 27.070    560.000    539.656     20.344    533.589    539.086    533.589    534.159    533.589
 27.170    508.000    540.017    -32.017    533.281    539.410    533.281    533.887    533.281
 27.270    527.054    540.567    -13.514    532.973    539.920    532.973    533.620    532.973
 27.370    510.889    541.382    -30.492    532.666    540.688    532.666    533.358    532.666
 27.470    597.000    542.595     54.405    532.359    541.849    532.359    533.103    532.359
 27.570    584.301    544.559     39.743    532.053    543.753    532.053    532.856    532.053
 27.670    518.441    548.566    -30.124    531.748    547.692    531.748    532.618    531.748
 27.770    573.000    559.180     13.820    531.443    558.225    531.443    532.391    531.443
 27.870    582.000    588.460     -6.460    531.139    587.406    531.139    532.177    531.139
 27.970    670.000    655.889     14.111    530.836    654.708    530.836    531.978    530.836
 28.070    727.000    770.858    -43.858    530.533    769.521    530.533    531.799    530.533
 28.170    931.839    900.541     31.298    530.232    899.027    530.232    531.643    530.232
 28.270    941.000    964.484    -23.484    529.931    962.797    529.931    531.518    529.931
 28.370    880.827    909.892    -29.065    529.630    908.028    529.630    531.433    529.630
 28.470    845.000    792.649     52.351    529.331    790.555    529.331    531.401    529.331
 28.570    734.000    702.513     31.487    529.032    700.091    529.032    531.444    529.032
 28.670    680.000    685.118     -5.118    528.734    682.240    528.734    531.598    528.734
 28.770    753.669    734.248     19.420    528.437    730.747    528.437    531.918    528.437
 28.870    795.342    807.200    -11.858    528.140    802.838    528.140    532.489    528.140
 28.970    800.000    841.745    -41.745    527.845    836.167    527.845    533.424    527.845
 29.070    804.000    801.471      2.529    527.550    794.171    527.550    534.863    527.550
 29.170    677.786    718.484    -40.698    527.257    708.812    527.257    536.942    527.257
 29.270    640.000    642.411     -2.411    526.964    629.632    526.964    539.750    526.964
 29.370    606.000    595.529     10.471    526.672    578.972    526.672    543.232    526.672
 29.470    621.215    574.618     46.598    526.381    553.989    526.381    547.009    526.381
 29.570    578.000    567.508     10.492    526.091    543.428    526.091    550.169    526.091
 29.670    628.000    564.479     63.521    525.801    538.855    525.801    551.424    525.801
 29.770    586.000    560.940     25.060    525.513    536.422    525.513    550.028    525.513
 29.870    524.000    556.161    -32.161    525.226    534.842    525.226    546.543    525.226
 29.970    588.015    551.025     36.990    524.939    533.731    524.939    542.231    524.939
 30.070    582.263    546.406     35.857    524.654    532.969    524.654    538.089    524.654
 30.170    536.026    542.744     -6.717    524.370    532.534    524.370    534.577    524.370
 30.270    555.000    540.249     14.751    524.086    532.538    524.086    531.795    524.086
 30.370    548.000    539.292      8.708    523.804    533.418    523.804    529.674    523.804
 30.470    558.672    540.906     17.766    523.522    536.341    523.522    528.082    523.522
 30.570    619.000    547.132     71.868    523.242    543.484    523.242    526.878    523.242
 30.670    568.000    560.249      7.751    522.963    557.245    522.963    525.944    522.963
 30.770    575.000    580.108     -5.108    522.685    577.566    522.685    525.189    522.685
 30.870    593.000    600.745     -7.745    522.407    598.546    522.407    524.555    522.407
 30.970    579.000    610.153    -31.153    522.131    608.228    522.131    524.001    522.131
 31.070    608.000    600.414      7.586    521.856    598.720    521.856    523.504    521.856
 31.170    530.000    578.863    -48.863    521.583    577.367    521.583    523.050    521.583
 31.270    578.000    557.501     20.499    521.310    556.168    521.310    522.627    521.310
 31.370    511.450    542.541    -31.091    521.038    541.341    521.038    522.230    521.038
 31.470    531.079    534.259     -3.180    520.768    533.169    520.768    521.854    520.768
 31.570    560.000    530.304     29.696    520.498    529.306    520.498    521.494    520.498
 31.670    537.186    528.444      8.742    520.230    527.524    520.230    521.148    520.230
 31.770    530.000    527.443      2.557    519.963    526.590    519.963    520.814    519.963
 31.870    565.961    526.801     39.160    519.697    526.008    519.697    520.489    519.697
 31.970    556.000    526.352     29.648    519.433    525.610    519.433    520.174    519.433
 32.070    537.000    526.040     10.960    519.169    525.342    519.169    519.865    519.169
 32.170    519.000    525.842     -6.842    518.907    525.184    518.907    519.563    518.907
 32.270    570.000    525.754     44.246    518.646    525.132    518.646    519.267    518.646
 32.370    490.195    525.774    -35.579    518.386    525.183    518.386    518.976    518.386
 32.470    560.000    525.907     34.093    518.127    525.344    518.127    518.689    518.127
 32.570    555.000    526.174     28.826    517.870    525.636    517.870    518.407    517.870
 32.670    530.000    526.599      3.401    517.614    526.083    517.614    518.128    517.614
 32.770    538.485    527.221     11.264    517.359    526.726    517.359    517.853    517.359
 32.870    539.000    528.096     10.904    517.105    527.619    517.105    517.581    517.105
 32.970    562.418    529.305     33.112    516.853    528.845    516.853    517.312    516.853
 33.070    511.000    530.978    -19.978    516.602    530.532    516.602    517.046    516.602
 33.170    541.000    533.346      7.654    516.352    532.914    516.352    516.782    516.352
 33.270    564.000    536.952     27.048    516.103    536.531    516.103    516.521    516.103
 33.370    555.000    543.270     11.730    515.856    542.859    515.856    516.263    515.856
 33.470    600.000    556.164     43.836    515.610    555.761    515.610    516.007    515.610
 33.570    600.000    583.961     16.039    515.365    583.563    515.365    515.753    515.365
 33.670    615.724    639.741    -24.017    515.122    639.341    515.122    515.501    515.122
 33.770    803.000    735.217     67.783    514.880    734.809    514.880    515.251    514.880
 33.870    825.000    866.396    -41.396    514.640    865.978    514.640    515.003    514.640
 33.970   1048.000    997.602     50.398    514.400    997.181    514.400    514.757    514.400
 34.070   1101.000   1061.788     39.212    514.162   1061.382    514.162    514.513    514.162
 34.170   1000.125   1013.592    -13.467    513.926   1013.218    513.926    514.271    513.926
 34.270    874.000    888.541    -14.541    513.691    888.197    513.691    514.031    513.691
 34.370    763.000    754.073      8.927    513.457    753.745    513.457    513.792    513.457
 34.470    628.000    651.467    -23.467    513.224    651.144    513.224    513.556    513.224
 34.570    588.000    589.084     -1.084    512.993    588.763    512.993    513.321    512.993
 34.670    570.698    556.865     13.833    512.764    556.544    512.764    513.088    512.764
 34.770    526.000    541.484    -15.484    512.536    541.164    512.536    512.856    512.536
 34.870    532.205    533.794     -1.589    512.309    533.476    512.309    512.626    512.309
 34.970    556.000    529.304     26.696    512.083    528.989    512.083    512.398    512.083
 35.070    547.361    526.230     21.131    511.859    525.917    511.859    512.172    511.859
 35.170    514.000    523.917     -9.917    511.637    523.606    511.637    511.947    511.637
 35.270    533.000    522.095     10.905    511.415    521.786    511.415    511.724    511.415
 35.370    488.030    520.619    -32.589    511.196    520.312    511.196    511.503    511.196
 35.470    533.062    519.398     13.664    510.977    519.092    510.977    511.283    510.977
 35.570    500.000    518.369    -18.369    510.761    518.065    510.761    511.065    510.761
 35.670    532.945    517.490     15.455    510.545    517.187    510.545    510.848    510.545
 35.770    541.052    516.728     24.324    510.331    516.426    510.331    510.633    510.331
 35.870    487.000    516.060    -29.060    510.119    515.759    510.119    510.420    510.119
 35.970    494.000    515.469    -21.469    509.908    515.168    509.908    510.208    509.908
 36.070    507.000    514.941     -7.941    509.698    514.641    509.698    509.998    509.698
 36.170    480.000    514.467    -34.467    509.490    514.168    509.490    509.790    509.490
 36.270    551.412    514.040     37.372    509.283    513.741    509.283    509.583    509.283
 36.370    533.000    513.655     19.345    509.078    513.356    509.078    509.378    509.078
 36.470    482.719    513.309    -30.590    508.875    513.009    508.875    509.174    508.875
 36.570    541.131    513.000     28.131    508.672    512.700    508.672    508.972    508.672
 36.670    482.000    512.731    -30.731    508.472    512.431    508.472    508.772    508.472
 36.770    524.000    512.509     11.491    508.273    512.209    508.273    508.573    508.273
 36.870    544.000    512.356     31.644    508.075    512.055    508.075    508.376    508.075
 36.970    471.403    512.328    -40.925    507.879    512.027    507.879    508.180    507.879
 37.070    542.000    512.549     29.451    507.684    512.247    507.684    507.987    507.684
 37.170    522.455    513.242      9.213    507.491    512.939    507.491    507.794    507.491
 37.270    502.481    514.705    -12.224    507.299    514.401    507.299    507.604    507.299
 37.370    482.000    517.163    -35.163    507.109    516.859    507.109    507.415    507.109
 37.470    505.000    520.499    -15.499    506.921    520.194    506.921    507.227    506.921
 37.570    523.000    523.963     -0.963    506.734    523.659    506.734    507.041    506.734
 37.670    523.000    526.137     -3.137    506.548    525.832    506.548    506.857    506.548
 37.770    525.000    525.837     -0.837    506.364    525.533    506.364    506.675    506.364
 37.870    548.000    523.359     24.641    506.182    523.056    506.182    506.494    506.182
 37.970    530.000    519.980     10.020    506.001    519.677    506.001    506.314    506.001
 38.070    556.412    516.700     39.712    505.821    516.395    505.821    506.137    505.821
 38.170    506.000    513.940     -7.940    505.644    513.633    505.644    505.961    505.644
 38.270    502.000    511.841     -9.841    505.467    511.529    505.467    505.786    505.467
 38.370    506.000    510.370     -4.370    505.293    510.054    505.293    505.614    505.293
 38.470    498.000    509.389    -11.389    505.120    509.068    505.120    505.443    505.120
 38.570    530.719    508.741     21.978    504.948    508.417    504.948    505.273    504.948
 38.670    546.000    508.297     37.703    504.778    507.971    504.778    505.105    504.778
 38.770    540.252    507.969     32.283    504.609    507.640    504.609    504.939    504.609
 38.870    506.303    507.704     -1.400    504.442    507.372    504.442    504.775    504.442
 38.970    497.000    507.473    -10.473    504.277    507.138    504.277    504.612    504.277
 39.070    488.000    507.264    -19.264    504.113    506.927    504.113    504.451    504.113
 39.170    503.000    507.072     -4.072    503.951    506.732    503.951    504.291    503.951
 39.270    488.275    506.893    -18.618    503.790    506.550    503.790    504.133    503.790
 39.370    526.994    506.724     20.270    503.631    506.378    503.631    503.977    503.631
 39.470    558.000    506.566     51.434    503.474    506.217    503.474    503.823    503.474
 39.570    465.000    506.417    -41.417    503.318    506.065    503.318    503.670    503.318
 39.670    465.000    506.276    -41.276    503.163    505.921    503.163    503.519    503.163
 39.770    537.000    506.144     30.856    503.010    505.785    503.010    503.369    503.010
 39.870    475.243    506.019    -30.776    502.859    505.657    502.859    503.222    502.859
 39.970    481.000    505.903    -24.903    502.709    505.537    502.709    503.076    502.709
 40.070    528.000    505.795     22.205    502.561    505.426    502.561    502.931    502.561
 40.170    506.482    505.697      0.785    502.415    505.323    502.415    502.789    502.415
 40.270    534.000    505.607     28.393    502.270    505.229    502.270    502.648    502.270
 40.370    508.000    505.528      2.472    502.126    505.146    502.126    502.508    502.126
 40.470    483.000    505.460    -22.460    501.984    505.074    501.984    502.371    501.984
 40.570    538.843    505.405     33.438    501.844    505.014    501.844    502.235    501.844
 40.670    514.000    505.364      8.636    501.706    504.969    501.706    502.101    501.706
 40.770    501.000    505.339     -4.339    501.568    504.940    501.568    501.968    501.568
 40.870    539.000    505.334     33.666    501.433    504.930    501.433    501.838    501.433
 40.970    503.000    505.352     -2.352    501.299    504.943    501.299    501.709    501.299
 41.070    480.000    505.398    -25.398    501.167    504.984    501.167    501.581    501.167
 41.170    492.000    505.478    -13.478    501.036    505.059    501.036    501.456    501.036
 41.270    502.000    505.600     -3.600    500.907    505.176    500.907    501.332    500.907
 41.370    526.280    505.777     20.503    500.779    505.346    500.779    501.210    500.779
 41.470    474.000    506.024    -32.024    500.653    505.588    500.653    501.090    500.653
 41.570    508.000    506.367      1.633    500.529    505.925    500.529    500.972    500.529
 41.670    538.617    506.853     31.763    500.406    506.406    500.406    500.855    500.406
 41.770    464.512    507.589    -43.078    500.284    507.136    500.284    500.740    500.284
 41.870    509.000    508.826      0.174    500.165    508.366    500.165    500.627    500.165
 41.970    484.217    511.131    -26.914    500.046    510.665    500.046    500.516    500.046
 42.070    537.000    515.614     21.386    499.930    515.143    499.930    500.407    499.930
 42.170    528.000    524.008      3.992    499.815    523.534    499.815    500.299    499.815
 42.270    524.000    538.250    -14.250    499.701    537.774    499.701    500.193    499.701
 42.370    581.000    559.285     21.715    499.589    558.811    499.589    500.089    499.589
 42.470    583.000    585.326     -2.326    499.479    584.858    499.479    499.987    499.479
 42.570    638.000    610.348     27.652    499.370    609.885    499.370    499.887    499.370
 42.670    567.000    624.625    -57.625    499.263    624.163    499.263    499.789    499.263
 42.770    639.855    620.757     19.097    499.157    620.287    499.157    499.692    499.157
 42.870    590.000    600.995    -10.995    499.053    600.507    499.053    499.598    499.053
 42.970    569.753    574.579     -4.826    498.951    574.068    498.951    499.505    498.951
 43.070    590.000    549.990     40.010    498.850    549.455    498.850    499.415    498.850
 43.170    498.000    531.479    -33.479    498.750    530.922    498.750    499.326    498.750
 43.270    493.000    519.572    -26.572    498.652    518.996    498.652    499.239    498.652
 43.370    485.896    512.773    -26.878    498.556    512.181    498.556    499.155    498.556
 43.470    486.652    509.152    -22.500    498.461    508.546    498.461    499.072    498.461
 43.570    493.789    507.215    -13.426    498.368    506.595    498.368    498.992    498.368
 43.670    528.225    506.087     22.138    498.277    505.453    498.277    498.913    498.277
 43.770    509.515    505.344      4.171    498.186    504.695    498.186    498.837    498.186
 43.870    472.274    504.803    -32.530    498.098    504.140    498.098    498.763    498.098
 43.970    469.000    504.387    -35.387    498.011    503.708    498.011    498.691    498.011
 44.070    476.000    504.058    -28.058    497.925    503.363    497.925    498.621    497.925
 44.170    461.235    503.795    -42.560    497.841    503.083    497.841    498.554    497.841
 44.270    517.370    503.584     13.786    497.759    502.854    497.759    498.489    497.759
 44.370    506.000    503.415      2.585    497.678    502.666    497.678    498.427    497.678
 44.470    520.209    503.280     16.929    497.598    502.512    497.598    498.367    497.598
 44.570    476.000    503.175    -27.175    497.521    502.387    497.521    498.309    497.521
 44.670    498.000    503.095     -5.095    497.444    502.286    497.444    498.254    497.444
 44.770    487.000    503.038    -16.038    497.369    502.206    497.369    498.202    497.369
 44.870    510.000    503.002      6.998    497.296    502.145    497.296    498.153    497.296
 44.970    481.000    502.984    -21.984    497.224    502.102    497.224    498.106    497.224
 45.070    463.474    502.984    -39.511    497.154    502.076    497.154    498.063    497.154
 45.170    516.000    503.002     12.998    497.085    502.065    497.085    498.022    497.085
 45.270    524.000    503.037     20.963    497.018    502.069    497.018    497.985    497.018
 45.370    544.148    503.089     41.059    496.952    502.089    496.952    497.952    496.952
 45.470    497.000    503.158     -6.158    496.887    502.124    496.887    497.922    496.887
 45.570    498.392    503.246     -4.853    496.824    502.174    496.824    497.895    496.824
 45.670    568.000    503.352     64.648    496.763    502.242    496.763    497.873    496.763
 45.770    492.000    503.480    -11.480    496.703    502.327    496.703    497.855    496.703
 45.870    462.506    503.630    -41.124    496.645    502.432    496.645    497.842    496.645
 45.970    473.000    503.804    -30.804    496.588    502.558    496.588    497.834    496.588
 46.070    476.808    504.007    -27.199    496.532    502.708    496.532    497.830    496.532
 46.170    538.000    504.240     33.760    496.478    502.885    496.478    497.833    496.478
 46.270    519.000    504.510     14.490    496.426    503.093    496.426    497.842    496.426
 46.370    472.000    504.822    -32.822    496.375    503.338    496.375    497.857    496.375
 46.470    514.000    505.183      8.817    496.325    503.627    496.325    497.880    496.325
 46.570    528.784    505.606     23.178    496.277    503.971    496.277    497.911    496.277
 46.670    489.000    506.106    -17.106    496.230    504.383    496.230    497.951    496.230
 46.770    487.000    506.712    -19.712    496.185    504.894    496.185    498.001    496.185
 46.870    481.275    507.482    -26.207    496.141    505.559    496.141    498.062    496.141
 46.970    547.000    508.547     38.453    496.098    506.507    496.098    498.136    496.098
 47.070    488.000    510.182    -22.182    496.057    508.011    496.057    498.224    496.057
 47.170    528.000    512.904     15.096    496.018    510.588    496.018    498.329    496.018
 47.270    513.000    517.527     -4.527    495.979    515.045    495.979    498.452    495.979
 47.370    514.000    525.073    -11.073    495.942    522.404    495.942    498.597    495.942
 47.470    533.996    536.316     -2.321    495.907    533.433    495.907    498.768    495.907
 47.570    508.000    551.118    -43.118    495.873    547.990    495.873    498.968    495.873
 47.670    569.000    567.694      1.306    495.840    564.287    495.840    499.203    495.840
 47.770    612.000    582.193     29.807    495.809    578.467    495.809    499.481    495.809
 47.870    598.000    589.491      8.509    495.779    585.402    495.779    499.811    495.779
 47.970    628.000    586.563     41.437    495.751    582.056    495.751    500.206    495.751
 48.070    609.771    575.475     34.296    495.724    570.473    495.724    500.683    495.724
 48.170    533.549    561.235    -27.686    495.698    555.630    495.698    501.272    495.698
 48.270    590.000    548.185     41.815    495.674    541.823    495.674    502.015    495.674
 48.370    550.547    538.706     11.842    495.651    531.362    495.651    502.981    495.651
 48.470    548.000    533.428     14.572    495.629    524.772    495.629    504.276    495.629
 48.570    551.000    531.946     19.054    495.609    521.491    495.609    506.058    495.609
 48.670    508.000    533.547    -25.547    495.590    520.589    495.590    508.544    495.590
 48.770    536.364    537.707     -1.343    495.572    521.264    495.572    512.011    495.572
 48.870    563.695    544.253     19.441    495.556    523.034    495.556    516.771    495.556
 48.970    581.000    553.310     27.690    495.541    525.731    495.541    523.115    495.541
 49.070    575.672    565.192     10.480    495.527    529.488    495.527    531.226    495.527
 49.170    566.000    580.438    -14.438    495.515    534.900    495.515    541.047    495.515
 49.270    607.394    600.254      7.140    495.504    543.655    495.504    552.093    495.504
 49.370    596.000    627.822    -31.822    495.494    560.101    495.494    563.201    495.494
 49.470    694.000    670.963     23.037    495.486    594.061    495.486    572.363    495.486
 49.570    774.607    745.888     28.719    495.478    664.185    495.478    577.136    495.478
 49.670    868.000    879.157    -11.157    495.473    798.615    495.473    575.935    495.473
 49.770   1164.000   1101.397     62.603    495.468   1027.537    495.468    569.205    495.468
 49.870   1473.000   1427.996     45.004    495.465   1364.251    495.465    559.045    495.465
 49.970   1832.429   1832.550     -0.120    495.463   1780.024    495.463    547.808    495.463
 50.070   2240.000   2230.395      9.605    495.462   2188.546    495.462    537.166    495.462
 50.170   2454.000   2492.954    -38.954    495.462   2460.373    495.462    527.993    495.462
 50.270   2386.000   2509.802   -123.802    495.464   2484.754    495.464    520.584    495.464
 50.370   2331.000   2270.194     60.806    495.467   2250.936    495.467    514.890    495.467
 50.470   1836.000   1873.595    -37.595    495.471   1858.591    495.471    510.674    495.471
 50.570   1351.000   1453.115   -102.115    495.476   1441.143    495.476    507.628    495.476
 50.670   1036.000   1104.821    -68.821    495.483   1094.989    495.483    505.452    495.483
 50.770    784.000    866.210    -82.210    495.491    857.905    495.491    503.890    495.491
 50.870    725.000    728.037     -3.037    495.500    720.851    495.500    502.749    495.500
 50.970    626.055    658.994    -32.940    495.510    652.659    495.510    501.891    495.510
 51.070    601.000    626.753    -25.753    495.521    621.085    495.521    501.227    495.521
 51.170    640.909    608.585     32.323    495.534    603.453    495.534    500.700    495.534
 51.270    608.000    593.368     14.632    495.547    588.672    495.547    500.271    495.547
 51.370    595.000    578.368     16.632    495.562    574.034    495.562    499.919    495.562
 51.470    592.000    564.428     27.572    495.578    560.397    495.578    499.626    495.578
 51.570    562.362    552.810      9.552    495.596    549.035    495.596    499.382    495.596
 51.670    541.000    544.132     -3.132    495.614    540.576    495.614    499.178    495.614
 51.770    577.000    538.311     38.689    495.633    534.942    495.633    499.007    495.633
 51.870    563.521    534.838     28.683    495.654    531.631    495.654    498.865    495.654
 51.970    555.781    533.104     22.677    495.676    530.034    495.676    498.748    495.676
 52.070    540.779    532.618      8.161    495.699    529.668    495.699    498.652    495.699
 52.170    488.984    533.108    -44.124    495.723    530.258    495.723    498.574    495.723
 52.270    572.000    534.531     37.469    495.748    531.767    495.748    498.513    495.748
 52.370    556.000    537.125     18.875    495.774    534.433    495.774    498.467    495.774
 52.470    569.000    541.572     27.428    495.801    538.941    495.801    498.434    495.801
 52.570    564.000    549.349     14.651    495.829    546.767    495.829    498.412    495.829
 52.670    618.000    563.237     54.763    495.859    560.694    495.859    498.402    495.859
 52.770    544.296    587.766    -43.470    495.889    585.253    495.889    498.401    495.889
 52.870    641.000    629.089     11.911    495.921    626.598    495.921    498.410    495.921
 52.970    699.000    693.630      5.370    495.953    691.152    495.953    498.427    495.953
 53.070    806.000    785.164     20.836    495.987    782.693    495.987    498.452    495.987
 53.170    919.783    900.855     18.928    496.022    898.386    496.022    498.485    496.022
 53.270   1069.000   1027.493     41.507    496.057   1025.024    496.057    498.526    496.057
 53.370   1094.043   1139.729    -45.686    496.094   1137.256    496.094    498.574    496.094
 53.470   1191.000   1204.540    -13.540    496.132   1202.062    496.132    498.629    496.132
 53.570   1211.000   1197.736     13.264    496.171   1195.247    496.171    498.691    496.171
 53.670   1131.000   1122.365      8.635    496.210   1119.854    496.210    498.760    496.210
 53.770   1005.950   1005.877      0.073    496.251   1003.331    496.251    498.836    496.251
 53.870    882.000    880.500      1.500    496.293    877.908    496.293    498.918    496.293
 53.970    770.000    769.343      0.657    496.335    766.696    496.335    499.008    496.335
 54.070    707.873    683.488     24.386    496.379    680.780    496.379    499.105    496.379
 54.170    656.000    624.262     31.738    496.424    621.488    496.424    499.210    496.424
 54.270    614.000    587.147     26.853    496.469    584.301    496.469    499.322    496.469
 54.370    541.824    565.625    -23.800    496.515    562.703    496.515    499.442    496.515
 54.470    564.000    553.802     10.198    496.563    550.797    496.563    499.570    496.563
 54.570    544.000    547.490     -3.490    496.611    544.395    496.611    499.708    496.611
 54.670    546.000    544.181      1.819    496.660    540.988    496.660    499.855    496.660
 54.770    557.684    542.563     15.121    496.710    539.264    496.710    500.011    496.710
 54.870    527.000    542.018    -15.018    496.761    538.602    496.761    500.179    496.761
 54.970    550.000    542.277      7.723    496.813    538.734    496.813    500.357    496.813
 55.070    538.000    543.241     -5.241    496.866    539.559    496.866    500.549    496.866
 55.170    573.000    544.891     28.109    496.920    541.058    496.920    500.753    496.920
 55.270    553.000    547.264      5.736    496.974    543.266    496.974    500.972    496.974
 55.370    551.000    550.448      0.552    497.030    546.271    497.030    501.207    497.030
 55.470    567.000    554.613     12.387    497.086    550.240    497.086    501.460    497.086
 55.570    536.404    560.084    -23.680    497.143    555.495    497.143    501.732    497.143
 55.670    531.000    567.542    -36.542    497.201    562.718    497.201    502.025    497.201
 55.770    614.553    578.465     36.088    497.259    573.382    497.259    502.341    497.259
 55.870    615.000    595.965     19.035    497.319    590.597    497.319    502.685    497.319
 55.970    628.000    626.100      1.900    497.379    620.416    497.379    503.058    497.379
 56.070    642.182    679.368    -37.186    497.440    673.332    497.440    503.464    497.440
 56.170    818.074    771.418     46.656    497.502    764.989    497.502    503.908    497.502
 56.270    932.000    921.333     10.667    497.565    914.466    497.565    504.395    497.565
 56.370   1183.547   1145.911     37.637    497.628   1138.556    497.628    504.931    497.628
 56.470   1415.000   1449.971    -34.971    497.692   1442.078    497.692    505.523    497.692
 56.570   1763.000   1815.404    -52.404    497.757   1806.922    497.757    506.181    497.757
 56.670   2275.268   2193.344     81.924    497.823   2184.222    497.823    506.913    497.823
 56.770   2442.689   2504.676    -61.988    497.889   2494.856    497.889    507.734    497.889
 56.870   2653.000   2659.358     -6.358    497.956   2648.761    497.956    508.659    497.956
 56.970   2572.463   2603.490    -31.027    498.024   2591.996    498.024    509.708    498.024
 57.070   2341.900   2359.056    -17.156    498.093   2346.485    498.093    510.907    498.093
 57.170   2131.000   2005.611    125.389    498.162   1991.733    498.162    512.293    498.162
 57.270   1572.000   1630.669    -58.669    498.232   1615.209    498.232    513.918    498.232
 57.370   1297.000   1298.077     -1.077    498.302   1280.701    498.302    515.860    498.302
 57.470   1071.529   1040.044     31.485    498.374   1020.309    498.374    518.238    498.374
 57.570    899.601    861.687     37.914    498.445    838.980    498.445    521.237    498.445
 57.670    756.000    751.196      4.804    498.518    724.631    498.518    525.134    498.518
 57.770    690.000    690.728     -0.728    498.591    659.020    498.591    530.326    498.591
 57.870    642.164    664.346    -22.182    498.665    625.663    498.665    537.359    498.665
 57.970    644.000    661.718    -17.718    498.739    613.533    498.739    546.924    498.739
 58.070    726.189    678.435     47.754    498.814    617.417    498.814    559.823    498.814
 58.170    689.755    714.442    -24.687    498.890    636.437    498.890    576.874    498.890
 58.270    740.000    771.728    -31.728    498.966    671.893    498.966    598.769    498.966
 58.370    827.000    851.889    -24.889    499.043    725.028    499.043    625.861    499.043
 58.470    930.715    953.924    -23.209    499.120    795.087    499.120    657.906    499.120
 58.570   1119.000   1072.583     46.417    499.198    877.999    499.198    693.726    499.198
 58.670   1132.754   1197.570    -64.816    499.277    966.036    499.277    730.758    499.277
 58.770   1332.000   1314.868     17.132    499.356   1049.573    499.356    764.608    499.356
 58.870   1373.193   1409.829    -36.636    499.436   1120.020    499.436    789.218    499.436
 58.970   1509.000   1469.596     39.404    499.516   1170.460    499.516    798.645    499.516
 59.070   1576.000   1484.794     91.206    499.596   1194.169    499.596    790.235    499.596
 59.170   1542.000   1453.559     88.441    499.678   1186.841    499.678    766.425    499.678
 59.270   1383.135   1385.467     -2.332    499.759   1152.189    499.759    733.070    499.759
 59.370   1312.157   1299.024     13.132    499.841   1102.620    499.841    696.267    499.841
 59.470   1154.432   1214.306    -59.874    499.924   1053.730    499.924    660.496    499.924
 59.570   1149.295   1148.731      0.564    500.007   1020.294    500.007    628.405    500.007
 59.670   1167.000   1117.266     49.734    500.091   1016.041    500.091    601.232    500.091
 59.770   1199.000   1131.339     67.661    500.175   1052.119    500.175    579.259    500.175
 59.870   1260.000   1194.067     65.933    500.259   1131.977    500.259    562.156    500.259
 59.970   1312.000   1295.619     16.381    500.344   1246.470    500.344    549.247    500.344
 60.070   1379.000   1411.927    -32.927    500.429   1372.356    500.429    539.716    500.429
 60.170   1488.609   1507.562    -18.953    500.515   1475.022    500.515    532.758    500.515
 60.270   1477.565   1545.225    -67.660    500.601   1517.875    500.601    527.677    500.601
 60.370   1574.000   1503.305     70.695    500.687   1479.848    500.687    523.924    500.687
 60.470   1384.000   1388.923     -4.923    500.774   1368.447    500.774    521.095    500.774
 60.570   1231.536   1231.105      0.431    500.862   1212.958    500.862    518.913    500.862
 60.670   1120.551   1063.463     57.088    500.949   1047.166    500.949    517.196    500.949
 60.770    863.000    912.268    -49.268    501.037    897.454    501.037    515.829    501.037
 60.870    775.000    792.311    -17.311    501.126    778.688    501.126    514.740    501.126
 60.970    723.000    707.680     15.320    501.214    695.004    501.214    513.886    501.214
 61.070    659.000    655.337      3.663    501.303    643.397    501.303    513.237    501.303
 61.170    653.984    629.642     24.342    501.393    618.248    501.393    512.774    501.393
 61.270    650.000    626.122     23.878    501.482    615.105    501.482    512.479    501.482
 61.370    614.677    643.536    -28.860    501.572    632.748    501.572    512.329    501.572
 61.470    711.000    684.032     26.968    501.662    673.349    501.662    512.295    501.662
 61.570    745.666    751.565     -5.899    501.753    740.909    501.753    512.334    501.753
 61.670    821.000    848.971    -27.971    501.843    838.325    501.843    512.386    501.843
 61.770   1002.005    974.387     27.619    501.934    963.812    501.934    512.374    501.934
 61.870   1082.000   1118.097    -36.097    502.026   1107.735    502.026    512.223    502.026
 61.970   1235.000   1261.000    -26.000    502.117   1251.042    502.117    511.894    502.117
 62.070   1389.000   1375.900     13.100    502.209   1366.529    502.209    511.400    502.209
 62.170   1450.000   1434.011     15.989    502.301   1425.358    502.301    510.797    502.301
 62.270   1443.822   1417.911     25.911    502.393   1410.034    502.393    510.154    502.393
 62.370   1269.000   1332.339    -63.339    502.485   1325.227    502.485    509.527    502.485
 62.470   1142.000   1200.820    -58.820    502.578   1194.414    502.578    508.952    502.578
 62.570    967.000   1052.531    -85.531    502.671   1046.748    502.671    508.448    502.671
 62.670    906.000    911.794     -5.794    502.764    906.544    502.764    508.022    502.764
 62.770    735.000    793.836    -58.836    502.857    789.032    502.857    507.674    502.857
 62.870    670.000    704.644    -34.644    502.950    700.209    502.950    507.396    502.950
 62.970    648.000    643.063      4.937    503.043    638.935    503.043    507.179    503.043
 63.070    676.000    603.892     72.108    503.137    600.019    503.137    507.013    503.137
 63.170    608.463    580.793     27.670    503.230    577.134    503.230    506.889    503.230
 63.270    588.126    568.239     19.887    503.324    564.764    503.324    506.796    503.324
 63.370    555.862    562.385     -6.523    503.418    559.068    503.418    506.729    503.418
 63.470    530.648    561.171    -30.523    503.512    557.995    503.512    506.681    503.512
 63.570    611.000    564.101     46.899    503.606    561.048    503.606    506.649    503.606
 63.670    570.688    571.954     -1.267    503.700    569.010    503.700    506.630    503.700
 63.770    577.707    586.506     -8.799    503.794    583.658    503.794    506.622    503.794
 63.870    610.000    610.150     -0.150    503.888    607.385    503.888    506.622    503.888
 63.970    666.000    645.284     20.716    503.982    642.592    503.982    506.630    503.982
 64.070    693.000    693.415     -0.415    504.077    690.785    504.077    506.645    504.077
 64.170    710.030    754.074    -44.044    504.171    751.496    504.171    506.666    504.171
 64.270    874.033    823.808     50.225    504.265    821.277    504.265    506.693    504.265
 64.370    967.000    895.531     71.469    504.360    893.045    504.360    506.726    504.360
 64.470    921.094    958.753    -37.659    504.454    956.314    504.454    506.762    504.454
 64.570    948.000   1001.784    -53.784    504.548    999.401    504.548    506.804    504.548
 64.670    978.640   1016.272    -37.632    504.643   1013.952    504.643    506.849    504.643
 64.770    990.287   1000.918    -10.631    504.737    998.666    504.737    506.898    504.737
 64.870    957.802    961.034     -3.232    504.831    958.852    504.831    506.950    504.831
 64.970    970.000    905.673     64.327    504.925    903.557    504.925    507.006    504.925
 65.070    873.826    844.659     29.166    505.019    842.602    505.019    507.065    505.019
 65.170    765.000    785.961    -20.961    505.113    783.954    505.113    507.127    505.113
 65.270    762.745    734.206     28.539    505.207    732.241    505.207    507.191    505.207
 65.370    664.767    690.900    -26.134    505.301    688.967    505.301    507.259    505.301
 65.470    654.000    655.733     -1.733    505.395    653.825    505.395    507.328    505.395
 65.570    624.000    627.817     -3.817    505.488    625.927    505.488    507.400    505.488
 65.670    624.000    606.175     17.825    505.582    604.300    505.582    507.474    505.582
 65.770    560.625    589.819    -29.193    505.675    587.956    505.675    507.551    505.675
 65.870    538.000    577.816    -39.816    505.769    575.963    505.769    507.629    505.769
 65.970    567.378    569.364     -1.985    505.862    567.520    505.862    507.710    505.862
 66.070    591.524    563.796     27.727    505.955    561.960    505.955    507.792    505.955
 66.170    543.851    560.572    -16.721    506.047    558.743    506.047    507.877    506.047
 66.270    602.000    559.257     42.743    506.140    557.434    506.140    507.963    506.140
 66.370    525.000    559.532    -34.532    506.233    557.713    506.233    508.051    506.233
 66.470    536.000    561.228    -25.228    506.325    559.412    506.325    508.141    506.325
 66.570    528.000    564.396    -36.396    506.417    562.580    506.417    508.233    506.417
 66.670    530.000    569.418    -39.418    506.509    567.600    506.509    508.327    506.509
 66.770    594.000    577.226     16.774    506.600    575.404    506.600    508.423    506.600
 66.870    611.140    589.637     21.503    506.692    587.808    506.692    508.521    506.692
 66.970    589.000    609.822    -20.822    506.783    607.983    506.783    508.620    506.783
 67.070    595.000    642.800    -47.800    506.873    640.947    506.873    508.722    506.873
 67.170    684.448    695.711    -11.263    506.964    693.841    506.964    508.826    506.964
 67.270    743.000    777.511    -34.511    507.054    775.621    507.054    508.931    507.054
 67.370    873.000    897.663    -24.663    507.144    895.751    507.144    509.039    507.144
 67.470   1094.484   1063.620     30.864    507.234   1061.686    507.234    509.149    507.234
 67.570   1331.521   1277.354     54.168    507.324   1275.402    507.324    509.262    507.324
 67.670   1494.000   1531.702    -37.702    507.413   1529.741    507.413    509.377    507.413
 67.770   1813.311   1807.622      5.689    507.502   1805.664    507.502    509.495    507.502
 67.870   2091.253   2073.374     17.880    507.590   2071.432    507.590    509.615    507.590
 67.970   2321.000   2287.050     33.950    507.678   2285.136    507.678    509.739    507.678
 68.070   2488.000   2405.392     82.608    507.766   2403.511    507.766    509.865    507.766
 68.170   2392.000   2400.106     -8.106    507.854   2398.245    507.854    509.995    507.854
 68.270   2317.000   2272.633     44.367    507.941   2270.764    507.941    510.129    507.941
 68.370   2024.000   2053.257    -29.257    508.027   2051.344    508.027    510.266    508.027
 68.470   1843.000   1785.601     57.399    508.114   1783.610    508.114    510.408    508.114
 68.570   1547.477   1510.897     36.579    508.200   1508.805    508.200    510.554    508.200
 68.670   1287.886   1259.842     28.044    508.285   1257.634    508.285    510.705    508.285
 68.770   1077.041   1050.410     26.631    508.371   1048.080    508.371    510.862    508.371
 68.870    917.000    888.871     28.129    508.455    886.417    508.455    511.024    508.455
 68.970    795.000    772.651     22.349    508.540    770.076    508.540    511.193    508.540
 69.070    677.000    694.011    -17.011    508.623    691.317    508.623    511.369    508.623
 69.170    618.173    643.456    -25.283    508.707    640.643    508.707    511.553    508.707
 69.270    628.000    612.150     15.850    508.790    609.215    508.790    511.746    508.790
 69.370    569.785    593.119    -23.333    508.872    590.057    508.872    511.949    508.872
 69.470    583.000    581.496      1.504    508.954    578.298    508.954    512.162    508.954
 69.570    547.000    574.206    -27.206    509.036    570.862    509.036    512.387    509.036
 69.670    627.000    569.461     57.539    509.117    565.957    509.117    512.626    509.117
 69.770    601.197    566.288     34.909    509.198    562.609    509.198    512.880    509.198
 69.870    579.000    564.184     14.816    509.278    560.314    509.278    513.150    509.278
 69.970    578.750    562.901     15.849    509.357    558.819    509.357    513.441    509.357
 70.070    536.416    562.325    -25.909    509.436    558.009    509.436    513.753    509.436
 70.170    574.548    562.420     12.128    509.515    557.845    509.515    514.090    509.515
 70.270    575.000    563.222     11.778    509.593    558.358    509.593    514.456    509.593
 70.370    578.000    564.850     13.150    509.670    559.663    509.670    514.854    509.670
 70.470    536.510    567.569    -31.059    509.747    562.021    509.747    515.291    509.747
 70.570    577.000    571.894      5.106    509.823    565.938    509.823    515.774    509.823
 70.670    605.877    578.751     27.127    509.899    572.332    509.899    516.309    509.899
 70.770    558.000    589.708    -31.708    509.974    582.760    509.974    516.910    509.974
 70.870    581.000    607.233    -26.233    510.049    599.670    510.049    517.593    510.049
 70.970    598.932    634.894    -35.962    510.123    626.606    510.123    518.382    510.123
 71.070    642.000    677.373    -35.373    510.196    668.214    510.196    519.313    510.196
 71.170    737.000    740.098     -3.098    510.269    729.862    510.269    520.442    510.269
 71.270    807.000    828.356    -21.356    510.341    816.756    510.341    521.855    510.341
 71.370    890.000    945.848    -55.848    510.412    932.468    510.412    523.677    510.412
 71.470   1074.000   1092.892    -18.892    510.483   1077.140    510.483    526.088    510.483
 71.570   1189.000   1264.673    -75.673    510.553   1245.714    510.553    529.335    510.553
 71.670   1448.000   1450.009     -2.009    510.622   1426.694    510.622    533.737    510.622
 71.770   1637.000   1631.043      5.957    510.691   1601.841    510.691    539.680    510.691
 71.870   1800.404   1784.446     15.958    510.759   1747.407    510.759    547.590    510.759
 71.970   1922.288   1885.409     36.879    510.827   1838.162    510.827    557.886    510.827
 72.070   1866.493   1915.376    -48.883    510.894   1855.210    510.894    570.907    510.894
 72.170   1846.000   1870.546    -24.546    510.960   1794.574    510.960    586.819    510.960
 72.270   1786.411   1763.975     22.436    511.025   1669.415    511.025    605.510    511.025
 72.370   1696.486   1618.909     77.577    511.090   1503.466    511.090    626.488    511.090
 72.470   1533.000   1459.575     73.425    511.154   1321.943    511.154    648.762    511.154
 72.570   1325.998   1305.301     20.697    511.217   1145.762    511.217    670.744    511.217
 72.670   1204.232   1168.279     35.953    511.279    989.340    511.279    690.213    511.279
 72.770   1008.851   1053.547    -44.696    511.341    860.376    511.341    704.509    511.341
 72.870    896.000    960.529    -64.529    511.402    760.757    511.402    711.170    511.402
 72.970    769.000    885.588   -116.588    511.462    688.152    511.462    708.894    511.462
 73.070    780.000    824.515    -44.515    511.521    637.865    511.521    698.167    511.521
 73.170    788.474    773.905     14.570    511.580    604.470    511.580    681.010    511.580
 73.270    684.124    731.410    -47.285    511.638    582.964    511.638    660.080    511.638
 73.370    652.358    695.506    -43.148    511.695    569.351    511.695    637.847    511.695
 73.470    624.000    665.244    -41.244    511.751    560.785    511.751    616.208    511.751
 73.570    650.562    640.052     10.511    511.807    555.424    511.807    596.434    511.807
 73.670    599.000    619.569    -20.569    511.861    552.183    511.861    579.249    511.861
 73.770    594.000    603.490     -9.490    511.915    550.472    511.915    564.939    511.915
 73.870    600.330    591.466      8.864    511.968    549.984    511.968    553.459    511.968
 73.970    605.139    583.044     22.094    512.020    550.534    512.020    544.544    512.020
 74.070    531.731    577.667    -45.936    512.072    551.953    512.072    537.804    512.072
 74.170    625.000    574.679     50.321    512.122    554.016    512.122    532.809    512.122
 74.270    533.663    573.356    -39.693    512.172    556.408    512.172    529.151    512.172
 74.370    541.560    572.931    -31.371    512.220    558.712    512.220    526.476    512.220
 74.470    632.000    572.639     59.361    512.268    560.445    512.268    524.502    512.268
 74.570    603.700    571.805     31.895    512.315    561.145    512.315    523.019    512.315
 74.670    598.197    569.988     28.208    512.361    560.519    512.361    521.875    512.361
 74.770    538.157    567.100    -28.942    512.406    558.582    512.406    520.966    512.406
 74.870    599.000    563.387     35.613    512.451    555.651    512.451    520.225    512.451
 74.970    569.234    559.302      9.932    512.494    552.224    512.494    519.605    512.494
 75.070    568.000    555.361     12.639    512.536    548.847    512.536    519.077    512.536
 75.170    591.000    552.070     38.930    512.578    546.046    512.578    518.622    512.578
 75.270    564.294    549.911     14.382    512.619    544.318    512.619    518.225    512.619
 75.370    549.000    549.360     -0.360    512.658    544.149    512.658    517.876    512.658
 75.470    563.774    550.908     12.866    512.697    546.038    512.697    517.569    512.697
 75.570    542.268    555.070    -12.801    512.735    550.504    512.735    517.296    512.735
 75.670    569.798    562.352      7.446    512.772    558.059    512.772    517.054    512.772
 75.770    601.000    573.173     27.827    512.807    569.126    512.807    516.838    512.807
 75.870    601.000    587.731     13.269    512.842    583.904    512.842    516.644    512.842
 75.970    592.439    605.843    -13.404    512.876    602.215    512.876    516.471    512.876
 76.070    621.000    626.792     -5.792    512.909    623.344    512.909    516.315    512.909
 76.170    625.000    649.226    -24.226    512.941    645.942    512.941    516.174    512.941
 76.270    688.746    671.132     17.614    512.972    667.999    512.972    516.047    512.972
 76.370    736.000    689.936     46.064    513.002    686.943    513.002    515.932    513.002
 76.470    716.778    702.826     13.952    513.031    699.964    513.031    515.828    513.031
 76.570    712.000    707.447      4.553    513.059    704.710    513.059    515.733    513.059
 76.670    663.092    702.817    -39.726    513.086    700.200    513.086    515.646    513.086
 76.770    676.000    689.801    -13.801    513.112    687.296    513.112    515.567    513.112
 76.870    655.000    670.678    -15.678    513.137    668.279    513.137    515.495    513.137
 76.970    584.000    648.238    -64.238    513.160    645.939    513.160    515.429    513.160
 77.070    582.000    625.061    -43.061    513.183    622.854    513.183    515.368    513.183
 77.170    619.075    603.170     15.904    513.205    601.048    513.205    515.312    513.205
 77.270    559.000    583.914    -24.914    513.226    581.870    513.226    515.260    513.226
 77.370    587.000    567.985     19.015    513.245    566.011    513.245    515.212    513.245
 77.470    525.000    555.510    -30.510    513.264    553.603    513.264    515.167    513.264
 77.570    524.000    546.213    -22.213    513.281    544.366    513.281    515.125    513.281
 77.670    551.000    539.578     11.422    513.298    537.788    513.298    515.086    513.298
 77.770    500.000    535.011    -35.011    513.313    533.272    513.313    515.050    513.313
 77.870    513.399    531.932    -18.533    513.327    530.242    513.327    515.016    513.327
 77.970    519.829    529.885    -10.056    513.341    528.241    513.341    514.984    513.341
 78.070    491.255    528.546    -37.292    513.353    526.945    513.353    514.953    513.353
 78.170    521.095    527.650     -6.555    513.364    526.088    513.364    514.924    513.364
 78.270    510.000    527.035    -17.035    513.374    525.511    513.374    514.897    513.374
 78.370    525.000    526.606     -1.606    513.382    525.117    513.382    514.871    513.382
 78.470    514.000    526.312    -12.312    513.390    524.855    513.390    514.846    513.390
 78.570    507.000    526.127    -19.127    513.397    524.700    513.397    514.823    513.397
 78.670    530.000    526.048      3.952    513.402    524.649    513.402    514.800    513.402
 78.770    549.000    526.080     22.920    513.406    524.706    513.406    514.779    513.406
 78.870    545.000    526.242     18.758    513.409    524.891    513.409    514.760    513.409
 78.970    553.297    526.555     26.741    513.411    525.224    513.411    514.742    513.411
 79.070    534.000    527.048      6.952    513.412    525.734    513.412    514.726    513.412
 79.170    521.000    527.753     -6.753    513.412    526.451    513.412    514.712    513.412
 79.270    544.502    528.697     15.804    513.411    527.404    513.411    514.701    513.411
 79.370    546.033    529.907     16.126    513.408    528.619    513.408    514.694    513.408
 79.470    531.000    531.411     -0.411    513.404    530.121    513.404    514.691    513.404
 79.570    554.000    533.243     20.757    513.399    531.946    513.399    514.692    513.399
 79.670    493.702    535.458    -41.756    513.393    534.147    513.393    514.699    513.393
 79.770    531.000    538.148     -7.148    513.386    536.817    513.386    514.711    513.386
 79.870    547.000    541.462      5.538    513.378    540.105    513.378    514.729    513.378
 79.970    534.000    545.631    -11.631    513.368    544.241    513.368    514.753    513.368
 80.070    512.000    550.994    -38.994    513.357    549.567    513.357    514.780    513.357
 80.170    567.000    557.991      9.009    513.345    556.523    513.345    514.810    513.345
 80.270    553.000    567.118    -14.118    513.332    565.608    513.332    514.841    513.332
 80.370    613.229    578.821     34.409    513.318    577.272    513.318    514.868    513.318
 80.470    542.000    593.383    -51.383    513.302    591.802    513.302    514.887    513.302
 80.570    625.000    610.810     14.190    513.285    609.210    513.285    514.895    513.285
 80.670    642.512    630.747     11.765    513.268    629.143    513.268    514.885    513.268
 80.770    661.000    652.437      8.563    513.248    650.850    513.248    514.855    513.248
 80.870    685.000    674.750     10.250    513.228    673.197    513.228    514.806    513.228
 80.970    705.000    696.299      8.701    513.206    694.797    513.206    514.740    513.206
 81.070    697.000    715.645    -18.645    513.183    714.206    513.183    514.661    513.183
 81.170    696.546    731.485    -34.939    513.159    730.115    513.159    514.575    513.159
 81.270    750.000    742.775      7.225    513.134    741.477    513.134    514.484    513.134
 81.370    753.000    748.814      4.186    513.108    747.586    513.108    514.394    513.108
 81.470    738.000    749.319    -11.319    513.080    748.157    513.080    514.305    513.080
 81.570    779.000    744.437     34.563    513.051    743.333    513.051    514.221    513.051
 81.670    759.000    734.690     24.310    513.021    733.638    513.021    514.141    513.021
 81.770    751.000    720.945     30.055    512.989    719.937    512.989    514.067    512.989
 81.870    682.581    704.378    -21.798    512.957    703.406    512.957    513.997    512.957
 81.970    725.000    686.309     38.691    512.923    685.365    512.923    513.932    512.923
 82.070    636.913    667.930    -31.018    512.887    667.009    512.887    513.871    512.887
 82.170    701.000    650.094     50.906    512.851    649.191    512.851    513.813    512.851
 82.270    632.000    633.268     -1.268    512.813    632.378    512.813    513.758    512.813
 82.370    615.000    617.641     -2.641    512.774    616.761    512.774    513.705    512.774
 82.470    606.000    603.302      2.698    512.734    602.428    512.734    513.653    512.734
 82.570    593.000    590.360      2.640    512.693    589.490    512.693    513.602    512.693
 82.670    565.000    578.978    -13.978    512.650    578.110    512.650    513.551    512.650
 82.770    578.000    569.330      8.670    512.606    568.462    512.606    513.500    512.606
 82.870    579.414    561.574     17.840    512.561    560.704    512.561    513.449    512.561
 82.970    556.000    555.827      0.173    512.514    554.955    512.514    513.398    512.514
 83.070    575.000    552.153     22.847    512.467    551.278    512.467    513.346    512.467
 83.170    515.309    550.546    -35.237    512.418    549.667    512.418    513.293    512.418
 83.270    507.287    550.905    -43.618    512.367    550.021    512.367    513.240    512.367
 83.370    582.091    553.018     29.072    512.316    552.130    512.316    513.186    512.316
 83.470    555.217    556.553     -1.336    512.263    555.659    512.263    513.131    512.263
 83.570    595.655    561.054     34.602    512.209    560.155    512.209    513.075    512.209
 83.670    603.607    565.957     37.650    512.153    565.054    512.153    513.019    512.153
 83.770    599.938    570.621     29.317    512.097    569.714    512.097    512.961    512.097
 83.870    563.000    574.373    -11.373    512.039    573.464    512.039    512.903    512.039
 83.970    563.390    576.603    -13.213    511.979    575.693    511.979    512.843    511.979
 84.070    511.000    576.881    -65.881    511.919    575.971    511.919    512.783    511.919
 84.170    581.000    575.077      5.923    511.857    574.170    511.857    512.722    511.857
 84.270    530.000    571.392    -41.392    511.794    570.487    511.794    512.659    511.794
 84.370    543.690    566.272    -22.582    511.730    565.372    511.730    512.596    511.730
 84.470    507.000    560.279    -53.279    511.664    559.382    511.664    512.532    511.664
 84.570    522.043    553.964    -31.921    511.597    553.070    511.597    512.467    511.597
 84.670    555.000    547.800      7.200    511.529    546.909    511.529    512.401    511.529
 84.770    505.000    542.146    -37.146    511.459    541.257    511.459    512.334    511.459
 84.870    579.839    537.235     42.604    511.389    536.346    511.389    512.266    511.389
 84.970    514.000    533.177    -19.177    511.317    532.288    511.317    512.197    511.317
 85.070    544.000    529.985     14.015    511.243    529.095    511.243    512.127    511.243
 85.170    557.000    527.596     29.404    511.169    526.703    511.169    512.056    511.169
 85.270    587.000    525.906     61.094    511.093    525.010    511.093    511.984    511.093
 85.370    565.000    524.800     40.200    511.016    523.900    511.016    511.911    511.016
 85.470    531.441    524.171      7.270    510.937    523.266    510.937    511.837    510.937
 85.570    548.000    523.940     24.060    510.857    523.030    510.857    511.763    510.857
 85.670    521.658    524.061     -2.403    510.776    523.145    510.776    511.687    510.776
 85.770    508.000    524.532    -16.532    510.694    523.609    510.694    511.610    510.694
 85.870    534.000    525.391      8.609    510.611    524.461    510.611    511.533    510.611
 85.970    526.000    526.722     -0.722    510.526    525.784    510.526    511.454    510.526
 86.070    531.818    528.651      3.168    510.440    527.703    510.440    511.375    510.440
 86.170    516.989    531.334    -14.345    510.352    530.375    510.352    511.295    510.352
 86.270    511.000    534.955    -23.955    510.263    533.984    510.263    511.214    510.263
 86.370    541.000    539.697      1.303    510.174    538.711    510.174    511.132    510.174
 86.470    522.808    545.717    -22.909    510.082    544.716    510.082    511.049    510.082
 86.570    544.000    553.114     -9.114    509.990    552.095    509.990    510.965    509.990
 86.670    579.000    561.883     17.117    509.896    560.844    509.896    510.881    509.896
 86.770    535.493    571.881    -36.388    509.801    570.822    509.801    510.796    509.801
 86.870    580.398    582.797     -2.398    509.705    581.714    509.705    510.710    509.705
 86.970    564.797    594.132    -29.335    509.607    593.027    509.607    510.623    509.607
 87.070    611.000    605.208      5.792    509.508    604.081    509.508    510.535    509.508
 87.170    640.313    615.194     25.119    509.408    614.047    509.408    510.447    509.408
 87.270    620.000    623.186     -3.186    509.307    622.020    509.307    510.358    509.307
 87.370    594.131    628.340    -34.208    509.204    627.160    509.204    510.269    509.204
 87.470    616.000    630.076    -14.076    509.100    628.885    509.100    510.179    509.100
 87.570    619.704    628.246     -8.542    508.995    627.047    508.995    510.088    508.995
 87.670    644.000    623.167     20.833    508.889    621.963    508.889    509.997    508.889
 87.770    610.000    615.560     -5.560    508.781    614.352    508.781    509.905    508.781
 87.870    632.000    606.336     25.664    508.673    605.125    508.673    509.813    508.673
 87.970    609.000    596.443     12.557    508.562    595.228    508.562    509.720    508.562
 88.070    566.000    586.784    -20.784    508.451    585.564    508.451    509.628    508.451
 88.170    570.000    578.142     -8.142    508.339    576.914    508.339    509.534    508.339
 88.270    624.000    571.135     52.865    508.225    569.898    508.225    509.441    508.225
 88.370    564.000    566.192     -2.192    508.110    564.943    508.110    509.348    508.110
 88.470    609.000    563.543     45.457    507.994    562.280    507.994    509.254    507.994
 88.570    547.000    563.221    -16.221    507.876    561.943    507.876    509.160    507.876
 88.670    557.000    565.079     -8.079    507.757    563.783    507.757    509.067    507.757
 88.770    579.000    568.799     10.201    507.637    567.484    507.637    508.974    507.637
 88.870    590.574    573.921     16.653    507.516    572.585    507.516    508.881    507.516
 88.970    576.000    579.861     -3.861    507.394    578.503    507.394    508.788    507.394
 89.070    583.000    585.945     -2.945    507.271    584.564    507.271    508.696    507.271
 89.170    583.000    591.449     -8.449    507.146    590.040    507.146    508.605    507.146
 89.270    565.204    595.655    -30.451    507.020    594.217    507.020    508.514    507.020
 89.370    595.000    597.952     -2.952    506.893    596.481    506.893    508.425    506.893
 89.470    596.000    597.948     -1.948    506.765    596.439    506.765    508.337    506.765
 89.570    576.000    595.559    -19.559    506.635    594.007    506.635    508.250    506.635
 89.670    553.000    591.017    -38.017    506.504    589.417    506.504    508.166    506.504
 89.770    563.000    584.791    -21.791    506.373    583.138    506.373    508.083    506.373
 89.870    605.125    577.461     27.664    506.240    575.751    506.240    508.002    506.240
 89.970    581.499    569.614     11.885    506.105    567.841    506.105    507.924    506.105
 90.070    589.000    561.771     27.229    505.970    559.930    505.970    507.850    505.970
 90.170    574.000    554.356     19.644    505.834    552.442    505.834    507.779    505.834
 90.270    512.872    547.673    -34.801    505.696    545.682    505.696    507.713    505.696
 90.370    524.000    541.911    -17.911    505.557    539.837    505.557    507.651    505.557
 90.470    498.514    537.151    -38.636    505.417    534.986    505.417    507.597    505.417
 90.570    529.000    533.384     -4.384    505.276    531.122    505.276    507.550    505.276
 90.670    569.557    530.542     39.016    505.134    528.171    505.134    507.512    505.134
 90.770    514.000    528.517    -14.517    504.991    526.026    504.991    507.487    504.991
 90.870    487.000    527.193    -40.193    504.847    524.565    504.847    507.478    504.847
 90.970    565.768    526.461     39.307    504.701    523.675    504.701    507.488    504.701
 91.070    497.469    526.235    -28.767    504.554    523.266    504.554    507.524    504.554
 91.170    506.609    526.465    -19.855    504.407    523.278    504.407    507.592    504.407
 91.270    484.621    527.136    -42.514    504.258    523.688    504.258    507.703    504.258
 91.370    515.270    528.251    -12.981    504.108    524.488    504.108    507.868    504.108
 91.470    524.321    529.956     -5.636    503.957    525.808    503.957    508.101    503.957
 91.570    557.000    532.368     24.632    503.805    527.749    503.805    508.418    503.805
 91.670    521.000    535.642    -14.642    503.652    530.447    503.652    508.839    503.652
 91.770    567.000    539.983     27.017    503.498    534.087    503.498    509.383    503.498
 91.870    572.144    545.625     26.520    503.343    538.881    503.343    510.073    503.343
 91.970    525.069    552.812    -27.743    503.186    545.050    503.186    510.931    503.186
 92.070    537.000    561.775    -24.775    503.029    552.807    503.029    511.976    503.029
 92.170    572.000    572.710     -0.710    502.871    562.327    502.871    513.227    502.871
 92.270    613.682    585.741     27.942    502.712    573.726    502.712    514.693    502.712
 92.370    592.000    600.899     -8.899    502.551    587.030    502.551    516.380    502.551
 92.470    664.129    618.090     46.039    502.390    602.152    502.390    518.281    502.390
 92.570    631.000    637.078     -6.078    502.228    618.875    502.228    520.377    502.228
 92.670    639.000    657.470    -18.470    502.064    636.838    502.064    522.635    502.064
 92.770    657.509    678.706    -21.197    501.900    655.535    501.900    525.003    501.900
 92.870    652.930    700.097    -47.166    501.735    674.348    501.735    527.410    501.735
 92.970    744.010    720.865     23.145    501.568    692.593    501.568    529.763    501.568
 93.070    750.000    740.235      9.765    501.401    709.612    501.401    531.945    501.401
 93.170    765.000    757.577      7.423    501.233    724.912    501.233    533.818    501.233
 93.270    722.284    772.518    -50.234    501.064    738.264    501.064    535.238    501.064
 93.370    802.000    784.974     17.026    500.894    749.716    500.894    536.073    500.894
 93.470    789.000    795.107     -6.107    500.723    759.522    500.723    536.231    500.723
 93.570    830.957    803.237     27.721    500.551    768.032    500.551    535.681    500.551
 93.670    808.000    809.778     -1.778    500.378    775.621    500.378    534.463    500.378
 93.770    798.000    815.228    -17.228    500.205    782.686    500.205    532.677    500.205
 93.870    860.000    820.176     39.824    500.030    789.681    500.030    530.458    500.030
 93.970    812.000    825.295    -13.295    499.855    797.134    499.855    527.951    499.855
 94.070    857.009    831.244     25.765    499.679    805.568    499.679    525.291    499.679
 94.170    891.909    838.501     53.407    499.501    815.348    499.501    522.593    499.501
 94.270    832.000    847.192    -15.192    499.323    826.509    499.323    519.947    499.323
 94.370    895.000    856.979     38.021    499.145    838.646    499.145    517.421    499.145
 94.470    850.989    867.043    -16.053    498.965    850.891    498.965    515.063    498.965
 94.570    860.934    876.146    -15.212    498.785    861.977    498.785    512.905    498.785
 94.670    895.000    882.776     12.224    498.603    870.373    498.603    510.964    498.603
 94.770    919.000    885.368     33.632    498.421    874.509    498.421    509.245    498.421
 94.870    929.000    882.594     46.406    498.238    873.063    498.238    507.742    498.238
 94.970    857.268    873.679    -16.410    498.055    865.271    498.055    506.444    498.055
 95.070    861.443    858.603      2.840    497.870    851.131    497.870    505.332    497.870
 95.170    927.000    838.128     88.872    497.685    831.423    497.685    504.388    497.685
 95.270    882.000    813.629     68.371    497.499    807.545    497.499    503.588    497.499
 95.370    757.555    786.858    -29.303    497.313    781.267    497.313    502.911    497.313
 95.470    769.000    759.702      9.298    497.125    754.500    497.125    502.337    497.125
 95.570    750.739    734.086     16.654    496.937    729.185    496.937    501.848    496.937
 95.670    707.000    711.785     -4.785    496.749    707.113    496.749    501.427    496.749
 95.770    672.691    694.405    -21.714    496.559    689.907    496.559    501.062    496.559
 95.870    754.000    683.358     70.642    496.369    678.985    496.369    500.741    496.369
 95.970    703.000    679.842     23.158    496.178    675.557    496.178    500.455    496.178
 96.070    702.000    684.851     17.149    495.987    680.623    495.987    500.198    495.987
 96.170    732.907    699.170     33.737    495.795    694.974    495.795    499.965    495.795
 96.270    734.000    723.367     10.633    495.602    719.181    495.602    499.751    495.602
 96.370    729.449    757.744    -28.295    495.409    753.551    495.409    499.555    495.409
 96.470    835.101    802.275     32.825    495.215    798.059    495.215    499.373    495.215
 96.570    820.211    856.515    -36.304    495.021    852.261    495.021    499.204    495.021
 96.670    935.000    919.496     15.504    494.826    915.192    494.826    499.048    494.826
 96.770    971.000    989.647    -18.647    494.630    985.282    494.630    498.904    494.630
 96.870   1048.000   1064.738    -16.738    494.434   1060.301    494.434    498.773    494.434
 96.970   1088.412   1141.860    -53.449    494.238   1137.342    494.238    498.653    494.238
 97.070   1231.383   1217.473     13.911    494.040   1212.865    494.040    498.545    494.040
 97.170   1350.376   1287.515     62.861    493.843   1282.809    493.843    498.450    493.843
 97.270   1286.848   1347.652    -60.804    493.645   1342.838    493.645    498.368    493.645
 97.370   1361.915   1393.680    -31.765    493.446   1388.749    493.446    498.300    493.446
 97.470   1364.124   1422.117    -57.993    493.247   1417.058    493.247    498.248    493.247
 97.570   1440.000   1430.839      9.161    493.047   1425.637    493.047    498.212    493.047
 97.670   1396.898   1419.491    -22.593    492.847   1414.127    492.847    498.194    492.847
 97.770   1321.552   1389.518    -67.966    492.647   1383.971    492.647    498.197    492.647
 97.870   1330.000   1343.789    -13.789    492.446   1338.032    492.446    498.225    492.446
 97.970   1270.000   1286.031    -16.031    492.245   1280.032    492.245    498.281    492.245
 98.070   1229.000   1220.316      8.684    492.044   1214.036    492.044    498.370    492.044
 98.170   1185.000   1150.687     34.313    491.842   1144.081    491.842    498.501    491.842
 98.270   1126.302   1080.924     45.378    491.639   1073.936    491.639    498.682    491.639
 98.370   1084.000   1014.399     69.601    491.437   1006.963    491.437    498.926    491.437
 98.470    960.000    954.001      5.999    491.234    946.035    491.234    499.249    491.234
 98.570    852.000    902.115    -50.115    491.031    893.518    491.031    499.671    491.031
 98.670    849.000    860.639    -11.639    490.827    851.284    490.827    500.217    490.827
 98.770    785.487    831.028    -45.541    490.624    820.758    490.624    500.918    490.624
 98.870    818.000    814.358      3.642    490.420    802.980    490.420    501.813    490.420
 98.970    783.000    811.397    -28.397    490.215    798.672    490.215    502.946    490.215
 99.070    827.000    822.663      4.337    490.011    808.302    490.011    504.368    490.011
 99.170    883.193    848.441     34.752    489.806    832.098    489.806    506.137    489.806
 99.270    877.000    888.829    -11.829    489.601    870.095    489.601    508.316    489.601
 99.370    998.000    943.639     54.361    489.396    922.041    489.396    510.971    489.396
 99.470   1044.000   1012.345     31.655    489.191    987.342    489.191    514.168    489.191
 99.570   1075.000   1094.007    -19.007    488.986   1064.997    488.986    517.970    488.986
 99.670   1181.000   1187.172     -6.172    488.781   1153.499    488.781    522.431    488.781
 99.770   1267.000   1289.794    -22.794    488.575   1250.761    488.575    527.591    488.575
 99.870   1460.000   1399.174     60.826    488.370   1354.064    488.370    533.475    488.370
 99.970   1584.000   1511.958     72.042    488.164   1460.055    488.164    540.076    488.164
100.070   1669.695   1624.212     45.483    487.958   1564.832    487.958    547.367    487.958
100.170   1668.000   1731.615    -63.615    487.753   1664.141    487.753    555.277    487.753
100.270   1820.000   1829.782     -9.782    487.547   1753.708    487.547    563.697    487.547
100.370   1834.306   1914.649    -80.344    487.341   1829.623    487.341    572.469    487.341
100.470   1979.767   1982.805     -3.038    487.135   1888.681    487.135    581.387    487.135
100.570   2055.087   2031.644     23.444    486.930   1928.538    486.930    590.187    486.930
100.670   2060.000   2059.349      0.651    486.724   1947.698    486.724    598.549    486.724
100.770   2063.000   2064.863     -1.863    486.519   1945.471    486.519    606.102    486.519
100.870   2033.148   2047.978    -14.830    486.313   1922.052    486.313    612.445    486.313
100.970   2002.506   2009.588     -7.082    486.108   1878.732    486.108    617.177    486.108
101.070   1978.000   1951.920     26.080    485.903   1818.082    485.903    619.957    485.903
101.170   1927.000   1878.534     48.466    485.698   1743.886    485.698    620.560    485.698
101.270   1776.000   1793.998    -17.998    485.493   1660.776    485.493    618.922    485.493
101.370   1628.001   1703.336    -75.335    485.289   1573.665    485.289    615.156    485.289
101.470   1542.563   1611.448    -68.885    485.084   1487.188    485.084    609.526    485.084
101.570   1518.000   1522.654     -4.654    484.880   1405.303    484.880    602.398    484.880
101.670   1409.000   1440.398    -31.398    484.676   1331.047    484.676    594.177    484.676
101.770   1427.155   1367.103     60.052    484.473   1266.450    484.473    585.260    484.473
101.870   1290.000   1304.136    -14.136    484.270   1212.521    484.270    576.004    484.270
101.970   1225.000   1251.843    -26.843    484.067   1169.304    484.067    566.713    484.067
102.070   1208.000   1209.644     -1.644    483.864   1135.971    483.864    557.634    483.864
102.170   1196.745   1176.162     20.583    483.662   1110.953    483.662    548.959    483.662
102.270   1103.000   1149.401    -46.401    483.460   1092.114    483.460    540.830    483.460
102.370   1128.000   1126.963      1.037    483.258   1076.957    483.258    533.346    483.258
102.470   1098.000   1106.313     -8.313    483.057   1062.888    483.057    526.562    483.057
102.570   1100.000   1085.087     14.913    482.857   1047.522    482.857    520.503    482.857
102.670    986.000   1061.397    -75.397    482.657   1028.972    482.657    515.163    482.657
102.770   1002.000   1034.054    -32.054    482.457   1006.081    482.457    510.514    482.457
102.870    993.657   1002.650     -8.992    482.258    978.482    482.258    506.509    482.258
102.970   1015.544    967.464     48.080    482.059    946.513    482.059    503.092    482.059
103.070    925.000    929.278     -4.278    481.861    911.021    481.861    500.199    481.861
103.170    903.000    889.159     13.841    481.664    873.136    481.664    497.763    481.664
103.270    838.000    848.275    -10.275    481.467    834.095    481.467    495.719    481.467
103.370    804.000    807.770     -3.770    481.271    795.101    481.271    494.005    481.271
103.470    744.000    768.675    -24.675    481.075    757.244    481.075    492.566    481.075
103.570    736.000    731.856      4.144    480.881    721.438    480.881    491.352    480.881
103.670    680.000    697.980    -17.980    480.686    688.393    480.686    490.319    480.686
103.770    660.000    667.501     -7.501    480.493    658.599    480.493    489.434    480.493
103.870    627.541    640.662    -13.121    480.300    632.330    480.300    488.665    480.300
103.970    632.000    617.514     14.486    480.108    609.660    480.108    487.990    480.108
104.070    626.511    597.946     28.565    479.917    590.496    479.917    487.389    479.917
104.170    555.000    581.723    -26.723    479.727    574.620    479.727    486.847    479.727
104.270    603.000    568.529     34.471    479.537    561.725    479.537    486.354    479.537
104.370    570.000    557.997     12.003    479.349    551.456    479.349    485.900    479.349
104.470    573.000    549.751     23.249    479.161    543.440    479.161    485.479    479.161
104.570    550.000    543.427      6.573    478.974    537.321    478.974    485.085    478.974
104.670    532.000    538.693     -6.693    478.788    532.769    478.788    484.715    478.788
104.770    535.000    535.279     -0.279    478.604    529.519    478.604    484.365    478.604
104.870    518.000    532.955    -14.955    478.420    527.341    478.420    484.033    478.420
104.970    535.045    531.546      3.499    478.237    526.063    478.237    483.718    478.237
105.070    548.504    530.931     17.573    478.055    525.566    478.055    483.417    478.055
105.170    571.000    531.042     39.958    477.874    525.782    477.874    483.130    477.874
105.270    525.000    531.854     -6.854    477.695    526.687    477.695    482.855    477.695
105.370    504.378    533.384    -29.006    477.516    528.299    477.516    482.592    477.516
105.470    545.048    535.681      9.368    477.339    530.669    477.339    482.340    477.339
105.570    523.000    538.821    -15.821    477.162    533.872    477.162    482.099    477.162
105.670    559.000    542.898     16.102    476.987    538.004    476.987    481.867    476.987
105.770    583.000    548.008     34.992    476.814    543.160    476.814    481.645    476.814
105.870    564.000    554.240      9.760    476.641    549.430    476.641    481.431    476.641
105.970    583.059    561.655     21.404    476.470    556.876    476.470    481.226    476.470
106.070    577.000    570.278      6.722    476.300    565.522    476.300    481.030    476.300
106.170    613.000    580.081     32.919    476.131    575.342    476.131    480.841    476.131
106.270    600.000    590.977      9.023    475.964    586.248    475.964    480.660    475.964
106.370    597.004    602.813     -5.809    475.798    598.088    475.798    480.487    475.798
106.470    611.000    615.368     -4.368    475.634    610.641    475.634    480.322    475.634
106.570    595.000    628.356    -33.356    475.471    623.621    475.471    480.164    475.471
106.670    646.639    641.430      5.209    475.309    636.683    475.309    480.013    475.309
106.770    621.522    654.199    -32.676    475.149    649.433    475.149    479.869    475.149
106.870    668.962    666.238      2.724    474.991    661.450    474.991    479.733    474.991
106.970    665.662    677.123    -11.460    474.834    672.307    474.834    479.603    474.834
107.070    699.873    686.460     13.413    474.679    681.612    474.679    479.481    474.679
107.170    667.244    693.940    -26.696    474.525    689.055    474.525    479.366    474.525
107.270    650.000    699.388    -49.388    474.373    694.462    474.373    479.258    474.373
107.370    666.000    702.799    -36.799    474.223    697.827    474.223    479.158    474.223
107.470    682.398    704.347    -21.950    474.074    699.323    474.074    479.065    474.074
107.570    685.000    704.360    -19.360    473.927    699.278    473.927    478.980    473.927
107.670    677.000    703.262    -26.262    473.782    698.117    473.782    478.902    473.782
107.770    662.000    701.512    -39.512    473.639    696.297    473.639    478.833    473.639
107.870    732.000    699.542     32.458    473.497    694.252    473.497    478.771    473.497
107.970    697.000    697.716     -0.716    473.358    692.344    473.358    478.718    473.358
108.070    671.000    696.299    -25.299    473.220    690.838    473.220    478.673    473.220
108.170    724.354    695.436     28.919    473.084    689.879    473.084    478.637    473.084
108.270    656.441    695.147    -38.706    472.950    689.487    472.950    478.610    472.950
108.370    650.000    695.329    -45.329    472.819    689.558    472.819    478.593    472.819
108.470    724.343    695.757     28.586    472.689    689.867    472.689    478.586    472.689
108.570    717.000    696.110     20.890    472.561    690.093    472.561    478.588    472.561
108.670    653.839    695.998    -42.159    472.435    689.845    472.435    478.602    472.435
108.770    698.000    695.008      2.992    472.312    688.709    472.312    478.626    472.312
108.870    740.382    692.759     47.623    472.190    686.306    472.190    478.662    472.190
108.970    659.220    688.962    -29.743    472.071    682.344    472.071    478.711    472.071
109.070    694.000    683.462     10.538    471.954    676.667    471.954    478.772    471.954
109.170    674.000    676.261     -2.261    471.839    669.277    471.839    478.846    471.839
109.270    687.000    667.505     19.495    471.727    660.320    471.727    478.935    471.727
109.370    655.000    657.454     -2.454    471.617    650.054    471.617    479.040    471.617
109.470    618.775    646.435    -27.660    471.509    638.807    471.509    479.160    471.509
109.570    664.000    634.807     29.193    471.404    626.935    471.404    479.298    471.404
109.670    597.250    622.926    -25.676    471.301    614.793    471.301    479.454    471.301
109.770    562.292    611.123    -48.832    471.200    602.712    471.200    479.630    471.200
109.870    628.014    599.698     28.316    471.102    590.990    471.102    479.827    471.102
109.970    559.855    588.900    -29.045    471.006    579.873    471.006    480.048    471.006
110.070    588.000    578.909      9.091    470.913    569.540    470.913    480.295    470.913
110.170    553.760    569.903    -16.143    470.823    560.166    470.823    480.571    470.823
110.270    538.580    561.999    -23.420    470.735    551.864    470.735    480.879    470.735
110.370    539.000    555.227    -16.227    470.650    544.660    470.650    481.224    470.650
110.470    502.625    549.591    -46.966    470.568    538.553    470.568    481.610    470.568
110.570    532.166    545.062    -12.896    470.488    533.509    470.488    482.044    470.488
110.670    548.357    541.585      6.772    470.411    529.464    470.411    482.534    470.411
110.770    575.000    539.085     35.915    470.337    526.332    470.337    483.090    470.337
110.870    557.000    537.478     19.522    470.266    524.019    470.266    483.723    470.266
110.970    562.000    536.676     25.324    470.197    522.422    470.197    484.449    470.197
111.070    524.000    536.595    -12.595    470.132    521.438    470.132    485.285    470.132
111.170    510.382    537.158    -26.777    470.069    520.970    470.069    486.253    470.069
111.270    544.000    538.302      5.698    470.010    520.928    470.010    487.378    470.010
111.370    541.000    539.976      1.024    469.953    521.232    469.953    488.691    469.953
111.470    576.877    542.146     34.731    469.900    521.811    469.900    490.228    469.900
111.570    576.485    544.794     31.691    469.849    522.606    469.849    492.030    469.849
111.670    530.000    547.919    -17.919    469.802    523.569    469.802    494.144    469.802
111.770    578.000    551.537     26.463    469.758    524.662    469.758    496.624    469.758
111.870    577.114    555.681     21.433    469.717    525.860    469.717    499.529    469.717
111.970    555.000    560.395     -5.395    469.679    527.147    469.679    502.918    469.679
112.070    521.616    565.753    -44.137    469.645    528.518    469.645    506.870    469.645
112.170    528.000    571.829    -43.829    469.614    529.979    469.614    511.453    469.614
112.270    584.000    578.709      5.291    469.587    531.545    469.587    516.740    469.587
112.370    546.060    586.491    -40.431    469.562    533.239    469.562    522.803    469.562
112.470    613.514    595.275     18.239    469.542    535.092    469.542    529.713    469.542
112.570    577.000    605.163    -28.163    469.524    537.145    469.524    537.531    469.524
112.670    647.000    616.259     30.741    469.510    539.447    469.510    546.310    469.510
112.770    594.249    628.665    -34.416    469.500    542.063    469.500    556.090    469.500
112.870    690.206    642.487     47.719    469.494    545.076    469.494    566.891    469.494
112.970    672.000    657.830     14.170    469.491    548.592    469.491    578.715    469.491
113.070    668.000    674.809     -6.809    469.491    552.751    469.491    591.534    469.491
113.170    636.000    693.553    -57.553    469.496    557.739    469.496    605.293    469.496
113.270    736.000    714.209     21.791    469.504    563.797    469.504    619.898    469.504
113.370    710.000    736.989    -26.989    469.516    571.244    469.516    635.240    469.516
113.470    800.028    762.135     37.893    469.532    580.492    469.532    651.152    469.532
113.570    800.000    789.975     10.025    469.552    592.074    469.552    667.425    469.552
113.670    829.000    820.933      8.067    469.575    606.666    469.575    683.810    469.575
113.770    855.000    855.561     -0.561    469.603    625.117    469.603    700.010    469.603
113.870    887.000    894.563     -7.563    469.635    648.472    469.635    715.681    469.635
113.970    982.677    938.822     43.855    469.670    678.004    469.670    730.434    469.670
114.070    982.000    989.433     -7.433    469.710    715.229    469.710    743.848    469.710
114.170   1017.468   1047.730    -30.261    469.754    761.920    469.754    755.483    469.754
114.270   1123.000   1115.311      7.689    469.802    820.107    469.802    764.909    469.802
114.370   1210.846   1194.059     16.787    469.855    892.057    469.855    771.739    469.855
114.470   1243.638   1286.143    -42.504    469.911    980.240    469.911    775.670    469.911
114.570   1460.789   1393.986     66.802    469.972   1087.263    469.972    776.522    469.972
114.670   1492.000   1520.208    -28.208    470.038   1215.784    470.038    774.254    470.038
114.770   1738.000   1667.504     70.496    470.108   1368.386    470.108    768.979    470.108
114.870   1929.000   1838.489     90.511    470.182   1547.439    470.182    760.941    470.182
114.970   2091.732   2035.491     56.242    470.260   1754.923    470.260    750.490    470.260
115.070   2234.671   2260.331    -25.660    470.344   1992.248    470.344    738.038    470.344
115.170   2421.233   2514.090    -92.857    470.431   2260.055    470.431    724.025    470.431
115.270   2786.976   2796.883     -9.907    470.524   2558.026    470.524    708.886    470.524
115.370   3175.000   3107.670     67.330    470.621   2884.718    470.621    693.026    470.621
115.470   3410.000   3444.103    -34.103    470.723   3237.415    470.723    676.814    470.723
115.570   3800.000   3802.423     -2.423    470.829   3612.041    470.829    660.570    470.829
115.670   4146.000   4177.419    -31.419    470.941   4003.112    470.941    644.569    470.941
115.770   4519.000   4562.451    -43.451    471.057   4403.764    471.057    629.038    471.057
115.870   4769.000   4949.540   -180.540    471.178   4805.836    471.178    614.161    471.178
115.970   5292.000   5329.532    -37.532    471.304   5200.032    471.304    600.082    471.304
116.070   5616.000   5692.330    -76.330    471.435   5576.152    471.435    586.905    471.435
116.170   6085.754   6027.219     58.535    471.571   5923.412    471.571    574.701    471.571
116.270   6219.572   6323.286   -103.714    471.713   6230.858    471.713    563.511    471.713
116.370   6544.000   6569.966    -25.966    471.859   6487.915    471.859    553.347    471.859
116.470   6855.347   6757.710     97.637    472.011   6685.040    472.011    544.199    472.011
116.570   6845.968   6878.733    -32.765    472.167   6814.478    472.167    536.035    472.167
116.670   7003.649   6927.747     75.902    472.329   6870.982    472.329    528.810    472.329
116.770   7086.000   6902.522    183.478    472.497   6852.379    472.497    522.466    472.497
116.870   6792.000   6804.137    -12.137    472.670   6759.805    472.670    516.936    472.670
116.970   6560.776   6636.830    -76.054    472.848   6597.568    472.848    512.148    472.848
117.070   6333.554   6407.521    -73.967    473.031   6372.655    473.031    508.031    473.031
117.170   6214.353   6125.101     89.252    473.221   6094.028    473.221    504.510    473.221
117.270   5694.000   5799.699   -105.699    473.415   5771.885    473.415    501.515    473.415
117.370   5393.000   5442.024    -49.024    473.616   5416.999    473.616    498.979    473.616
117.470   4899.000   5062.694   -163.694    473.822   5040.051    473.822    496.841    473.822
117.570   4659.000   4671.867    -12.867    474.033   4651.256    474.033    495.044    474.033
117.670   4356.000   4278.882     77.118    474.251   4260.003    474.251    493.538    474.251
117.770   3894.961   3892.006      2.956    474.474   3874.606    474.474    492.278    474.474
117.870   3630.000   3518.267    111.733    474.704   3502.135    474.704    491.227    474.704
117.970   3256.970   3163.360     93.610    474.939   3148.317    474.939    490.350    474.939
118.070   2906.000   2831.619     74.381    475.180   2817.518    475.180    489.621    475.180
118.170   2541.556   2526.058     15.498    475.427   2512.776    475.427    489.016    475.427
118.270   2249.000   2248.463      0.537    475.680   2235.900    475.680    488.515    475.680
118.370   2006.000   1999.525      6.475    475.940   1987.599    475.940    488.102    475.940
118.470   1756.767   1778.999    -22.232    476.205   1767.641    476.205    487.764    476.205
118.570   1515.682   1585.873    -70.191    476.477   1575.027    476.477    487.490    476.477
118.670   1443.000   1418.547     24.453    476.755   1408.166    476.755    487.272    476.755
118.770   1258.000   1275.007    -17.007    477.039   1265.052    477.039    487.103    477.039
118.870   1084.000   1152.977    -68.977    477.330   1143.415    477.330    486.977    477.330
118.970   1032.000   1050.069    -18.069    477.627   1040.871    477.627    486.890    477.627
119.070    909.349    963.894    -54.546    477.931    955.035    477.931    486.838    477.931
119.170    872.000    892.158    -20.158    478.241    883.615    478.241    486.819    478.241
119.270    852.000    832.726     19.274    478.558    824.478    478.558    486.830    478.558
119.370    753.000    783.665    -30.665    478.882    775.694    478.882    486.869    478.882
119.470    731.000    743.269    -12.269    479.212    735.556    479.212    486.935    479.212
119.570    726.000    710.057     15.943    479.549    702.586    479.549    487.026    479.549
119.670    700.833    682.772     18.061    479.893    675.525    479.893    487.143    479.893
119.770    645.000    660.361    -15.361    480.244    653.322    480.244    487.285    480.244
119.870    615.000    641.956    -26.956    480.601    635.107    480.601    487.450    480.601
119.970    627.000    626.847      0.153    480.966    620.174    480.966    487.640    480.966
120.070    603.000    614.464    -11.464    481.337    607.949    481.337    487.853    481.337
120.170    621.128    604.350     16.778    481.716    597.977    481.716    488.090    481.716
120.270    557.000    596.142    -39.142    482.102    589.894    482.102    488.351    482.102
120.370    543.448    589.555    -46.106    482.495    583.415    482.495    488.637    482.495
120.470    581.000    584.363     -3.363    482.896    578.314    482.896    488.947    482.896
120.570    542.023    580.392    -38.369    483.303    574.416    483.303    489.282    483.303
120.670    582.000    577.504      4.496    483.718    571.583    483.718    489.643    483.718
120.770    549.806    575.591    -25.785    484.141    569.707    484.141    490.030    484.141
120.870    565.000    574.569     -9.569    484.571    568.702    484.571    490.443    484.571
120.970    586.000    574.368     11.632    485.009    568.499    485.009    490.883    485.009
121.070    534.000    574.930    -40.930    485.454    569.041    485.454    491.349    485.454
121.170    557.000    576.204    -19.204    485.907    570.276    485.907    491.843    485.907
121.270    532.000    578.143    -46.143    486.367    572.157    486.367    492.364    486.367
121.370    545.686    580.697    -35.011    486.836    574.633    486.836    492.911    486.836
121.470    561.000    583.815    -22.815    487.312    577.656    487.312    493.485    487.312
121.570    585.148    587.440     -2.292    487.796    581.167    487.796    494.084    487.796
121.670    631.000    591.507     39.493    488.288    585.105    488.288    494.707    488.288
121.770    573.938    595.944    -22.006    488.788    589.399    488.788    495.354    488.788
121.870    611.000    600.671     10.329    489.296    593.968    489.296    496.022    489.296
121.970    615.000    605.599      9.401    489.813    598.727    489.813    496.710    489.813
122.070    605.000    610.629     -5.629    490.337    603.580    490.337    497.414    490.337
122.170    636.000    615.656     20.344    490.870    608.424    490.870    498.133    490.870
122.270    651.769    620.570     31.200    491.411    613.152    491.411    498.863    491.411
122.370    656.636    625.254     31.382    491.960    617.651    491.960    499.599    491.960
122.470    660.000    629.595     30.405    492.518    621.813    492.518    500.339    492.518
122.570    640.082    633.483      6.598    493.085    625.532    493.085    501.077    493.085
122.670    649.000    636.817     12.183    493.660    628.711    493.660    501.809    493.660
122.770    683.038    639.510     43.528    494.243    631.268    494.243    502.530    494.243
122.870    605.000    641.496    -36.496    494.836    633.145    494.836    503.233    494.836
122.970    674.000    642.737     31.263    495.437    634.304    495.437    503.916    495.437
123.070    633.000    643.217    -10.217    496.047    634.738    496.047    504.573    496.047
123.170    656.056    642.952     13.104    496.665    634.464    496.665    505.200    496.665
123.270    642.000    641.979      0.021    497.293    633.521    497.293    505.797    497.293
123.370    644.000    640.354      3.646    497.930    631.968    497.930    506.361    497.930
123.470    591.110    638.151    -47.041    498.576    629.876    498.576    506.894    498.576
123.570    655.000    635.451     19.549    499.231    627.325    499.231    507.398    499.231
123.670    607.836    632.340    -24.504    499.895    624.399    499.895    507.875    499.895
123.770    637.000    628.906      8.094    500.568    621.180    500.568    508.330    500.568
123.870    589.644    625.233    -35.589    501.251    617.750    501.251    508.767    501.251
123.970    620.000    621.401     -1.401    501.943    614.182    501.943    509.192    501.943
124.070    668.000    617.482     50.518    502.644    610.544    502.644    509.610    502.644
124.170    642.000    613.540     28.460    503.355    606.894    503.355    510.025    503.355
124.270    645.000    609.625     35.375    504.076    603.280    504.076    510.442    504.076
124.370    663.000    605.780     57.220    504.806    599.739    504.806    510.866    504.806
124.470    589.000    602.034    -13.034    505.546    596.297    505.546    511.299    505.546
124.570    583.894    598.407    -14.513    506.296    592.972    506.296    511.745    506.296
124.670    593.000    594.911     -1.911    507.056    589.770    507.056    512.208    507.056
124.770    611.000    591.548     19.452    507.825    586.694    507.825    512.689    507.825
124.870    591.000    588.317      2.683    508.605    583.739    508.605    513.190    508.605
124.970    599.000    585.213     13.787    509.394    580.900    509.394    513.713    509.394
