neutron_powder_diffraction_0023
R_wp: 3.682
Temperature (K): 510.464
Counts: 83664.00
Wavelength (Ã…): 2.52098
COMMENTS
Test file for demonstrating the .xyy file format in Reel1.0
END OF HEADER
   tth       Y_obs     Y_calc      Y_res    Background    Phase_1_Nuc    Phase_1_Mag    Phase_2_Nuc    Phase_2_Mag
  9.970    721.000    716.213      4.787    714.542    715.582    715.173    714.542    714.542
 10.070    708.125    715.275     -7.150    713.514    714.638    714.151    713.514    713.514
 10.170    742.000    714.354     27.646    712.491    713.710    713.135    712.491    712.491
 10.270    655.767    713.451    -57.684    711.472    712.800    712.123    711.472    711.472
 10.370    766.000    712.570     53.430    710.459    711.911    711.116    710.459    710.459
 10.470    680.000    711.713    -31.713    709.450    711.048    710.115    709.450    709.450
 10.570    741.000    710.886     30.114    708.446    710.213    709.118    708.446    708.446
 10.670    739.000    710.094     28.906    707.447    709.414    708.126    707.447    707.447
 10.770    742.000    709.345     32.655    706.452    708.657    707.139    706.452    706.452
 10.870    713.000    708.649      4.351    705.462    707.953    706.157    705.462    705.462
 10.970    734.000    708.020     25.980    704.477    707.316    705.180    704.477    704.477
 11.070    735.000    707.477     27.523    703.497    706.765    704.207    703.497    703.497
 11.170    742.000    707.046     34.954    702.522    706.326    703.240    702.522    702.522
 11.270    700.661    706.768     -6.107    701.551    706.040    702.277    701.551    701.551
 11.370    656.490    706.707    -50.217    700.585    705.970    701.320    700.585    700.585
 11.470    711.000    706.982      4.018    699.624    706.235    700.367    699.624    699.624
 11.570    749.959    707.847     42.112    698.668    707.091    699.419    698.668    698.668
 11.670    721.794    709.878     11.916    697.716    709.111    698.476    697.716    697.716
 11.770    736.157    714.244     21.914    696.769    713.465    697.538    696.769    696.769
 11.870    769.000    722.889     46.111    695.827    722.096    696.605    695.827    695.827
 11.970    838.000    738.129     99.871    694.889    737.318    695.677    694.889    694.889
 12.070    786.000    761.112     24.888    693.957    760.278    694.754    693.957    693.957
 12.170    834.000    788.979     45.021    693.029    788.120    693.835    693.029    693.029
 12.270    863.000    811.842     51.158    692.105    810.959    692.921    692.105    692.105
 12.370    872.000    815.845     56.155    691.187    814.949    692.013    691.187    691.187
 12.470    770.469    797.125    -26.656    690.273    796.230    691.109    690.273    690.273
 12.570    801.492    767.636     33.856    689.363    766.747    690.210    689.363    689.363
 12.670    745.000    740.138      4.862    688.459    739.253    689.316    688.459    688.459
 12.770    722.000    720.061      1.939    687.559    719.176    688.426    687.559    687.559
 12.870    671.000    707.350    -36.350    686.664    706.460    687.542    686.664    686.664
 12.970    728.000    699.841     28.159    685.773    698.945    686.662    685.773    685.773
 13.070    625.000    695.319    -70.319    684.887    694.413    685.787    684.887    684.887
 13.170    645.000    692.312    -47.312    684.006    691.396    684.918    684.006    684.006
 13.270    645.000    690.053    -45.053    683.129    689.126    684.053    683.129    683.129
 13.370    625.000    688.196    -63.196    682.257    687.258    683.192    682.257    682.257
 13.470    685.000    686.590     -1.590    681.390    685.641    682.337    681.390    681.390
 13.570    679.000    685.157     -6.157    680.527    684.195    681.487    680.527    680.527
 13.670    621.000    683.849    -62.849    679.669    682.875    680.641    679.669    679.669
 13.770    670.000    682.636    -12.636    678.815    681.649    679.801    678.815    678.815
 13.870    690.017    681.496      8.521    677.966    680.496    678.965    677.966    677.966
 13.970    709.000    680.414     28.586    677.122    679.401    678.134    677.122    677.122
 14.070    649.347    679.378    -30.030    676.282    678.351    677.308    676.282    676.282
 14.170    674.000    678.380     -4.380    675.447    677.340    676.486    675.447    675.447
 14.270    735.000    677.416     57.584    674.616    676.361    675.670    674.616    674.616
 14.370    701.000    676.495     24.505    673.790    675.426    674.859    673.790    673.790
 14.470    661.000    675.590    -14.590    672.969    674.505    674.052    672.969    672.969
 14.570    673.000    674.693     -1.693    672.152    673.593    673.251    672.152    672.152
 14.670    682.000    673.812      8.188    671.340    672.697    672.454    671.340    671.340
 14.770    642.255    672.947    -30.692    670.532    671.816    671.662    670.532    670.532
 14.870    656.187    672.095    -15.908    669.729    670.948    670.875    669.729    669.729
 14.970    646.369    671.256    -24.886    668.930    670.093    670.092    668.930    668.930
 15.070    674.000    670.427      3.573    668.136    669.248    669.315    668.136    668.136
 15.170    612.000    669.610    -57.610    667.346    668.413    668.542    667.346    667.346
 15.270    680.092    668.802     11.289    666.561    667.588    667.775    666.561    666.561
 15.370    677.000    668.008      8.992    665.780    666.775    667.012    665.780    665.780
 15.470    683.004    667.219     15.784    665.004    665.969    666.254    665.004    665.004
 15.570    666.864    666.438      0.426    664.232    665.168    665.501    664.232    664.232
 15.670    662.000    665.664     -3.664    663.465    664.375    664.753    663.465    663.465
 15.770    647.432    664.897    -17.465    662.702    663.589    664.010    662.702    662.702
 15.870    703.151    664.138     39.013    661.944    662.809    663.272    661.944    661.944
 15.970    620.693    663.385    -42.692    661.190    662.036    662.538    661.190    661.190
 16.070    636.000    662.640    -26.640    660.440    661.270    661.810    660.440    660.440
 16.170    621.000    661.901    -40.901    659.695    660.509    661.087    659.695    659.695
 16.270    674.000    661.168     12.832    658.955    659.755    660.368    658.955    658.955
 16.370    639.000    660.442    -21.442    658.218    659.006    659.655    658.218    658.218
 16.470    641.000    659.723    -18.723    657.487    658.263    658.946    657.487    657.487
 16.570    677.910    659.009     18.901    656.759    657.526    658.242    656.759    656.759
 16.670    640.000    658.302    -18.302    656.036    656.794    657.544    656.036    656.036
 16.770    641.000    657.604    -16.604    655.318    656.072    656.850    655.318    655.318
 16.870    635.000    656.912    -21.912    654.604    655.354    656.162    654.604    654.604
 16.970    662.000    656.223      5.777    653.894    654.638    655.478    653.894    653.894
 17.070    679.000    655.539     23.461    653.188    653.927    654.800    653.188    653.188
 17.170    637.000    654.861    -17.861    652.487    653.222    654.126    652.487    652.487
 17.270    652.000    654.191     -2.191    651.791    652.523    653.458    651.791    651.791
 17.370    669.414    653.552     15.861    651.098    651.854    652.796    651.098    651.098
 17.470    621.000    652.957    -31.957    650.410    651.228    652.139    650.410    650.410
 17.570    607.000    652.309    -45.309    649.726    650.549    651.486    649.726    649.726
 17.670    621.066    651.660    -30.594    649.047    649.868    650.838    649.047    649.047
 17.770    669.631    651.017     18.614    648.372    649.193    650.196    648.372    648.372
 17.870    657.000    650.379      6.621    647.701    648.522    649.558    647.701    647.701
 17.970    645.000    649.749     -4.749    647.034    647.858    648.926    647.034    647.034
 18.070    637.000    649.142    -12.142    646.372    647.216    648.298    646.372    646.372
 18.170    654.000    648.534      5.466    645.714    646.571    647.677    645.714    645.714
 18.270    646.000    647.920     -1.920    645.060    645.920    647.060    645.060    645.060
 18.370    634.000    647.311    -13.311    644.411    645.274    646.449    644.411    644.411
 18.470    630.865    646.708    -15.843    643.766    644.631    645.843    643.766    643.766
 18.570    637.299    646.111     -8.812    643.125    643.994    645.242    643.125    643.125
 18.670    695.163    645.520     49.643    642.488    643.361    644.647    642.488    642.488
 18.770    653.979    644.935      9.045    641.855    642.732    644.057    641.855    641.855
 18.870    646.000    644.359      1.641    641.227    642.113    643.473    641.227    641.227
 18.970    601.000    643.795    -42.795    640.603    641.503    642.895    640.603    640.603
 19.070    627.000    643.228    -16.228    639.983    640.889    642.322    639.983    639.983
 19.170    624.839    642.667    -17.828    639.367    640.280    641.754    639.367    639.367
 19.270    621.235    642.112    -20.877    638.755    639.674    641.193    638.755    638.755
 19.370    609.400    641.568    -32.169    638.148    639.078    640.638    638.148    638.148
 19.470    657.956    641.081     16.875    637.544    638.521    640.105    637.544    637.544
 19.570    599.000    640.567    -41.567    636.945    637.945    639.567    636.945    636.945
 19.670    645.000    640.039      4.961    636.350    637.360    639.030    636.350    636.350
 19.770    676.374    639.518     36.856    635.759    636.780    638.497    635.759    635.759
 19.870    684.620    639.022     45.598    635.172    636.222    637.972    635.172    635.172
 19.970    630.000    638.521     -8.521    634.590    635.658    637.452    634.590    634.590
 20.070    651.000    638.021     12.979    634.011    635.093    636.939    634.011    634.011
 20.170    592.000    637.529    -45.529    633.437    634.533    636.433    633.437    633.437
 20.270    607.000    637.076    -30.076    632.866    633.998    635.944    632.866    632.866
 20.370    623.456    636.623    -13.167    632.300    633.459    635.463    632.300    632.300
 20.470    609.000    636.173    -27.173    631.737    632.932    634.977    631.737    631.737
 20.570    630.000    635.766     -5.766    631.179    632.447    634.498    631.179    631.179
 20.670    627.000    635.333     -8.333    630.625    631.933    634.025    630.625    630.625
 20.770    609.000    634.908    -25.908    630.075    631.423    633.559    630.075    630.075
 20.870    601.078    634.474    -33.396    629.529    630.902    633.100    629.529    629.529
 20.970    614.000    634.085    -20.085    628.986    630.422    632.649    628.986    628.986
 21.070    627.820    633.666     -5.846    628.448    629.909    632.205    628.448    628.448
 21.170    629.137    633.252     -4.115    627.914    629.397    631.768    627.914    627.914
 21.270    669.000    632.847     36.153    627.384    628.891    631.340    627.384    627.384
 21.370    638.000    632.465      5.535    626.857    628.397    630.925    626.857    626.857
 21.470    634.000    632.087      1.913    626.335    627.908    630.514    626.335    626.335
 21.570    605.262    631.728    -26.466    625.817    627.434    630.111    625.817    625.817
 21.670    594.000    631.366    -37.366    625.302    626.953    629.716    625.302    625.302
 21.770    644.000    631.013     12.987    624.792    626.475    629.330    624.792    624.792
 21.870    616.000    630.671    -14.671    624.285    626.003    628.953    624.285    624.285
 21.970    654.000    630.341     23.659    623.783    625.538    628.586    623.783    623.783
 22.070    657.581    630.025     27.556    623.284    625.079    628.229    623.284    623.284
 22.170    638.000    629.722      8.278    622.789    624.628    627.883    622.789    622.789
 22.270    621.000    629.435     -8.435    622.298    624.186    627.547    622.298    622.298
 22.370    679.000    629.163     49.837    621.811    623.751    627.222    621.811    621.811
 22.470    607.067    628.906    -21.839    621.327    623.324    626.909    621.327    621.327
 22.570    658.149    628.668     29.481    620.848    622.907    626.609    620.848    620.848
 22.670    599.182    628.450    -29.268    620.372    622.502    626.320    620.372    620.372
 22.770    597.000    628.252    -31.252    619.900    622.107    626.046    619.900    619.900
 22.870    646.000    628.083     17.917    619.432    621.729    625.787    619.432    619.432
 22.970    641.000    627.933     13.067    618.968    621.360    625.541    618.968    618.968
 23.070    603.000    627.809    -24.809    618.508    621.007    625.310    618.508    618.508
 23.170    590.553    627.717    -37.164    618.051    620.673    625.096    618.051    618.051
 23.270    628.000    627.660      0.340    617.598    620.360    624.899    617.598    617.598
 23.370    631.111    627.643      3.467    617.149    620.073    624.720    617.149    617.149
 23.470    630.000    627.675      2.325    616.704    619.818    624.561    616.704    616.704
 23.570    674.632    627.760     46.872    616.262    619.601    624.422    616.262    616.262
 23.670    649.592    627.911     21.681    615.824    619.432    624.304    615.824    615.824
 23.770    611.601    628.143    -16.542    615.390    619.325    624.210    615.390    615.390
 23.870    583.385    628.477    -45.092    614.960    619.297    624.141    614.960    614.960
 23.970    668.188    628.941     39.247    614.533    619.378    624.098    614.533    614.533
 24.070    646.000    629.584     16.416    614.110    619.612    624.084    614.110    614.110
 24.170    638.000    630.494      7.506    613.690    620.085    624.101    613.690    613.690
 24.270    600.449    631.858    -31.409    613.274    620.984    624.152    613.274    613.274
 24.370    653.000    634.088     18.912    612.862    622.716    624.240    612.862    612.862
 24.470    667.848    637.987     29.861    612.454    626.083    624.366    612.454    612.454
 24.570    704.000    644.848     59.152    612.049    632.374    624.535    612.049    612.049
 24.670    609.062    656.141    -47.079    611.648    643.058    624.751    611.648    611.648
 24.770    720.000    672.516     47.484    611.250    658.779    625.019    611.250    611.250
 24.870    738.608    692.028     46.580    610.856    677.587    625.342    610.856    610.856
 24.970    739.000    708.302     30.698    610.465    693.096    625.728    610.465    610.465
 25.070    745.000    712.404     32.596    610.078    696.359    626.183    610.078    610.078
 25.170    746.942    701.592     45.351    609.695    684.624    626.714    609.695    609.695
 25.270    662.000    683.335    -21.335    609.315    665.358    627.331    609.315    609.315
 25.370    694.303    666.149     28.154    608.939    647.070    628.042    608.939    608.939
 25.470    660.316    653.787      6.529    608.566    633.508    628.860    608.566    608.566
 25.570    599.000    646.447    -47.447    608.197    624.854    629.799    608.197    608.197
 25.670    610.146    642.839    -32.693    607.831    619.801    630.874    607.831    607.831
 25.770    665.000    641.522     23.478    607.469    616.890    632.105    607.469    607.469
 25.870    651.000    641.498      9.502    607.110    615.097    633.512    607.110    607.110
 25.970    610.334    642.239    -31.905    606.755    613.871    635.125    606.755    606.755
 26.070    691.505    643.522     47.983    606.403    612.953    636.973    606.403    606.403
 26.170    702.000    645.272     56.728    606.054    612.231    639.096    606.054    606.054
 26.270    636.000    647.485    -11.485    605.709    611.650    641.543    605.709    605.709
 26.370    632.610    650.184    -17.574    605.368    611.181    644.369    605.368    605.368
 26.470    658.000    653.425      4.575    605.030    610.808    647.645    605.030    605.030
 26.570    647.527    657.279     -9.751    604.695    610.511    651.460    604.695    604.695
 26.670    658.000    661.859     -3.859    604.363    610.292    655.928    604.363    604.363
 26.770    643.699    667.313    -23.614    604.035    610.150    661.195    604.035    604.035
 26.870    694.000    673.832     20.168    603.711    610.089    667.450    603.711    603.711
 26.970    688.000    681.675      6.325    603.389    610.119    674.940    603.389    603.389
 27.070    733.087    691.187     41.900    603.071    610.254    683.998    603.071    603.071
 27.170    649.000    702.845    -53.845    602.757    610.517    695.077    602.757    602.757
 27.270    689.000    717.310    -28.310    602.445    610.938    708.809    602.445    602.445
 27.370    694.000    735.532    -41.532    602.137    611.563    726.095    602.137    602.137
 27.470    762.000    758.919      3.081    601.833    612.465    748.273    601.833    601.833
 27.570    755.000    789.778    -34.778    601.531    613.756    777.534    601.531    601.531
 27.670    831.735    832.830     -1.094    601.233    615.671    818.364    601.233    601.233
 27.770    849.000    901.289    -52.289    600.938    618.861    883.320    600.938    600.938
 27.870    995.000   1036.009    -41.009    600.646    625.335   1011.225    600.646    600.646
 27.970   1358.296   1346.128     12.168    600.358    640.452   1305.829    600.358    600.358
 28.070   1923.000   2045.236   -122.236    600.072    674.698   1970.205    600.072    600.072
 28.170   3240.000   3381.727   -141.727    599.790    740.275   3240.579    599.790    599.790
 28.270   5271.833   5364.982    -93.148    599.511    837.685   5125.965    599.511    599.511
 28.370   7185.000   7412.405   -227.405    599.236    938.441   7072.439    599.236    599.236
 28.470   8309.000   8357.683    -48.683    598.963    985.549   7970.683    598.963    598.963
 28.570   7429.545   7494.958    -65.413    598.694    944.903   7148.660    598.694    598.694
 28.670   5851.000   5651.597    199.403    598.427    858.208   5391.867    598.427    598.427
 28.770   4238.000   4091.010    146.990    598.164    789.241   3899.974    598.164    598.164
 28.870   3418.008   3459.399    -41.391    597.904    771.371   3285.909    597.904    597.904
 28.970   3856.000   3708.439    147.561    597.647    801.746   3504.278    597.647    597.647
 29.070   4445.924   4334.849    111.075    597.393    850.642   4081.572    597.393    597.393
 29.170   4504.921   4638.644   -133.723    597.143    873.928   4361.961    597.143    597.143
 29.270   4095.000   4192.389    -97.389    596.895    844.188   3945.360    596.895    596.895
 29.370   3323.000   3254.017     68.983    596.650    780.004   3070.994    596.650    596.650
 29.470   2262.461   2302.959    -40.498    596.409    714.730   2184.922    596.409    596.409
 29.570   1591.000   1601.669    -10.669    596.170    666.588   1531.444    596.170    596.170
 29.670   1203.000   1183.139     19.861    595.935    637.904   1141.279    595.935    595.935
 29.770    992.000    966.240     25.760    595.702    623.108    938.890    595.702    595.702
 29.870    888.000    858.546     29.454    595.473    615.840    838.206    595.473    595.473
 29.970    844.000    800.554     43.446    595.246    612.010    783.804    595.246    595.246
 30.070    866.000    764.234    101.766    595.023    609.704    749.560    595.023    595.023
 30.170    733.000    738.582     -5.582    594.802    608.187    725.201    594.802    594.802
 30.270    743.281    719.393     23.889    594.584    607.209    706.770    594.584    594.584
 30.370    682.000    704.867    -22.867    594.369    606.727    692.510    594.369    594.369
 30.470    730.000    694.296     35.704    594.158    606.880    681.572    594.158    594.158
 30.570    741.000    687.906     53.094    593.949    608.104    673.745    593.949    593.949
 30.670    636.643    687.020    -50.376    593.743    611.278    669.473    593.743    593.743
 30.770    661.191    693.876    -32.685    593.539    617.669    669.727    593.539    593.539
 30.870    667.767    710.413    -42.647    593.339    628.350    675.368    593.339    593.339
 30.970    725.219    735.761    -10.543    593.142    642.988    685.863    593.142    593.142
 31.070    785.000    763.079     21.921    592.947    658.292    697.667    592.947    592.947
 31.170    814.000    778.512     35.488    592.755    667.505    703.687    592.755    592.755
 31.270    812.000    770.142     41.858    592.566    664.813    697.828    592.566    592.566
 31.370    777.000    741.449     35.551    592.380    651.959    681.821    592.380    592.380
 31.470    755.000    706.397     48.603    592.197    635.835    662.727    592.197    592.197
 31.570    707.000    676.124     30.876    592.016    621.939    646.181    592.016    592.016
 31.670    666.000    654.719     11.281    591.838    612.303    634.243    591.838    591.838
 31.770    647.000    641.435      5.565    591.663    606.574    626.517    591.663    591.663
 31.870    672.000    633.695     38.305    591.491    603.500    621.681    591.491    591.491
 31.970    667.000    629.098     37.902    591.321    601.913    618.502    591.321    591.321
 32.070    638.000    626.122     11.878    591.154    601.076    616.197    591.154    591.154
 32.170    664.780    624.008     40.772    590.990    600.624    614.371    590.990    590.990
 32.270    664.961    622.428     42.533    590.828    600.406    612.848    590.828    590.828
 32.370    632.000    621.245     10.755    590.669    600.363    611.549    590.669    590.669
 32.470    643.000    620.399     22.601    590.513    600.476    610.435    590.513    590.513
 32.570    704.000    619.868     84.132    590.360    600.741    609.484    590.360    590.360
 32.670    627.658    619.646      8.013    590.209    601.170    608.683    590.209    590.209
 32.770    666.000    619.748     46.252    590.060    601.780    608.027    590.060    590.060
 32.870    601.934    620.209    -18.276    589.915    602.606    607.517    589.915    589.915
 32.970    567.022    621.085    -54.064    589.771    603.693    607.162    589.771    589.771
 33.070    600.914    622.463    -21.549    589.631    605.110    606.981    589.631    589.631
 33.170    674.000    624.475     49.525    589.493    606.961    607.005    589.493    589.493
 33.270    640.533    627.340     13.194    589.358    609.407    607.287    589.358    589.358
 33.370    593.750    631.460    -37.710    589.225    612.749    607.932    589.225    589.225
 33.470    653.357    637.695     15.662    589.094    617.621    609.165    589.094    589.094
 33.570    630.848    647.951    -17.103    588.966    625.423    611.489    588.966    588.966
 33.670    667.000    666.186      0.814    588.841    639.066    615.951    588.841    588.841
 33.770    726.026    699.429     26.597    588.718    663.717    624.415    588.718    588.718
 33.870    715.000    757.489    -42.489    588.598    706.583    639.480    588.598    588.598
 33.970    784.000    849.462    -65.462    588.480    774.348    663.557    588.480    588.480
 34.070    955.000    976.093    -21.093    588.365    867.565    696.844    588.365    588.365
 34.170   1095.000   1119.201    -24.201    588.251    972.879    734.520    588.251    588.251
 34.270   1214.000   1233.713    -19.713    588.141   1057.181    764.629    588.141    588.141
 34.370   1243.000   1262.064    -19.064    588.033   1078.172    771.901    588.033    588.033
 34.470   1188.744   1185.250      3.494    587.927   1021.881    751.292    587.927    587.927
 34.570   1018.000   1047.730    -29.730    587.823    920.968    714.591    587.823    587.823
 34.670    917.123    907.269      9.854    587.722    817.880    677.120    587.722    587.722
 34.770    791.000    795.776     -4.776    587.624    736.063    647.343    587.624    587.624
 34.870    685.243    720.571    -35.328    587.527    680.899    627.203    587.527    587.527
 34.970    714.000    675.448     38.552    587.433    647.829    615.053    587.433    587.433
 35.070    657.064    650.109      6.955    587.342    629.288    608.162    587.342    587.342
 35.170    688.530    635.827     52.703    587.252    618.863    604.216    587.252    587.252
 35.270    583.784    627.154    -43.370    587.165    612.551    601.767    587.165    587.165
 35.370    612.000    621.303     -9.303    587.080    608.304    600.078    587.080    587.080
 35.470    663.676    617.003     46.672    586.998    605.188    598.812    586.998    586.998
 35.570    637.000    613.678     23.322    586.917    602.779    597.815    586.917    586.917
 35.670    563.000    611.034    -48.034    586.839    600.861    597.011    586.839    586.839
 35.770    640.000    608.896     31.104    586.763    599.305    596.354    586.763    586.763
 35.870    579.000    607.149    -28.149    586.690    598.026    595.813    586.690    586.690
 35.970    613.580    605.712      7.869    586.618    596.962    595.368    586.618    586.618
 36.070    617.000    604.524     12.476    586.549    596.068    595.004    586.549    586.549
 36.170    583.000    603.543    -20.543    586.482    595.312    594.712    586.482    586.482
 36.270    595.000    602.738     -7.738    586.417    594.669    594.486    586.417    586.417
 36.370    609.000    602.087      6.913    586.354    594.119    594.322    586.354    586.354
 36.470    597.000    601.574     -4.574    586.293    593.648    594.219    586.293    586.293
 36.570    581.000    601.191    -20.191    586.235    593.246    594.180    586.235    586.235
 36.670    591.000    600.935     -9.935    586.178    592.905    594.209    586.178    586.178
 36.770    553.603    600.809    -47.206    586.124    592.619    594.313    586.124    586.124
 36.870    643.404    600.820     42.583    586.072    592.387    594.505    586.072    586.072
 36.970    622.000    600.988     21.012    586.021    592.208    594.801    586.021    586.021
 37.070    599.000    601.344     -2.344    585.973    592.090    595.227    585.973    585.973
 37.170    587.000    601.942    -14.942    585.927    592.049    595.819    585.927    585.927
 37.270    598.000    602.886     -4.886    585.883    592.128    596.640    585.883    585.883
 37.370    609.000    604.379      4.621    585.841    592.413    597.806    585.841    585.841
 37.470    580.565    606.813    -26.248    585.801    593.053    599.560    585.801    585.801
 37.570    583.000    610.907    -27.907    585.762    594.253    602.416    585.762    585.762
 37.670    620.000    617.855      2.145    585.726    596.212    607.368    585.726    585.726
 37.770    661.783    629.361     32.422    585.692    598.990    616.060    585.692    585.692
 37.870    594.283    647.308    -53.026    585.660    602.319    630.646    585.660    585.660
 37.970    692.000    672.780     19.220    585.629    605.383    653.022    585.629    585.629
 38.070    714.000    704.647      9.353    585.601    606.893    683.350    585.601    585.601
 38.170    739.000    738.584      0.416    585.574    606.073    718.080    585.574    585.574
 38.270    766.245    766.040      0.206    585.549    603.545    748.043    585.549    585.549
 38.370    766.000    774.713     -8.713    585.527    600.414    759.829    585.527    585.527
 38.470    767.000    758.213      8.787    585.506    597.410    746.314    585.506    585.506
 38.570    762.791    724.819     37.972    585.487    594.932    715.380    585.487    585.487
 38.670    711.000    688.128     22.872    585.469    593.120    680.484    585.469    585.469
 38.770    681.038    656.876     24.161    585.454    591.906    650.428    585.454    585.454
 38.870    625.920    634.124     -8.204    585.440    591.136    628.431    585.440    585.440
 38.970    613.000    619.369     -6.369    585.428    590.658    614.142    585.428    585.428
 39.070    607.998    610.535     -2.537    585.418    590.358    605.596    585.418    585.418
 39.170    609.000    605.406      3.594    585.410    590.165    600.652    585.410    585.410
 39.270    623.000    602.337     20.663    585.403    590.035    597.706    585.403    585.403
 39.370    562.154    600.351    -38.197    585.398    589.945    595.805    585.398    585.398
 39.470    622.372    598.948     23.424    585.395    589.883    594.460    585.395    585.395
 39.570    623.000    597.889     25.111    585.394    589.842    593.441    585.394    585.394
 39.670    612.859    597.059     15.801    585.394    589.817    592.635    585.394    585.394
 39.770    573.000    596.393    -23.393    585.396    589.806    591.984    585.396    585.396
 39.870    613.000    595.860     17.140    585.400    589.812    591.448    585.400    585.400
 39.970    618.000    595.428     22.572    585.405    589.831    591.002    585.405    585.405
 40.070    624.000    595.078     28.922    585.412    589.862    590.628    585.412    585.412
 40.170    623.440    594.795     28.645    585.420    589.905    590.311    585.420    585.420
 40.270    567.000    594.570    -27.570    585.431    589.960    590.041    585.431    585.431
 40.370    557.000    594.394    -37.394    585.442    590.026    589.810    585.442    585.442
 40.470    610.000    594.261     15.739    585.456    590.106    589.611    585.456    585.456
 40.570    564.245    594.167    -29.922    585.471    590.198    589.440    585.471    585.471
 40.670    578.866    594.110    -15.244    585.487    590.305    589.292    585.487    585.487
 40.770    597.235    594.087      3.149    585.505    590.428    589.164    585.505    585.505
 40.870    589.000    594.097     -5.097    585.525    590.569    589.054    585.525    585.525
 40.970    547.386    594.142    -46.756    585.546    590.730    588.959    585.546    585.546
 41.070    579.000    594.222    -15.222    585.568    590.913    588.878    585.568    585.568
 41.170    593.393    594.340     -0.947    585.593    591.124    588.810    585.593    585.593
 41.270    633.992    594.500     39.491    585.618    591.367    588.753    585.618    585.618
 41.370    642.237    594.708     47.529    585.645    591.647    588.707    585.645    585.645
 41.470    608.668    594.970     13.697    585.674    591.974    588.671    585.674    585.674
 41.570    621.940    595.298     26.642    585.704    592.358    588.645    585.704    585.704
 41.670    623.810    595.707     28.103    585.735    592.815    588.628    585.735    585.735
 41.770    579.960    596.218    -16.257    585.768    593.365    588.622    585.768    585.768
 41.870    598.000    596.864      1.136    585.802    594.041    588.627    585.802    585.802
 41.970    596.000    597.707     -1.707    585.837    594.903    588.644    585.837    585.837
 42.070    636.307    598.867     37.440    585.874    596.065    588.679    585.874    585.874
 42.170    588.323    600.585    -12.262    585.913    597.762    588.739    585.913    585.913
 42.270    553.439    603.330    -49.891    585.952    600.443    588.844    585.952    585.952
 42.370    582.000    607.902    -25.902    585.993    604.878    589.022    585.993    585.993
 42.470    601.000    615.454    -14.454    586.035    612.180    589.319    586.035    586.035
 42.570    662.986    627.283     35.703    586.079    623.592    589.784    586.079    586.079
 42.670    647.000    644.262      2.738    586.124    639.958    590.449    586.124    586.124
 42.770    698.706    665.990     32.716    586.170    660.891    591.301    586.170    586.170
 42.870    589.000    689.755   -100.755    586.217    683.783    592.234    586.217    586.217
 42.970    687.000    709.630    -22.630    586.266    702.932    593.020    586.266    586.266
 43.070    641.000    717.580    -76.580    586.316    710.606    593.353    586.316    586.316
 43.170    751.000    709.415     41.585    586.367    702.773    593.070    586.367    586.367
 43.270    641.732    689.494    -47.763    586.419    683.627    592.339    586.419    586.419
 43.370    640.000    665.877    -25.877    586.473    660.921    591.468    586.473    586.473
 43.470    680.818    644.415     36.403    586.527    640.287    590.684    586.527    586.527
 43.570    618.000    627.744     -9.744    586.583    624.260    590.085    586.583    586.583
 43.670    592.406    616.216    -23.810    586.640    613.181    589.687    586.640    586.640
 43.770    575.000    608.933    -33.933    586.698    606.186    589.454    586.698    586.698
 43.870    586.350    604.598    -18.248    586.758    602.024    589.337    586.758    586.758
 43.970    624.579    602.063     22.516    586.818    599.593    589.292    586.818    586.818
 44.070    607.000    600.537      6.463    586.880    598.132    589.288    586.880    586.880
 44.170    643.153    599.560     43.593    586.942    597.197    589.307    586.942    586.942
 44.270    599.000    598.893      0.107    587.006    596.560    589.342    587.006    587.006
 44.370    606.000    598.421      7.579    587.071    596.108    589.386    587.071    587.071
 44.470    624.000    598.083     25.917    587.136    595.783    589.438    587.136    587.136
 44.570    650.000    597.845     52.155    587.203    595.554    589.496    587.203    587.203
 44.670    599.000    597.687      1.313    587.271    595.399    589.560    587.271    587.271
 44.770    620.000    597.593     22.407    587.340    595.304    589.629    587.340    587.340
 44.870    586.000    597.552    -11.552    587.410    595.259    589.703    587.410    587.410
 44.970    619.000    597.556     21.444    587.481    595.256    589.781    587.481    587.481
 45.070    613.000    597.600     15.400    587.553    595.289    589.864    587.553    587.553
 45.170    566.399    597.679    -31.280    587.625    595.353    589.952    587.625    587.625
 45.270    607.000    597.789      9.211    587.699    595.445    590.043    587.699    587.699
 45.370    573.000    597.928    -24.928    587.774    595.563    590.139    587.774    587.774
 45.470    567.000    598.095    -31.095    587.849    595.705    590.239    587.849    587.849
 45.570    610.000    598.289     11.711    587.926    595.871    590.343    587.926    587.926
 45.670    638.000    598.508     39.492    588.003    596.058    590.453    588.003    588.003
 45.770    624.000    598.754     25.246    588.081    596.268    590.567    588.081    588.081
 45.870    584.000    599.027    -15.027    588.160    596.501    590.686    588.160    588.160
 45.970    638.000    599.328     38.672    588.240    596.757    590.810    588.240    588.240
 46.070    595.000    599.658     -4.658    588.321    597.038    590.941    588.321    588.321
 46.170    620.694    600.020     20.674    588.403    597.344    591.077    588.403    588.403
 46.270    586.747    600.416    -13.669    588.485    597.680    591.221    588.485    588.485
 46.370    633.615    600.851     32.764    588.568    598.047    591.371    588.568    588.568
 46.470    610.000    601.328      8.672    588.652    598.449    591.530    588.652    588.652
 46.570    629.000    601.854     27.146    588.737    598.892    591.698    588.737    588.737
 46.670    577.000    602.436    -25.436    588.823    599.381    591.876    588.823    588.823
 46.770    649.878    603.083     46.795    588.909    599.925    592.066    588.909    588.909
 46.870    599.453    603.810     -4.357    588.996    600.535    592.269    588.996    588.996
 46.970    623.000    604.634     18.366    589.084    601.228    592.488    589.084    589.084
 47.070    620.000    605.586     14.414    589.172    602.029    592.727    589.172    589.172
 47.170    601.678    606.721     -5.042    589.261    602.987    592.992    589.261    589.261
 47.270    605.000    608.138     -3.138    589.351    604.191    593.295    589.351    589.351
 47.370    617.000    610.029      6.971    589.441    605.808    593.658    589.441    589.441
 47.470    591.000    612.721    -21.721    589.533    608.131    594.117    589.533    589.533
 47.570    617.000    616.723      0.277    589.624    611.610    594.729    589.624    589.624
 47.670    651.000    622.706     28.294    589.717    616.842    595.568    589.717    589.717
 47.770    600.073    631.364    -31.291    589.810    624.444    596.712    589.810    589.810
 47.870    649.000    643.134      5.866    589.904    634.802    598.210    589.904    589.904
 47.970    710.000    657.788     52.212    589.998    647.711    600.040    589.998    589.998
 48.070    650.000    673.966    -23.966    590.093    661.959    602.055    590.093    590.093
 48.170    703.000    688.776     14.224    590.188    674.968    603.942    590.188    590.188
 48.270    665.046    698.125    -33.079    590.284    683.092    605.260    590.284    590.284
 48.370    688.000    698.863    -10.863    590.380    683.521    605.667    590.380    590.380
 48.470    697.000    691.391      5.609    590.477    676.605    605.214    590.477    590.477
 48.570    655.000    679.287    -24.287    590.575    665.525    604.298    590.575    590.575
 48.670    668.915    666.566      2.349    590.673    653.845    603.366    590.673    590.673
 48.770    664.000    655.917      8.083    590.771    643.947    602.721    590.771    590.771
 48.870    653.000    648.564      4.436    590.870    636.908    602.512    590.870    590.870
 48.970    619.279    644.700    -25.421    590.970    632.882    602.777    590.970    590.970
 49.070    628.000    643.957    -15.957    591.070    631.519    603.500    591.070    591.070
 49.170    614.165    645.814    -31.649    591.170    632.320    604.658    591.170    591.170
 49.270    611.517    649.898    -38.381    591.271    634.903    606.260    591.271    591.271
 49.370    617.000    656.220    -39.220    591.372    639.186    608.400    591.372    591.372
 49.470    697.866    665.507     32.359    591.474    645.621    611.353    591.474    591.474
 49.570    674.000    679.928     -5.928    591.576    655.692    615.802    591.576    591.576
 49.670    670.170    704.601    -34.431    591.678    672.962    623.303    591.678    591.678
 49.770    733.000    750.024    -17.024    591.781    704.761    637.019    591.781    591.781
 49.870    853.313    834.667     18.647    591.884    764.000    662.508    591.884    591.884
 49.970    893.000    985.291    -92.291    591.987    869.403    707.801    591.987    591.987
 50.070   1145.000   1231.223    -86.223    592.091   1041.587    781.606    592.091    592.091
 50.170   1471.000   1591.036   -120.036    592.195   1293.287    889.770    592.195    592.195
 50.270   2052.000   2051.567      0.433    592.299   1615.427   1028.219    592.299    592.299
 50.370   2460.000   2551.347    -91.347    592.404   1965.059   1178.457    592.404    592.404
 50.470   2874.000   2976.677   -102.677    592.509   2262.702   1306.289    592.509    592.509
 50.570   3145.000   3189.443    -44.443    592.614   2411.800   1370.165    592.614    592.614
 50.670   3019.900   3105.026    -85.127    592.719   2353.195   1344.595    592.719    592.719
 50.770   2717.000   2760.898    -43.898    592.825   2113.108   1240.769    592.825    592.825
 50.870   2340.000   2282.546     57.454    592.931   1779.360   1096.322    592.931    592.931
 50.970   1813.000   1799.631     13.369    593.037   1442.744    950.126    593.037    593.037
 51.070   1301.000   1397.673    -96.673    593.144   1163.202    827.782    593.144    593.144
 51.170   1121.000   1109.868     11.132    593.250    964.034    739.207    593.250    593.250
 51.270    936.752    929.465      7.287    593.357    840.478    682.428    593.357    593.357
 51.370    805.000    829.414    -24.414    593.464    773.357    649.580    593.464    593.464
 51.470    786.425    779.308      7.117    593.571    740.849    632.075    593.571    593.571
 51.570    715.512    754.663    -39.150    593.678    725.000    623.379    593.678    593.678
 51.670    791.735    739.723     52.012    593.785    713.983    619.558    593.785    593.785
 51.770    755.000    727.053     27.947    593.893    702.319    618.653    593.893    593.893
 51.870    731.000    715.162     15.838    594.000    689.397    619.784    594.000    594.000
 51.970    730.000    704.994     25.006    594.108    676.687    622.426    594.108    594.108
 52.070    663.694    697.382    -33.688    594.215    665.647    625.953    594.215    594.215
 52.170    679.000    692.170    -13.170    594.323    657.072    629.419    594.323    594.323
 52.270    731.000    688.301     42.699    594.431    651.135    631.591    594.431    594.431
 52.370    639.523    684.464    -44.941    594.539    647.609    631.387    594.539    594.539
 52.470    718.000    680.024     37.976    594.647    646.096    628.569    594.647    594.647
 52.570    668.945    675.404     -6.459    594.755    646.227    623.926    594.755    594.755
 52.670    745.000    671.606     73.394    594.863    647.808    618.658    594.863    594.863
 52.770    708.000    669.694     38.306    594.971    650.915    613.747    594.971    594.971
 52.870    710.000    670.710     39.290    595.079    656.023    609.764    595.079    595.079
 52.970    674.000    675.912     -1.912    595.187    664.194    606.904    595.187    595.187
 53.070    716.000    687.148     28.852    595.294    677.325    605.116    595.294    595.294
 53.170    744.000    707.214     36.786    595.402    698.375    604.239    595.402    595.402
 53.270    710.000    739.911    -29.911    595.510    731.300    604.117    595.510    595.510
 53.370    860.000    789.527     70.473    595.618    780.503    604.637    595.618    595.618
 53.470    857.000    859.457     -2.457    595.726    849.532    605.643    595.726    595.726
 53.570    938.000    950.654    -12.654    595.833    939.180    607.298    595.833    595.833
 53.670   1113.000   1058.592     54.408    595.941   1045.146    609.378    595.941    595.941
 53.770   1144.000   1171.287    -27.287    596.048   1155.730    611.598    596.048    596.048
 53.870   1331.773   1267.768     64.005    596.155   1250.409    613.514    596.155    596.155
 53.970   1382.172   1321.643     60.529    596.262   1303.341    614.572    596.262    596.262
 54.070   1318.000   1314.315      3.685    596.369   1296.319    614.385    596.369    596.369
 54.170   1276.646   1248.854     27.791    596.476   1232.344    613.012    596.476    596.476
 54.270   1110.000   1147.260    -37.260    596.582   1132.964    610.907    596.582    596.582
 54.370   1001.000   1035.218    -34.218    596.689   1023.334    608.599    596.689    596.689
 54.470    906.000    931.496    -25.496    596.795    921.839    606.475    596.795    596.795
 54.570    826.000    846.062    -20.062    596.901    838.241    604.739    596.901    596.901
 54.670    766.000    781.872    -15.872    597.007    775.439    603.453    597.007    597.007
 54.770    735.000    737.280     -2.280    597.112    731.819    602.581    597.112    597.112
 54.870    730.639    708.315     22.324    597.218    703.497    602.041    597.218    597.218
 54.970    680.000    690.523    -10.523    597.323    686.110    601.739    597.323    597.323
 55.070    686.000    680.093      5.907    597.428    675.926    601.598    597.428    597.428
 55.170    722.004    674.283     47.722    597.532    670.257    601.559    597.532    597.532
 55.270    714.554    671.361     43.193    597.636    667.411    601.588    597.636    597.636
 55.370    712.833    670.355     42.478    597.740    666.433    601.663    597.740    597.740
 55.470    682.000    670.774     11.226    597.844    666.843    601.775    597.844    597.844
 55.570    669.000    672.411     -3.411    597.947    668.438    601.921    597.947    597.947
 55.670    675.941    675.230      0.711    598.050    671.181    602.100    598.050    598.050
 55.770    664.000    679.322    -15.322    598.153    675.160    602.315    598.153    598.153
 55.870    662.726    684.929    -22.203    598.255    680.610    602.574    598.255    598.255
 55.970    694.939    692.544      2.395    598.357    688.012    602.889    598.357    598.357
 56.070    686.000    703.140    -17.140    598.459    698.309    603.288    598.459    598.459
 56.170    701.000    718.566    -17.566    598.560    713.301    603.820    598.560    598.560
 56.270    719.000    742.167    -23.167    598.661    736.243    604.578    598.661    598.661
 56.370    770.870    779.544     -8.675    598.762    772.581    605.711    598.762    598.762
 56.470    841.000    839.151      1.849    598.862    830.539    607.451    598.862    598.862
 56.570    884.000    932.192    -48.192    598.961    921.020    610.099    598.961    598.961
 56.670   1109.677   1071.113     38.564    599.060   1056.130    613.994    599.060    599.060
 56.770   1240.000   1266.195    -26.195    599.159   1245.877    619.414    599.159    599.159
 56.870   1536.656   1520.477     16.179    599.257   1493.221    626.443    599.257    599.257
 56.970   1784.000   1823.991    -39.991    599.355   1788.468    634.812    599.355    599.355
 57.070   2178.000   2148.620     29.380    599.453   2104.269    643.761    599.453    599.453
 57.170   2420.929   2445.273    -24.344    599.549   2392.863    651.963    599.549    599.549
 57.270   2746.000   2648.661     97.339    599.646   2590.725    657.655    599.646    599.646
 57.370   2593.310   2699.618   -106.308    599.742   2640.271    659.236    599.742    599.742
 57.470   2645.000   2580.911     64.089    599.837   2524.705    656.243    599.837    599.837
 57.570   2525.000   2331.004    193.996    599.932   2281.433    649.720    599.932    599.932
 57.670   2010.000   2016.562     -6.562    600.026   1975.316    641.478    600.026    600.026
 57.770   1663.000   1698.096    -35.096    600.120   1665.227    633.165    600.120    600.120
 57.870   1348.318   1415.867    -67.549    600.213   1390.324    625.894    600.213    600.213
 57.970   1227.607   1189.861     37.746    600.305   1170.016    620.251    600.305    600.305
 58.070   1049.000   1024.163     24.837    600.397   1008.190    616.439    600.397    600.397
 58.170    961.270    912.681     48.588    600.489    898.744    614.469    600.489    600.489
 58.270    794.296    844.968    -50.673    600.580    831.220    614.352    600.580    600.580
 58.370    778.000    810.860    -32.860    600.670    795.291    616.248    600.670    600.670
 58.470    810.000    803.072      6.928    600.760    783.318    620.511    600.760    600.760
 58.570    814.000    817.723     -3.723    600.849    790.971    627.585    600.849    600.849
 58.670    859.000    853.311      5.689    600.937    816.464    637.757    600.937    600.937
 58.770    872.000    908.915    -36.915    601.025    859.069    650.831    601.025    601.025
 58.870    994.000    982.268     11.732    601.112    917.492    665.838    601.112    601.112
 58.970   1004.370   1068.171    -63.801    601.198    988.427    680.886    601.198    601.198
 59.070   1131.681   1157.749    -26.068    601.284   1065.683    693.297    601.284    601.284
 59.170   1214.000   1239.819    -25.819    601.369   1140.841    700.307    601.369    601.369
 59.270   1286.000   1305.000    -19.000    601.453   1205.983    700.453    601.453    601.453
 59.370   1315.000   1348.432    -33.432    601.537   1255.560    694.418    601.537    601.537
 59.470   1343.810   1367.500    -23.691    601.620   1284.930    684.225    601.620    601.620
 59.570   1431.282   1360.359     70.923    601.702   1290.129    671.984    601.702    601.702
 59.670   1254.267   1330.090    -75.824    601.783   1272.494    659.434    601.783    601.783
 59.770   1346.000   1288.003     57.997    601.864   1241.972    647.933    601.864    601.864
 59.870   1246.030   1249.376     -3.346    601.944   1213.001    638.327    601.944    601.944
 59.970   1192.035   1226.931    -34.896    602.023   1198.058    630.862    602.023    602.023
 60.070   1276.541   1228.214     48.327    602.102   1204.904    625.330    602.102    602.102
 60.170   1245.246   1256.512    -11.267    602.180   1237.235    621.326    602.180    602.180
 60.270   1389.312   1312.108     77.205    602.256   1295.725    618.460    602.256    602.256
 60.370   1379.000   1391.101    -12.101    602.333   1376.770    616.442    602.333    602.333
 60.470   1559.000   1482.546     76.454    602.408   1469.630    615.071    602.408    602.408
 60.570   1618.000   1567.040     50.960    602.482   1555.054    614.202    602.482    602.482
 60.670   1684.518   1619.363     65.154    602.556   1607.932    613.732    602.556    602.556
 60.770   1614.000   1617.172     -3.172    602.629   1605.989    613.589    602.629    602.629
 60.870   1606.000   1553.288     52.712    602.701   1542.083    613.726    602.701    602.701
 60.970   1452.000   1440.370     11.630    602.772   1428.892    614.116    602.772    602.772
 61.070   1225.000   1302.232    -77.232    602.842   1290.225    614.753    602.842    602.842
 61.170   1172.000   1162.154      9.846    602.912   1149.336    615.664    602.912    602.912
 61.270    942.000   1037.154    -95.154    602.980   1023.161    616.928    602.980    602.980
 61.370    939.000    937.084      1.916    603.048    921.381    618.717    603.048    603.048
 61.470    835.000    865.785    -30.785    603.115    847.518    621.352    603.115    603.115
 61.570    822.000    823.217     -1.217    603.180    800.984    625.383    603.180    603.180
 61.670    792.000    807.923    -15.923    603.245    779.464    631.667    603.245    603.245
 61.770    869.000    819.095     49.905    603.309    780.948    641.406    603.309    603.309
 61.870    815.000    857.583    -42.583    603.373    804.805    656.082    603.373    603.373
 61.970    928.570    925.566      3.004    603.435    851.687    677.217    603.435    603.435
 62.070   1007.000   1024.961    -17.961    603.496    922.375    705.952    603.496    603.496
 62.170   1088.790   1155.044    -66.254    603.556   1015.968    742.463    603.556    603.556
 62.270   1323.000   1309.923     13.077    603.616   1127.958    785.370    603.616    603.616
 62.370   1399.449   1476.514    -77.065    603.674   1248.689    831.253    603.674    603.674
 62.470   1670.398   1633.526     36.873    603.731   1362.563    874.425    603.731    603.731
 62.570   1688.000   1752.786    -64.786    603.788   1448.989    907.314    603.788    603.788
 62.670   1881.137   1806.169     74.968    603.843   1487.418    922.349    603.843    603.843
 62.770   1735.000   1778.798    -43.798    603.898   1466.973    915.525    603.898    603.898
 62.870   1699.722   1678.358     21.364    603.951   1393.241    888.926    603.951    603.951
 62.970   1550.073   1529.813     20.260    604.003   1284.424    849.300    604.003    604.003
 63.070   1347.395   1362.143    -14.749    604.055   1161.663    804.482    604.055    604.055
 63.170   1193.453   1199.146     -5.693    604.105   1042.320    760.904    604.105    604.105
 63.270   1034.001   1056.445    -22.444    604.154    937.793    722.796    604.154    604.154
 63.370    924.000    941.708    -17.708    604.203    853.674    692.232    604.203    604.203
 63.470    846.000    856.147    -10.147    604.250    790.845    669.549    604.250    604.250
 63.570    741.576    796.664    -55.088    604.296    747.043    653.912    604.296    604.296
 63.670    767.000    758.140      8.860    604.341    718.531    643.943    604.341    604.341
 63.770    683.579    735.213    -51.634    604.385    701.395    638.192    604.385    604.385
 63.870    728.000    723.553      4.447    604.428    692.471    635.496    604.428    604.428
 63.970    710.000    720.416    -10.416    604.470    689.737    635.131    604.470    604.470
 64.070    674.666    724.761    -50.095    604.511    692.371    636.878    604.511    604.511
 64.170    741.000    737.124      3.876    604.550    700.612    641.033    604.550    604.550
 64.270    766.000    759.368      6.632    604.589    715.514    648.403    604.589    604.589
 64.370    795.000    794.297      0.703    604.626    738.597    660.272    604.626    604.626
 64.470    867.858    845.071     22.788    604.662    771.378    678.282    604.662    604.662
 64.570    926.067    914.348     11.719    604.698    814.784    704.166    604.698    604.698
 64.670   1063.654   1003.182     60.472    604.731    868.485    739.306    604.731    604.731
 64.770   1091.000   1109.766    -18.766    604.764    930.236    784.144    604.764    604.764
 64.870   1247.000   1228.236     18.764    604.796    995.315    837.542    604.796    604.796
 64.970   1406.000   1347.906     58.094    604.827   1056.314    896.224    604.827    604.827
 65.070   1416.016   1453.692    -37.675    604.856   1103.902    954.446    604.856    604.856
 65.170   1555.000   1528.762     26.238    604.884   1129.352   1004.104    604.884    604.884
 65.270   1658.000   1559.343     98.657    604.911   1128.150   1035.938    604.911    604.911
 65.370   1509.994   1539.680    -29.686    604.937   1101.978   1042.507    604.937    604.937
 65.470   1525.585   1474.634     50.952    604.962   1057.534   1021.967    604.962    604.962
 65.570   1349.000   1377.995    -28.995    604.985   1003.622    979.300    604.985    604.985
 65.670   1199.147   1266.883    -67.736    605.007    948.384    923.477    605.007    605.007
 65.770   1140.000   1156.101    -16.101    605.028    897.570    863.553    605.028    605.028
 65.870   1078.000   1055.480     22.520    605.048    854.023    806.516    605.048    605.048
 65.970    946.673    969.794    -23.121    605.067    818.087    756.794    605.067    605.067
 66.070    904.000    899.998      4.002    605.084    788.637    716.469    605.084    605.084
 66.170    835.000    844.916     -9.916    605.100    764.284    685.756    605.100    605.100
 66.270    786.000    802.580    -16.580    605.115    744.107    663.608    605.115    605.115
 66.370    761.000    770.843     -9.843    605.128    727.643    648.345    605.128    605.128
 66.470    749.000    747.617      1.383    605.141    714.601    638.168    605.141    605.141
 66.570    733.000    731.052      1.948    605.152    704.719    631.492    605.152    605.152
 66.670    681.000    719.677    -38.677    605.162    697.748    627.093    605.162    605.162
 66.770    671.000    712.421    -41.421    605.170    693.471    624.121    605.170    605.170
 66.870    650.000    708.565    -58.565    605.177    691.713    622.028    605.177    605.177
 66.970    659.000    707.697    -48.697    605.183    692.387    620.492    605.183    605.183
 67.070    657.255    709.722    -52.467    605.188    695.578    619.330    605.188    605.188
 67.170    742.209    714.955     27.254    605.191    701.691    618.455    605.191    605.191
 67.270    708.000    724.295    -16.295    605.193    711.655    617.833    605.193    605.193
 67.370    712.528    739.461    -26.933    605.194    727.177    617.478    605.194    605.194
 67.470    718.507    763.266    -44.759    605.193    751.018    617.440    605.193    605.193
 67.570    753.519    799.836    -46.317    605.192    787.212    617.813    605.192    605.192
 67.670    856.004    854.638      1.366    605.188    841.095    618.726    605.188    605.188
 67.770    960.695    934.128     26.567    605.184    918.967    620.337    605.184    605.184
 67.870    983.770   1044.861    -61.091    605.178   1027.219    622.810    605.178    605.178
 67.970   1251.136   1192.003     59.133    605.171   1170.893    626.271    605.171    605.171
 68.070   1356.000   1377.386    -21.386    605.162   1351.778    630.763    605.162    605.162
 68.170   1592.000   1597.419     -5.419    605.152   1566.386    636.189    605.152    605.152
 68.270   1850.000   1841.240      8.760    605.141   1804.142    642.260    605.141    605.141
 68.370   2020.000   2089.371    -69.371    605.128   2046.083    648.468    605.128    605.128
 68.470   2274.000   2313.390    -39.390    605.114   2264.526    654.071    605.114    605.114
 68.570   2499.000   2478.413     20.587    605.099   2425.499    658.157    605.099    605.099
 68.670   2517.000   2551.648    -34.648    605.082   2497.060    659.872    605.082    605.082
 68.770   2487.000   2516.344    -29.344    605.064   2462.881    658.779    605.064    605.064
 68.870   2480.000   2380.951     99.049    605.045   2331.185    655.094    605.045    605.045
 68.970   2145.962   2174.123    -28.161    605.024   2129.875    649.562    605.024    605.024
 69.070   2048.000   1931.108    116.892    605.001   1893.286    643.099    605.001    605.001
 69.170   1783.000   1683.041     99.959    604.978   1651.752    636.514    604.978    604.978
 69.270   1467.000   1452.650     14.350    604.953   1427.414    630.397    604.953    604.953
 69.370   1304.000   1253.796     50.204    604.926   1233.782    625.108    604.926    604.926
 69.470   1063.412   1092.509    -29.097    604.898   1076.733    620.803    604.898    604.898
 69.570   1031.000    968.685     62.315    604.869    956.169    617.480    604.869    604.869
 69.670    849.923    878.126    -28.203    604.838    868.004    615.029    604.838    604.838
 69.770    861.937    814.576     47.361    604.806    806.145    613.285    604.806    604.806
 69.870    753.708    771.386    -17.678    604.772    764.121    612.071    604.772    604.772
 69.970    828.000    742.641     85.359    604.737    736.157    611.243    604.737    604.737
 70.070    747.069    723.637     23.432    604.701    717.678    610.675    604.701    604.701
 70.170    772.000    710.988     61.012    604.663    705.384    610.278    604.663    604.663
 70.270    747.000    702.436     44.564    604.624    697.076    609.991    604.624    604.624
 70.370    687.000    696.571     -9.571    604.583    691.379    609.780    604.583    604.583
 70.470    648.887    692.563    -43.676    604.541    687.485    609.621    604.541    604.541
 70.570    657.099    689.954    -32.855    604.497    684.947    609.505    604.497    604.497
 70.670    698.000    688.517      9.483    604.452    683.544    609.424    604.452    604.452
 70.770    726.000    688.183     37.817    604.405    683.206    609.379    604.405    604.405
 70.870    697.931    689.013      8.918    604.357    683.994    609.373    604.357    604.357
 70.970    706.000    691.224     14.776    604.308    686.113    609.413    604.308    604.308
 71.070    706.000    695.246     10.754    604.257    689.980    609.515    604.257    604.257
 71.170    705.000    701.827      3.173    604.204    696.316    609.704    604.204    604.204
 71.270    750.000    712.167     37.833    604.150    706.279    610.024    604.150    604.150
 71.370    724.000    728.069     -4.069    604.095    721.608    610.535    604.095    604.095
 71.470    750.957    752.057     -1.100    604.038    744.740    611.326    604.038    604.038
 71.570    823.000    787.397     35.603    603.979    778.827    612.509    603.979    603.979
 71.670    807.000    837.930    -30.930    603.919    827.576    614.217    603.919    603.919
 71.770    872.000    907.646    -35.646    603.858    894.838    616.589    603.858    603.858
 71.870   1037.235    999.954     37.281    603.795    983.904    619.741    603.795    603.795
 71.970   1087.000   1116.706    -29.706    603.731   1096.562    623.739    603.731    603.731
 72.070   1283.000   1257.108     25.892    603.665   1232.045    628.558    603.665    603.665
 72.170   1452.960   1416.687     36.273    603.597   1386.034    634.044    603.597    603.597
 72.270   1496.000   1586.470    -90.470    603.529   1549.867    639.892    603.529    603.529
 72.370   1788.000   1752.476     35.524    603.458   1710.044    645.624    603.458    603.458
 72.470   1866.478   1895.896    -29.418    603.386   1848.408    650.596    603.386    603.386
 72.570   1972.875   1995.213    -22.339    603.313   1944.181    654.071    603.313    603.313
 72.670   2118.750   2031.838     86.912    603.238   1979.412    655.414    603.238    603.238
 72.770   1932.406   1997.988    -65.582    603.162   1946.581    654.358    603.162    603.162
 72.870   1860.000   1900.801    -40.801    603.084   1852.568    651.153    603.084    603.084
 72.970   1809.000   1758.513     50.487    603.004   1714.976    646.422    603.004    603.004
 73.070   1585.000   1592.620     -7.620    602.923   1554.563    640.900    602.923    602.923
 73.170   1380.000   1422.093    -42.093    602.841   1389.655    635.229    602.841    602.841
 73.270   1218.306   1261.123    -42.817    602.757   1233.972    629.879    602.757    602.757
 73.370   1168.602   1118.875     49.727    602.671   1096.387    625.143    602.671    602.671
 73.470   1036.000    999.977     36.023    602.584    981.394    621.160    602.584    602.584
 73.570    889.000    905.355    -16.355    602.495    889.899    617.948    602.495    602.495
 73.670    813.000    833.266    -20.266    602.405    820.218    615.452    602.405    602.405
 73.770    791.000    780.398     10.602    602.313    769.130    613.579    602.313    602.313
 73.870    769.879    742.842     27.037    602.220    732.829    612.231    602.220    602.220
 73.970    723.582    716.822      6.760    602.125    707.628    611.317    602.125    602.125
 74.070    723.573    699.129     24.444    602.029    690.392    610.764    602.029    602.029
 74.170    705.000    687.297     17.703    601.931    678.698    610.529    601.931    601.931
 74.270    712.000    679.581     32.419    601.832    670.826    610.587    601.832    601.832
 74.370    666.000    674.835     -8.835    601.731    665.636    610.933    601.731    601.731
 74.470    642.000    672.345    -30.345    601.629    662.409    611.569    601.629    601.629
 74.570    692.698    671.660     21.038    601.525    660.698    612.496    601.525    601.525
 74.670    640.522    672.465    -31.942    601.419    660.200    613.698    601.419    601.419
 74.770    662.128    674.470    -12.342    601.312    660.662    615.139    601.312    601.312
 74.870    715.150    677.344     37.805    601.203    661.822    616.751    601.203    601.203
 74.970    734.595    680.667     53.928    601.093    663.360    618.431    601.093    601.093
 75.070    699.000    683.913     15.087    600.981    664.890    620.040    600.981    600.981
 75.170    674.836    686.475    -11.639    600.868    665.971    621.413    600.868    600.868
 75.270    665.855    687.776    -21.921    600.753    666.180    622.394    600.753    600.753
 75.370    694.292    687.460      6.832    600.637    665.247    622.895    600.637    600.637
 75.470    679.314    685.566     -6.252    600.519    663.175    622.953    600.519    600.519
 75.570    734.000    682.558     51.442    600.400    660.258    622.738    600.400    600.400
 75.670    753.000    679.191     73.809    600.279    656.977    622.526    600.279    600.279
 75.770    667.202    676.352     -9.150    600.156    653.884    622.650    600.156    600.156
 75.870    685.000    674.963     10.037    600.032    651.529    623.485    600.032    600.032
 75.970    693.192    675.970     17.222    599.907    650.442    625.444    599.907    599.907
 76.070    614.000    680.340    -66.340    599.780    651.137    628.984    599.780    599.780
 76.170    671.000    689.051    -18.051    599.651    654.105    634.589    599.651    599.651
 76.270    736.591    703.033     33.558    599.521    659.794    642.740    599.521    599.521
 76.370    724.000    723.058      0.942    599.389    668.562    653.855    599.389    599.389
 76.470    696.000    749.594    -53.594    599.256    680.610    668.197    599.256    599.256
 76.570    793.000    782.609     10.391    599.121    695.896    685.777    599.121    599.121
 76.670    786.000    821.385    -35.385    598.984    714.049    706.250    598.984    598.984
 76.770    864.000    864.349     -0.349    598.846    734.289    728.821    598.846    598.846
 76.870    952.853    908.938     43.914    598.707    755.364    752.183    598.707    598.707
 76.970    989.183    951.544     37.639    598.566    775.520    774.480    598.566    598.566
 77.070   1012.000    987.629     24.371    598.423    792.568    793.368    598.423    598.423
 77.170   1022.937   1012.251     10.685    598.279    804.119    806.294    598.279    598.279
 77.270    995.448   1021.293    -25.845    598.134    808.185    811.129    598.134    598.134
 77.370    944.745   1013.016    -68.271    597.986    803.925    806.975    597.986    597.986
 77.470   1005.000    988.859     16.141    597.838    792.029    794.579    597.838    597.838
 77.570    978.000    952.753     25.247    597.688    774.388    775.980    597.688    597.688
 77.670    904.350    909.582     -5.231    597.536    753.351    753.709    597.536    597.536
 77.770    845.000    863.913    -18.913    597.383    731.117    730.134    597.383    597.383
 77.870    863.000    819.396     43.604    597.228    709.442    707.149    597.228    597.228
 77.970    780.721    778.616      2.105    597.071    689.569    686.094    597.071    597.071
 78.070    712.000    743.144    -31.144    596.914    672.256    667.783    596.914    596.914
 78.170    728.000    713.666     14.334    596.754    657.832    652.575    596.754    596.754
 78.270    674.000    690.158    -16.158    596.593    646.284    640.458    596.593    596.593
 78.370    660.000    672.096    -12.096    596.431    637.360    631.160    596.431    596.431
 78.470    679.000    658.668     20.332    596.267    630.666    624.263    596.267    596.267
 78.570    666.162    648.959     17.203    596.102    625.763    619.293    596.102    596.102
 78.670    636.000    642.090     -6.090    595.935    622.226    615.795    595.935    595.935
 78.770    646.626    637.305      9.322    595.766    619.689    613.378    595.766    595.766
 78.870    621.000    634.000    -13.000    595.596    617.861    611.732    595.596    595.596
 78.970    616.000    631.731    -15.731    595.425    616.527    610.626    595.425    595.425
 79.070    632.000    630.189      1.811    595.252    615.536    609.901    595.252    595.252
 79.170    620.000    629.173     -9.173    595.078    614.792    609.456    595.078    595.078
 79.270    639.000    628.565     10.435    594.902    614.234    609.229    594.902    594.902
 79.370    645.000    628.304     16.696    594.724    613.833    609.192    594.724    594.724
 79.470    603.974    628.376    -24.401    594.545    613.577    609.341    594.545    594.545
 79.570    616.000    628.801    -12.801    594.365    613.470    609.692    594.365    594.365
 79.670    633.000    629.639      3.361    594.183    613.530    610.288    594.183    594.183
 79.770    617.000    630.994    -13.994    594.000    613.785    611.204    594.000    594.000
 79.870    602.078    633.026    -30.948    593.815    614.274    612.562    593.815    593.815
 79.970    621.110    635.980    -14.870    593.629    615.052    614.550    593.629    593.629
 80.070    595.000    640.209    -45.209    593.441    616.187    617.454    593.441    593.441
 80.170    664.000    646.219     17.781    593.252    617.771    621.689    593.252    593.252
 80.270    631.000    654.702    -23.702    593.061    619.920    627.830    593.061    593.061
 80.370    637.354    666.569    -29.216    592.869    622.784    636.637    592.869    592.869
 80.470    734.000    682.947     51.053    592.675    626.548    649.051    592.675    592.675
 80.570    675.000    705.137    -30.137    592.480    631.432    666.156    592.480    592.480
 80.670    733.000    734.512     -1.512    592.284    637.678    689.081    592.284    592.284
 80.770    726.001    772.350    -46.348    592.086    645.542    718.849    592.086    592.086
 80.870    923.000    819.620    103.380    591.887    655.273    756.181    591.887    591.887
 80.970    881.000    876.734      4.266    591.686    667.097    801.264    591.686    591.686
 81.070    950.000    943.272      6.728    591.484    681.172    853.519    591.484    591.484
 81.170   1068.000   1017.707     50.293    591.280    697.521    911.398    591.280    591.280
 81.270   1169.000   1097.196     71.804    591.075    715.949    972.254    591.075    591.075
 81.370   1218.952   1177.504     41.448    590.869    735.981   1032.328    590.869    590.869
 81.470   1322.316   1253.180     69.136    590.661    756.840   1086.946    590.661    590.661
 81.570   1380.000   1318.124     61.876    590.451    777.496   1131.038    590.451    590.451
 81.670   1528.000   1366.623    161.377    590.241    796.801   1160.038    590.241    590.241
 81.770   1413.000   1394.532     18.468    590.029    813.639   1170.916    590.029    590.029
 81.870   1491.000   1400.213     90.787    589.815    827.188   1162.855    589.815    589.815
 81.970   1451.000   1384.306     66.694    589.600    836.832   1137.107    589.600    589.600
 82.070   1333.793   1349.382    -15.589    589.384    842.256   1096.560    589.384    589.384
 82.170   1329.000   1299.447     29.553    589.167    843.448   1045.229    589.167    589.167
 82.270   1327.000   1239.261     87.739    588.948    840.598    987.684    588.948    588.948
 82.370   1257.000   1173.553     83.447    588.727    833.965    928.396    588.727    588.727
 82.470   1178.687   1106.420     72.267    588.506    823.847    871.162    588.506    588.506
 82.570   1096.350   1041.093     55.257    588.283    810.692    818.769    588.283    588.283
 82.670    970.902    979.958     -9.056    588.058    795.178    772.921    588.058    588.058
 82.770    927.000    924.573      2.427    587.833    778.144    734.341    587.833    587.833
 82.870    859.304    875.680    -16.376    587.606    760.394    702.965    587.606    587.606
 82.970    789.000    833.304    -44.304    587.377    742.571    678.179    587.377    587.377
 83.070    779.000    796.996    -17.996    587.148    725.148    659.057    587.148    587.148
 83.170    766.000    766.128     -0.128    586.917    708.520    644.579    586.917    586.917
 83.270    705.000    740.125    -35.125    586.684    693.073    633.781    586.684    586.684
 83.370    695.000    718.543    -23.543    586.451    679.189    625.842    586.451    586.451
 83.470    682.118    701.060    -18.943    586.216    667.196    620.109    586.216    586.216
 83.570    732.247    687.436     44.811    585.979    657.337    616.099    585.979    585.979
 83.670    659.607    677.467    -17.861    585.742    649.752    613.468    585.742    585.742
 83.770    656.000    670.955    -14.955    585.503    644.482    611.978    585.503    585.503
 83.870    633.000    667.667    -34.667    585.263    641.463    611.459    585.263    585.263
 83.970    681.900    667.307     14.593    585.022    640.537    611.775    585.022    585.022
 84.070    691.502    669.477     22.025    584.779    641.442    612.789    584.779    584.779
 84.170    615.000    673.665    -58.665    584.536    643.824    614.343    584.536    584.536
 84.270    653.057    679.234    -26.177    584.291    647.236    616.247    584.291    584.291
 84.370    628.000    685.427    -57.427    584.044    651.151    618.272    584.044    584.044
 84.470    678.711    691.388    -12.678    583.797    654.979    620.154    583.797    583.797
 84.570    684.000    696.216    -12.216    583.548    658.102    621.606    583.548    583.548
 84.670    744.114    699.058     45.056    583.298    659.941    622.358    583.298    583.298
 84.770    672.000    699.279    -27.279    583.047    660.064    622.206    583.047    583.047
 84.870    668.503    696.615    -28.113    582.795    658.285    621.072    582.795    582.795
 84.970    660.668    691.254    -30.586    582.541    654.719    619.028    582.541    582.541
 85.070    727.293    683.737     43.557    582.287    649.716    616.264    582.287    582.287
 85.170    636.000    674.789    -38.789    582.031    643.745    613.036    582.031    582.031
 85.270    651.000    665.162    -14.162    581.774    637.291    609.612    581.774    581.774
 85.370    609.000    655.531    -46.531    581.516    630.784    606.235    581.516    581.516
 85.470    637.000    646.454     -9.454    581.256    624.571    603.116    581.256    581.256
 85.570    638.671    638.357      0.314    580.996    618.907    600.425    580.996    580.996
 85.670    633.000    631.532      1.468    580.734    613.954    598.295    580.734    580.734
 85.770    618.070    626.156     -8.085    580.472    609.787    596.825    580.472    580.472
 85.870    612.225    622.304    -10.079    580.208    606.414    596.083    580.208    580.208
 85.970    600.224    619.976    -19.752    579.943    603.792    596.113    579.943    579.943
 86.070    654.256    619.119     35.137    579.677    601.846    596.934    579.677    579.677
 86.170    649.609    619.642     29.966    579.410    600.492    598.543    579.410    579.410
 86.270    609.922    621.434    -11.512    579.142    599.650    600.907    579.142    579.142
 86.370    651.000    624.365     26.635    578.872    599.258    603.957    578.872    578.872
 86.470    638.000    628.288      9.712    578.602    599.281    607.584    578.602    578.602
 86.570    663.000    633.038     29.962    578.331    599.714    611.626    578.331    578.331
 86.670    627.000    638.429    -11.429    578.058    600.587    615.867    578.058    578.058
 86.770    670.000    644.251     25.749    577.785    601.962    620.037    577.785    577.785
 86.870    688.000    650.278     37.722    577.511    603.931    623.815    577.511    577.511
 86.970    733.000    656.275     76.725    577.235    606.611    626.852    577.235    577.235
 87.070    660.000    662.039     -2.039    576.959    610.134    628.811    576.959    576.959
 87.170    715.000    667.450     47.550    576.681    614.634    629.439    576.681    576.681
 87.270    701.000    672.524     28.476    576.403    620.226    628.636    576.403    576.403
 87.370    711.000    677.420     33.580    576.123    626.992    626.480    576.123    576.123
 87.470    675.000    682.379     -7.379    575.843    634.945    623.197    575.843    575.843
 87.570    715.444    687.632     27.813    575.562    644.013    619.092    575.562    575.562
 87.670    702.000    693.303      8.697    575.280    654.007    614.477    575.280    575.280
 87.770    678.692    699.358    -20.667    574.997    664.609    609.636    574.997    574.997
 87.870    751.000    705.579     45.421    574.712    675.362    604.811    574.712    574.712
 87.970    758.408    711.557     46.851    574.427    685.664    600.193    574.427    574.427
 88.070    735.000    716.717     18.283    574.142    694.801    595.924    574.142    574.142
 88.170    723.296    720.392      2.905    573.855    702.013    592.097    573.855    573.855
 88.270    732.764    721.949     10.815    573.567    706.624    588.757    573.567    573.567
 88.370    739.000    720.973     18.027    573.279    708.214    585.907    573.279    573.279
 88.470    747.000    717.397     29.603    572.990    706.743    583.520    572.990    572.990
 88.570    708.217    711.526     -3.310    572.699    702.563    581.552    572.699    572.699
 88.670    732.801    703.946     28.855    572.408    696.310    579.947    572.408    572.408
 88.770    747.340    695.375     51.965    572.117    688.759    578.650    572.117    572.117
 88.870    674.000    686.553    -12.553    571.824    680.703    577.607    571.824    571.824
 88.970    672.000    678.176     -6.176    571.531    672.881    576.773    571.531    571.531
 89.070    678.000    670.846      7.154    571.236    665.936    576.109    571.236    571.236
 89.170    674.927    665.048      9.878    570.941    660.381    575.584    570.941    570.941
 89.270    652.000    661.106     -9.106    570.646    656.567    575.173    570.646    570.646
 89.370    661.000    659.173      1.827    570.349    654.668    574.853    570.349    570.349
 89.470    654.292    659.223     -4.931    570.052    654.678    574.607    570.052    570.052
 89.570    641.000    661.062    -20.062    569.754    656.418    574.418    569.754    569.754
 89.670    665.000    664.338      0.662    569.456    659.556    574.266    569.456    569.456
 89.770    616.770    668.563    -51.793    569.156    663.623    574.134    569.156    569.156
 89.870    640.000    673.142    -33.142    568.856    668.044    574.000    568.856    568.856
 89.970    700.000    677.403     22.597    568.556    672.168    573.844    568.556    568.556
 90.070    723.679    680.662     43.017    568.255    675.332    573.644    568.255    568.255
 90.170    720.000    682.303     37.697    567.953    676.941    573.380    567.953    567.953
 90.270    720.000    681.896     38.104    567.650    676.574    573.040    567.650    567.650
 90.370    697.000    679.280     17.720    567.347    674.075    572.620    567.347    567.347
 90.470    653.000    674.592    -21.592    567.043    669.576    572.126    567.043    567.043
 90.570    637.000    668.205    -31.205    566.739    663.434    571.572    566.739    566.739
 90.670    640.174    660.616    -20.441    566.434    656.131    570.977    566.434    566.434
 90.770    663.000    652.350     10.650    566.128    648.172    570.359    566.128    566.128
 90.870    651.000    643.892      7.108    565.822    640.025    569.735    565.822    565.822
 90.970    659.000    635.647     23.353    565.516    632.082    569.119    565.516    565.516
 91.070    589.000    627.935    -38.935    565.209    624.652    568.524    565.209    565.209
 91.170    576.000    620.980    -44.980    564.901    617.951    567.956    564.901    564.901
 91.270    602.509    614.924    -12.414    564.593    612.116    567.421    564.593    564.593
 91.370    604.000    609.827     -5.827    564.284    607.207    566.921    564.284    564.284
 91.470    655.901    605.691     50.210    563.975    603.223    566.455    563.975    563.975
 91.570    594.000    602.470     -8.470    563.666    600.122    566.022    563.666    563.666
 91.670    597.762    600.092     -2.330    563.356    597.832    565.621    563.356    563.356
 91.770    607.000    598.476      8.524    563.046    596.278    565.247    563.046    563.046
 91.870    623.000    597.550     25.450    562.735    595.387    564.899    562.735    562.735
 91.970    566.600    597.258    -30.657    562.424    595.106    564.574    562.424    562.424
 92.070    589.000    597.575     -8.575    562.112    595.412    564.273    562.112    562.112
 92.170    610.000    598.511     11.489    561.801    596.312    563.995    561.801    561.801
 92.270    635.932    600.110     35.822    561.488    597.850    563.742    561.488    561.488
 92.370    583.000    602.456    -19.456    561.176    600.106    563.518    561.176    561.176
 92.470    615.526    605.665      9.862    560.863    603.191    563.326    560.863    560.863
 92.570    613.000    609.879      3.121    560.550    607.244    563.172    560.550    560.550
 92.670    582.000    615.259    -33.259    560.237    612.418    563.060    560.237    560.237
 92.770    639.000    621.970     17.030    559.923    618.876    562.996    559.923    559.923
 92.870    657.000    630.170     26.830    559.609    626.769    562.984    559.609    559.609
 92.970    638.000    639.988     -1.988    559.295    636.225    563.027    559.295    559.295
 93.070    639.000    651.513    -12.513    558.981    647.330    563.126    558.981    558.981
 93.170    644.000    664.775    -20.775    558.666    660.117    563.280    558.666    558.666
 93.270    708.000    679.733     28.267    558.351    674.547    563.486    558.351    558.351
 93.370    659.000    696.258    -37.258    558.037    690.499    563.737    558.037    558.037
 93.470    697.000    714.133    -17.133    557.721    707.762    564.027    557.721    557.721
 93.570    776.619    733.038     43.582    557.406    726.023    564.347    557.406    557.406
 93.670    692.000    752.548    -60.548    557.091    744.867    564.692    557.091    557.091
 93.770    810.000    772.210     37.790    556.776    763.842    565.058    556.776    556.776
 93.870    779.000    791.547    -12.547    556.460    782.465    565.451    556.460    556.460
 93.970    808.000    810.150     -2.150    556.145    800.314    565.887    556.145    556.145
 94.070    858.941    827.815     31.126    555.829    817.147    566.401    555.829    555.829
 94.170    895.000    844.583     50.417    555.514    832.952    567.047    555.514    555.514
 94.270    859.000    860.722     -1.722    555.198    847.927    567.894    555.198    555.198
 94.370    904.000    876.614     27.386    554.882    862.374    569.025    554.882    554.882
 94.470    857.000    892.618    -35.618    554.567    876.566    570.521    554.567    554.567
 94.570    933.000    908.949     24.051    554.251    890.652    572.451    554.251    554.251
 94.670    963.000    925.638     37.362    553.936    904.611    574.867    553.936    553.936
 94.770    916.055    942.561    -26.506    553.620    918.300    577.787    553.620    553.620
 94.870   1008.402    959.512     48.889    553.305    931.532    581.193    553.305    553.305
 94.970    964.000    976.267    -12.267    552.990    944.145    585.022    552.990    552.990
 95.070   1010.807    992.574     18.232    552.675    956.000    589.163    552.675    552.675
 95.170    973.020   1008.075    -35.055    552.360    966.895    593.456    552.360    552.360
 95.270   1051.455   1022.196     29.259    552.045    976.466    597.698    552.045    552.045
 95.370   1035.000   1034.091      0.909    551.731    984.106    601.645    551.731    551.731
 95.470   1107.139   1042.654     64.485    551.416    988.978    605.029    551.416    551.416
 95.570   1081.469   1046.646     34.823    551.102    990.114    607.580    551.102    551.102
 95.670   1025.000   1044.937    -19.937    550.788    986.615    609.066    550.788    550.788
 95.770    976.052   1036.758    -60.706    550.475    977.874    609.324    550.475    550.475
 95.870    994.237   1021.968    -27.731    550.162    963.802    608.303    550.162    550.162
 95.970   1026.000   1001.161     24.839    549.849    944.920    606.073    549.849    549.849
 96.070   1006.000    975.575     30.425    549.536    922.291    602.811    549.536    549.536
 96.170    974.000    946.879     27.121    549.224    897.339    598.759    549.224    549.224
 96.270    891.000    916.938    -25.938    548.912    871.658    594.190    548.912    548.912
 96.370    896.000    887.635      8.365    548.600    846.866    589.369    548.600    548.600
 96.470    810.399    860.761    -50.362    548.289    824.512    584.537    548.289    548.289
 96.570    811.000    837.955    -26.955    547.978    806.032    579.898    547.978    547.978
 96.670    850.000    820.670     29.330    547.668    792.721    575.610    547.668    547.668
 96.770    840.474    810.156     30.318    547.358    785.715    571.787    547.358    547.358
 96.870    841.159    807.453     33.706    547.049    785.986    568.497    547.049    547.049
 96.970    792.270    813.380    -21.110    546.740    794.324    565.769    546.740    546.740
 97.070    812.364    828.529    -16.166    546.432    811.328    563.597    546.432    546.432
 97.170    911.737    853.258     58.479    546.124    837.382    561.954    546.124    546.124
 97.270    884.000    887.648     -3.648    545.817    872.613    560.794    545.817    545.817
 97.370    964.000    931.493     32.507    545.510    916.868    560.066    545.510    545.510
 97.470   1005.000    984.362     20.638    545.204    969.773    559.714    545.204    545.204
 97.570   1031.000   1045.314    -14.314    544.899   1030.442    559.679    544.899    544.899
 97.670   1166.000   1113.006     52.994    544.594   1097.599    559.900    544.594    544.594
 97.770   1121.902   1185.665    -63.762    544.290   1169.529    560.316    544.290    544.290
 97.870   1293.000   1260.975     32.025    543.987   1243.985    560.861    543.987    543.987
 97.970   1356.590   1336.121     20.470    543.684   1318.220    561.465    543.684    543.684
 98.070   1393.000   1407.801    -14.801    543.382   1389.011    562.053    543.382    543.382
 98.170   1507.209   1472.342     34.867    543.081   1452.762    562.547    543.081    543.081
 98.270   1525.000   1525.934     -0.934    542.781   1505.743    562.866    542.781    542.781
 98.370   1514.863   1565.031    -50.168    542.482   1544.479    562.941    542.482    542.482
 98.470   1570.690   1586.893    -16.203    542.183   1566.285    562.716    542.183    542.183
 98.570   1633.000   1590.099     42.901    541.885   1569.766    562.163    541.885    541.885
 98.670   1536.145   1574.843    -38.699    541.588   1555.111    561.285    541.588    541.588
 98.770   1491.000   1542.858    -51.858    541.292   1524.018    560.117    541.292    541.292
 98.870   1530.146   1497.041     33.105    540.997   1479.327    558.713    540.997    540.997
 98.970   1491.000   1440.953     50.047    540.703   1424.531    557.141    540.703    540.703
 99.070   1344.951   1378.370    -33.419    540.410   1363.335    555.471    540.410    540.410
 99.170   1320.000   1312.959      7.041    540.118   1299.341    553.768    540.118    540.118
 99.270   1251.000   1248.087      2.913    539.826   1235.856    552.093    539.826    539.826
 99.370   1181.000   1186.714     -5.714    539.536   1175.790    550.496    539.536    539.536
 99.470   1150.329   1131.357     18.972    539.247   1121.619    549.018    539.247    539.247
 99.570   1088.000   1084.096      3.904    538.959   1075.391    547.692    538.959    538.959
 99.670   1058.420   1046.602     11.817    538.673   1038.756    546.540    538.673    538.673
 99.770   1036.000   1020.181     15.819    538.387   1013.006    545.576    538.387    538.387
 99.870   1050.550   1005.803     44.747    538.102    999.106    544.806    538.102    538.102
 99.970    964.000   1004.125    -40.125    537.819    997.713    544.229    537.819    537.819
100.070   1007.000   1015.502     -8.502    537.537   1009.193    543.837    537.537    537.537
100.170   1022.000   1039.998    -17.998    537.256   1033.620    543.619    537.256    537.256
100.270   1065.219   1077.386    -12.166    536.976   1070.784    543.558    536.976    536.976
100.370   1076.372   1127.147    -50.775    536.698   1120.190    543.632    536.698    536.698
100.470   1230.000   1188.460     41.540    536.421   1181.038    543.819    536.421    536.421
100.570   1272.000   1260.179     11.821    536.145   1252.210    544.091    536.145    536.145
100.670   1342.000   1340.802      1.198    535.871   1332.234    544.419    535.871    535.871
100.770   1504.791   1428.434     76.356    535.598   1419.248    544.771    535.598    535.598
100.870   1506.800   1520.783    -13.982    535.326   1510.990    545.115    535.326    535.326
100.970   1585.000   1615.213    -30.213    535.056   1604.861    545.418    535.056    535.056
101.070   1796.000   1708.757     87.243    534.787   1697.924    545.645    534.787    534.787
101.170   1830.000   1798.364     31.636    534.520   1787.158    545.771    534.520    534.520
101.270   1903.000   1881.154     21.846    534.255   1869.700    545.774    534.255    534.255
101.370   2029.211   1954.664     74.546    533.991   1943.096    545.645    533.991    533.991
101.470   1948.437   2016.997    -68.561    533.728   2005.443    545.391    533.728    533.728
101.570   2112.000   2066.780     45.220    533.467   2055.350    545.026    533.467    533.467
101.670   2065.000   2102.978    -37.978    533.208   2091.757    544.577    533.208    533.208
101.770   2106.000   2124.695    -18.695    532.950   2113.736    544.074    532.950    532.950
101.870   2155.000   2131.098     23.902    532.694   2120.422    543.550    532.694    532.694
101.970   2069.138   2121.559    -52.421    532.440   2111.157    543.033    532.440    532.440
102.070   2189.497   2095.984     93.513    532.187   2085.823    542.548    532.187    532.187
102.170   2014.000   2055.183    -41.183    531.936   2045.207    542.117    531.936    531.936
102.270   1988.000   2001.070    -13.070    531.687   1991.211    541.753    531.687    531.687
102.370   1931.811   1936.581     -4.770    531.440   1926.761    541.464    531.440    531.440
102.470   1901.266   1865.297     35.969    531.195   1855.437    541.253    531.195    531.195
102.570   1862.472   1790.955     71.517    530.951   1780.984    541.112    530.951    530.951
102.670   1669.000   1717.001    -48.001    530.710   1706.860    541.030    530.710    530.710
102.770   1636.222   1646.284    -10.062    530.470   1635.933    540.988    530.470    530.470
102.870   1579.652   1580.904     -1.252    530.232   1570.325    540.966    530.232    530.232
102.970   1452.000   1522.169    -70.169    529.996   1511.369    540.940    529.996    529.996
103.070   1421.000   1470.617    -49.617    529.763   1459.621    540.891    529.763    529.763
103.170   1473.964   1426.064     47.899    529.531   1414.919    540.799    529.531    529.531
103.270   1365.796   1387.692    -21.895    529.301   1376.458    540.650    529.301    529.301
103.370   1321.000   1354.149    -33.149    529.074   1342.901    540.429    529.074    529.074
103.470   1278.000   1323.708    -45.708    528.848   1312.534    540.126    528.848    528.848
103.570   1305.000   1294.494     10.506    528.625   1283.490    539.730    528.625    528.625
103.670   1228.000   1264.724    -36.724    528.404   1253.992    539.235    528.404    528.404
103.770   1197.000   1232.967    -35.967    528.185   1222.610    538.640    528.185    528.185
103.870   1170.000   1198.340    -28.340    527.968   1188.455    537.951    527.968    527.968
103.970   1118.000   1160.568    -42.568    527.754   1151.238    537.179    527.754    527.754
104.070   1161.302   1119.919     41.383    527.542   1111.210    536.344    527.542    527.542
104.170   1063.000   1077.051    -14.051    527.332   1069.008    535.466    527.332    527.332
104.270   1065.847   1032.839     33.008    527.125   1025.483    534.567    527.125    527.125
104.370    958.226    988.229    -30.003    526.919    981.564    533.666    526.919    526.919
104.470    929.000    944.143    -15.143    526.717    938.154    532.782    526.717    526.717
104.570    937.854    901.417     36.437    526.517    896.075    531.928    526.517    526.517
104.670    823.000    860.769    -37.769    526.319    856.035    531.116    526.319    526.319
104.770    860.000    822.781     37.219    526.124    818.606    530.354    526.124    526.124
104.870    779.000    787.885     -8.885    525.931    784.219    529.647    525.931    525.931
104.970    797.749    756.368     41.381    525.741    753.154    528.998    525.741    525.741
105.070    734.783    728.367      6.416    525.554    725.551    528.406    525.554    525.554
105.170    678.544    703.870    -25.326    525.369    701.405    527.865    525.369    525.369
105.270    696.489    682.824     13.665    525.187    680.653    527.383    525.187    525.187
105.370    704.000    665.032     38.968    525.007    663.105    526.955    525.007    525.007
105.470    665.000    650.237     14.763    524.831    648.511    526.573    524.831    524.831
105.570    668.931    638.157     30.773    524.657    636.595    526.232    524.657    524.657
105.670    625.000    628.499     -3.499    524.485    627.065    525.929    524.485    524.485
105.770    638.000    620.974     17.026    524.317    619.640    525.658    524.317    524.317
105.870    604.000    615.319    -11.319    524.152    614.060    525.415    524.152    524.152
105.970    645.000    611.304     33.696    523.989    610.097    525.197    523.989    523.989
106.070    612.000    608.739      3.261    523.829    607.566    525.002    523.829    523.829
106.170    686.000    607.476     78.524    523.673    606.319    524.827    523.673    523.673
106.270    646.000    607.407     38.593    523.519    606.251    524.670    523.519    523.519
106.370    643.000    608.465     34.535    523.368    607.295    524.530    523.368    523.368
106.470    654.000    610.610     43.390    523.220    609.413    524.407    523.220    523.220
106.570    633.000    613.832     19.168    523.076    612.593    524.301    523.076    523.076
106.670    640.000    618.134     21.866    522.934    616.841    524.212    522.934    522.934
106.770    613.000    623.531    -10.531    522.796    622.170    524.139    522.796    522.796
106.870    657.160    630.042     27.119    522.661    628.599    524.082    522.661    522.661
106.970    619.000    637.674    -18.674    522.529    636.136    524.043    522.529    522.529
107.070    684.000    646.423     37.577    522.401    644.775    524.020    522.401    522.401
107.170    685.000    656.256     28.744    522.275    654.485    524.014    522.275    522.275
107.270    723.214    667.105     56.109    522.153    665.199    524.023    522.153    522.153
107.370    677.000    678.859     -1.859    522.034    676.808    524.045    522.034    522.034
107.470    663.995    691.359    -27.364    521.919    689.155    524.080    521.919    521.919
107.570    690.359    704.395    -14.036    521.807    702.033    524.123    521.807    521.807
107.670    704.000    717.706    -13.706    521.699    715.185    524.171    521.699    521.699
107.770    701.000    730.983    -29.983    521.594    728.305    524.221    521.594    521.594
107.870    735.000    743.876     -8.876    521.493    741.049    524.266    521.493    521.493
107.970    768.317    756.004     12.313    521.395    753.041    524.302    521.395    521.395
108.070    749.000    766.979    -17.979    521.301    763.900    524.324    521.301    521.301
108.170    793.968    776.435     17.533    521.210    773.266    524.325    521.210    521.210
108.270    772.313    784.074    -11.762    521.123    780.842    524.302    521.123    521.123
108.370    759.000    789.706    -30.706    521.040    786.444    524.252    521.040    521.040
108.470    787.000    793.291     -6.291    520.961    790.032    524.172    520.961    520.961
108.570    751.000    794.954    -43.954    520.885    791.731    524.065    520.885    520.885
108.670    798.000    794.971      3.029    520.813    791.812    523.933    520.813    520.813
108.770    850.284    793.728     56.556    520.745    790.659    523.780    520.745    520.745
108.870    794.000    791.675      2.325    520.681    788.714    523.611    520.681    520.681
108.970    754.401    789.263    -34.863    520.621    786.425    523.434    520.621    520.621
109.070    779.000    786.909     -7.909    520.565    784.199    523.253    520.565    520.565
109.170    773.000    784.957    -11.957    520.512    782.379    523.074    520.512    520.512
109.270    738.000    783.663    -45.663    520.464    781.215    522.900    520.464    520.464
109.370    739.846    783.182    -43.337    520.420    780.858    522.735    520.420    520.420
109.470    795.000    783.560     11.440    520.380    781.351    522.583    520.380    520.380
109.570    734.000    784.731    -50.731    520.344    782.630    522.444    520.344    520.344
109.670    785.000    786.527     -1.527    520.312    784.521    522.320    520.312    520.312
109.770    820.000    788.675     31.325    520.285    786.755    522.210    520.285    520.285
109.870    810.000    790.819     19.181    520.262    788.975    522.114    520.262    520.262
109.970    786.000    792.541     -6.541    520.243    790.766    522.029    520.243    520.243
110.070    736.547    793.395    -56.847    520.228    791.683    521.955    520.228    520.228
110.170    737.000    792.955    -55.955    520.218    791.303    521.888    520.218    520.218
110.270    724.000    790.869    -66.869    520.212    789.274    521.827    520.212    520.212
110.370    699.000    786.898    -87.898    520.211    785.364    521.767    520.211    520.211
110.470    758.826    780.959    -22.133    520.214    779.493    521.703    520.214    520.214
110.570    789.000    773.149     15.851    520.222    771.743    521.652    520.222    520.222
110.670    777.128    763.666     13.462    520.234    762.321    521.604    520.234    520.234
110.770    758.000    752.815      5.185    520.251    751.530    521.560    520.251    520.251
110.870    731.000    740.953     -9.953    520.273    739.729    521.520    520.273    520.273
110.970    728.714    728.451      0.262    520.299    727.287    521.485    520.299    520.299
111.070    732.000    715.669     16.331    520.330    714.563    521.457    520.330    520.330
111.170    701.000    702.936     -1.936    520.366    701.886    521.435    520.366    520.366
111.270    653.000    690.542    -37.542    520.406    689.544    521.422    520.406    520.406
111.370    624.000    678.729    -54.729    520.451    677.779    521.417    520.451    520.451
111.470    725.000    667.694     57.306    520.502    666.787    521.422    520.502    520.502
111.570    666.000    657.603      8.397    520.557    656.735    521.436    520.557    520.557
111.670    689.000    648.555     40.445    520.617    647.720    521.461    520.617    520.617
111.770    703.000    640.612     62.388    520.682    639.804    521.496    520.682    520.682
111.870    650.000    633.798     16.202    520.752    633.013    521.542    520.752    520.752
111.970    643.000    628.103     14.897    520.828    627.335    521.598    520.828    520.828
112.070    570.829    623.487    -52.658    520.908    622.732    521.664    520.908    520.908
112.170    655.930    619.890     36.040    520.994    619.142    521.740    520.994    520.994
112.270    641.000    617.235     23.765    521.085    616.492    521.825    521.085    521.085
112.370    583.000    615.435    -32.435    521.181    614.693    521.919    521.181    521.181
112.470    624.692    614.399     10.294    521.282    613.653    522.022    521.282    521.282
112.570    644.151    614.033     30.118    521.389    613.283    522.132    521.389    521.389
112.670    626.676    614.251     12.425    521.501    613.495    522.249    521.501    521.501
112.770    668.591    614.971     53.620    521.618    614.207    522.374    521.618    521.618
112.870    656.000    616.122     39.878    521.741    615.349    522.504    521.741    521.741
112.970    603.314    617.642    -14.328    521.870    616.861    522.641    521.870    521.870
113.070    653.683    619.485     34.198    522.004    618.695    522.784    522.004    522.004
113.170    576.239    621.617    -45.378    522.144    620.818    522.932    522.144    522.144
113.270    614.000    624.019    -10.019    522.289    623.211    523.086    522.289    522.289
113.370    629.000    626.689      2.311    522.440    625.871    523.245    522.440    522.440
113.470    621.000    629.639     -8.639    522.596    628.812    523.411    522.596    522.596
113.570    629.000    632.900     -3.900    522.759    632.062    523.584    522.759    522.759
113.670    618.000    636.518    -18.518    522.927    635.668    523.765    522.927    522.927
113.770    668.000    640.559     27.441    523.101    639.693    523.954    523.101    523.101
113.870    649.000    645.112      3.888    523.281    644.227    524.152    523.281    523.281
113.970    608.000    650.290    -42.290    523.467    649.382    524.360    523.467    523.467
114.070    631.000    656.243    -25.243    523.659    655.305    524.580    523.659    523.659
114.170    654.000    663.161     -9.161    523.857    662.187    524.813    523.857    523.857
114.270    693.569    671.287     22.282    524.061    670.267    525.061    524.061    524.061
114.370    627.462    680.928    -53.466    524.271    679.852    525.324    524.271    524.271
114.470    727.000    692.470     34.530    524.488    691.326    525.606    524.488    524.488
114.570    745.000    706.394     38.606    524.710    705.167    525.907    524.710    524.710
114.670    734.000    723.295     10.705    524.939    721.968    526.231    524.939    524.939
114.770    744.916    743.896      1.020    525.174    742.449    526.579    525.174    525.174
114.870    769.000    769.070     -0.070    525.416    767.480    526.955    525.416    525.416
114.970    742.257    799.854    -57.597    525.664    798.097    527.360    525.664    525.664
115.070    861.870    837.465     24.405    525.918    835.511    527.798    525.918    525.918
115.170    927.468    883.304     44.164    526.179    881.123    528.271    526.179    526.179
115.270    887.000    938.962    -51.962    526.446    936.520    528.782    526.446    526.446
115.370    980.000   1006.209    -26.209    526.720   1003.468    529.333    526.720    526.720
115.470   1073.408   1086.973    -13.564    527.000   1083.893    529.927    527.000    527.000
115.570   1218.982   1183.308     35.675    527.287   1179.848    530.567    527.287    527.287
115.670   1242.000   1297.343    -55.343    527.581   1293.458    531.253    527.581    527.581
115.770   1422.000   1431.214     -9.214    527.882   1426.860    531.987    527.882    527.882
115.870   1564.000   1586.983    -22.983    528.189   1582.114    532.770    528.189    528.189
115.970   1843.000   1766.534     76.466    528.504   1761.105    533.601    528.504    528.504
116.070   2038.000   1971.463     66.537    528.825   1965.431    534.480    528.825    528.825
116.170   2271.000   2202.951     68.049    529.153   2196.276    535.404    529.153    529.153
116.270   2419.633   2461.641    -42.008    529.488   2454.286    536.370    529.488    529.488
116.370   2702.000   2747.504    -45.504    529.830   2739.439    537.374    529.830    529.830
116.470   3057.517   3059.725     -2.208    530.180   3050.926    538.409    530.180    530.180
116.570   3309.000   3396.600    -87.600    530.536   3387.053    539.468    530.536    530.536
116.670   3671.570   3755.452    -83.882    530.900   3745.153    540.544    530.900    530.900
116.770   4212.998   4132.579     80.419    531.271   4121.533    541.628    531.271    531.271
116.870   4462.638   4523.196    -60.558    531.649   4511.420    542.711    531.649    531.649
116.970   4890.000   4921.607    -31.607    532.034   4909.127    543.784    532.034    532.034
117.070   5276.000   5321.035    -45.035    532.427   5307.886    544.841    532.427    532.427
117.170   5871.546   5713.809    157.738    532.828   5700.036    545.871    532.828    532.828
117.270   5890.000   6091.503   -201.503    533.235   6077.162    546.869    533.235    533.235
117.370   6573.145   6445.113    128.031    533.651   6430.267    547.826    533.651    533.651
117.470   6659.025   6765.321   -106.296    534.074   6750.041    548.735    534.074    534.074
117.570   6968.623   7042.850    -74.228    534.504   7027.215    549.586    534.504    534.504
117.670   7173.000   7268.947    -95.947    534.943   7253.043    550.374    534.943    534.943
117.770   7547.733   7435.952    111.781    535.389   7419.869    551.090    535.389    535.389
117.870   7481.000   7537.922    -56.922    535.842   7521.753    551.729    535.842    535.842
117.970   7708.799   7571.191    137.609    536.304   7555.030    552.286    536.304    536.304
118.070   7652.000   7534.758    117.242    536.773   7518.696    552.760    536.773    536.773
118.170   7496.077   7430.395     65.681    537.251   7414.520    553.150    537.251    537.251
118.270   7502.000   7262.447    239.553    537.736   7246.837    553.462    537.736    537.736
118.370   7013.000   7037.375    -24.375    538.230   7022.102    553.698    538.230    538.230
118.470   6651.140   6763.162   -112.022    538.731   6748.291    553.866    538.731    538.731
118.570   6522.337   6448.692     73.645    539.241   6434.279    553.972    539.241    539.241
118.670   6162.206   6103.199     59.007    539.759   6089.293    554.024    539.759    539.759
118.770   5644.000   5735.823    -91.823    540.285   5722.465    554.030    540.285    540.285
118.870   5395.305   5355.278     40.027    540.819   5342.502    553.998    540.819    540.819
118.970   4890.000   4969.620    -79.620    541.362   4957.451    553.936    541.362    541.362
119.070   4712.000   4586.071    125.929    541.913   4574.528    553.855    541.913    541.913
119.170   4323.000   4210.914    112.086    542.473   4200.007    553.764    542.473    542.473
119.270   3868.395   3849.421     18.974    543.041   3839.150    553.672    543.041    543.041
119.370   3440.781   3505.825    -65.044    543.618   3496.185    553.590    543.618    543.618
119.470   3170.972   3183.332    -12.359    544.203   3174.308    553.526    544.203    544.203
119.570   2963.000   2884.166     78.834    544.797   2875.738    553.490    544.797    544.797
119.670   2628.000   2609.651     18.349    545.400   2601.791    553.489    545.400    545.400
119.770   2457.000   2360.307     96.693    546.011   2352.983    553.530    546.011    546.011
119.870   2168.000   2135.974     32.026    546.631   2129.149    553.618    546.631    546.631
119.970   1975.000   1935.933     39.067    547.260   1929.565    553.759    547.260    547.260
120.070   1732.000   1759.026    -27.026    547.899   1753.072    553.956    547.899    547.899
120.170   1629.000   1603.775     25.225    548.546   1598.187    554.212    548.546    548.546
120.270   1502.000   1468.483     33.517    549.202   1463.212    554.529    549.202    549.202
120.370   1358.000   1351.328      6.672    549.867   1346.322    554.910    549.867    549.867
120.470   1237.555   1250.442    -12.887    550.541   1245.650    555.356    550.541    550.541
120.570   1156.711   1163.981     -7.270    551.225   1159.349    555.868    551.225    551.225
120.670   1089.000   1090.175     -1.175    551.918   1085.648    556.446    551.918    551.918
120.770    964.052   1027.371    -63.318    552.620   1022.894    557.091    552.620    552.620
120.870    996.000    974.056     21.944    553.331    969.574    557.804    553.331    553.331
120.970    949.000    928.877     20.123    554.052    924.332    558.585    554.052    554.052
121.070    892.000    890.643      1.357    554.783    885.977    559.434    554.783    554.783
121.170    848.000    858.320    -10.320    555.523    853.475    560.353    555.523    555.523
121.270    805.000    831.027    -26.027    556.272    825.942    561.343    556.272    556.272
121.370    817.000    808.018      8.982    557.031    802.632    562.404    557.031    557.031
121.470    807.000    788.669     18.331    557.800    782.920    563.538    557.800    557.800
121.570    814.131    772.463     41.668    558.579    766.286    564.746    558.579    558.579
121.670    753.000    758.972     -5.972    559.367    752.301    566.030    559.367    559.367
121.770    721.283    747.844    -26.561    560.166    740.612    567.392    560.166    560.166
121.870    692.487    738.789    -46.302    560.974    730.927    568.832    560.974    560.974
121.970    728.000    731.567     -3.567    561.792    723.005    570.352    561.792    561.792
122.070    685.000    725.979    -40.979    562.620    716.645    571.953    562.620    562.620
122.170    706.894    721.857    -14.963    563.459    711.680    573.636    563.459    563.459
122.270    716.000    719.058     -3.058    564.307    707.967    575.401    564.307    564.307
122.370    691.000    717.458    -26.458    565.166    705.380    577.248    565.166    565.166
122.470    716.000    716.946     -0.946    566.035    703.811    579.176    566.035    566.035
122.570    681.000    717.421    -36.421    566.915    703.159    581.184    566.915    566.915
122.670    662.000    718.788    -56.788    567.804    703.332    583.269    567.804    567.804
122.770    758.812    720.953     37.859    568.705    704.241    585.427    568.705    568.705
122.870    681.558    723.825    -42.267    569.615    705.801    587.652    569.615    569.615
122.970    742.671    727.310     15.360    570.537    707.924    589.937    570.537    570.537
123.070    743.183    731.310     11.873    571.469    710.525    592.271    571.469    571.469
123.170    755.589    735.722     19.867    572.411    713.512    594.640    572.411    572.411
123.270    692.000    740.437    -48.437    573.365    716.794    597.030    573.365    573.365
123.370    753.444    745.341      8.103    574.329    720.273    599.422    574.329    574.329
123.470    692.000    750.312    -58.312    575.304    723.849    601.795    575.304    575.304
123.570    726.000    755.224    -29.224    576.290    727.418    604.126    576.290    576.290
123.670    771.000    759.944     11.056    577.287    730.874    606.390    577.287    577.287
123.770    760.000    764.338     -4.338    578.295    734.108    608.561    578.295    578.295
123.870    793.000    768.272     24.728    579.314    737.014    610.612    579.314    579.314
123.970    779.239    771.616      7.623    580.344    739.487    612.516    580.344    580.344
124.070    784.224    774.249      9.976    581.386    741.433    614.247    581.386    581.386
124.170    762.000    776.066    -14.066    582.438    742.767    615.785    582.438    582.438
124.270    818.000    776.984     41.016    583.503    743.425    617.113    583.503    583.503
124.370    791.000    776.946     14.054    584.578    743.359    618.218    584.578    584.578
124.470    808.356    775.893     32.463    585.665    742.516    619.097    585.665    585.665
124.570    791.000    773.913     17.087    586.764    740.978    619.754    586.764    586.764
124.670    841.000    771.016     69.984    587.874    738.746    620.200    587.874    587.874
124.770    835.000    767.269     67.731    588.996    735.869    620.452    588.996    588.996
124.870    782.336    762.762     19.574    590.129    732.417    620.531    590.129    590.129
124.970    804.000    757.605     46.395    591.275    728.474    620.461    591.275    591.275
