neutron_powder_diffraction_0164
R_wp: 4.017
Temperature (K): 1074.000
Counts: 83504.00
Wavelength (Ã…): 2.52098
COMMENTS
Test file for demonstrating the .xyy file format in Reel1.0
END OF HEADER
   tth       Y_obs     Y_calc      Y_res    Background    Phase_1_Nuc    Phase_1_Mag    Phase_2_Nuc    Phase_2_Mag
  9.970    593.000    573.669     19.331    572.910    573.624    572.910    572.954    572.910
 10.070    598.000    573.741     24.259    572.921    573.696    572.921    572.965    572.921
 10.170    532.490    573.817    -41.327    572.926    573.772    572.926    572.971    572.926
 10.270    653.000    573.899     79.101    572.926    573.854    572.926    572.971    572.926
 10.370    650.000    573.990     76.010    572.922    573.944    572.922    572.967    572.922
 10.470    641.000    574.091     66.909    572.912    574.045    572.912    572.958    572.912
 10.570    529.794    574.208    -44.414    572.898    574.162    572.898    572.943    572.898
 10.670    602.000    574.346     27.654    572.879    574.299    572.879    572.925    572.879
 10.770    571.000    574.511     -3.511    572.855    574.464    572.855    572.901    572.855
 10.870    566.000    574.714     -8.714    572.826    574.667    572.826    572.873    572.826
 10.970    562.000    574.970    -12.970    572.793    574.920    572.793    572.842    572.793
 11.070    580.019    575.295      4.725    572.755    575.243    572.755    572.806    572.755
 11.170    605.000    575.715     29.285    572.713    575.663    572.713    572.764    572.713
 11.270    568.000    576.276     -8.276    572.666    576.223    572.666    572.717    572.666
 11.370    581.000    577.053      3.947    572.615    576.999    572.615    572.666    572.615
 11.470    602.000    578.211     23.789    572.559    578.156    572.559    572.610    572.559
 11.570    529.936    580.205    -50.270    572.498    580.149    572.498    572.550    572.498
 11.670    603.000    584.266     18.734    572.434    584.207    572.434    572.486    572.434
 11.770    626.057    593.104     32.953    572.365    593.040    572.365    572.417    572.365
 11.870    642.943    610.865     32.078    572.292    610.791    572.292    572.345    572.292
 11.970    656.000    640.512     15.488    572.215    640.421    572.215    572.268    572.215
 12.070    645.000    678.039    -33.039    572.133    677.927    572.133    572.186    572.133
 12.170    729.825    707.279     22.546    572.047    707.151    572.047    572.101    572.047
 12.270    684.000    708.143    -24.143    571.958    708.013    571.958    572.012    571.958
 12.370    668.000    679.783    -11.783    571.864    679.669    571.864    571.918    571.864
 12.470    635.000    641.935     -6.935    571.766    641.842    571.766    571.821    571.766
 12.570    613.000    611.471      1.529    571.665    611.395    571.665    571.719    571.665
 12.670    560.000    592.949    -32.949    571.559    592.883    571.559    571.614    571.559
 12.770    594.305    583.590     10.714    571.450    583.528    571.450    571.505    571.450
 12.870    558.000    579.199    -21.199    571.337    579.139    571.337    571.392    571.337
 12.970    603.611    576.968     26.643    571.220    576.909    571.220    571.275    571.220
 13.070    585.000    575.609      9.391    571.099    575.551    571.099    571.155    571.099
 13.170    533.000    574.646    -41.646    570.975    574.588    570.975    571.031    570.975
 13.270    535.582    573.904    -38.322    570.847    573.846    570.847    570.903    570.847
 13.370    549.832    573.307    -23.474    570.715    573.249    570.715    570.772    570.715
 13.470    537.000    572.809    -35.809    570.580    572.751    570.580    570.637    570.580
 13.570    610.076    572.384     37.692    570.442    572.326    570.442    570.499    570.442
 13.670    532.022    572.012    -39.990    570.300    571.953    570.300    570.358    570.300
 13.770    561.000    571.679    -10.679    570.154    571.619    570.154    570.213    570.154
 13.870    560.980    571.374    -10.395    570.005    571.314    570.005    570.065    570.005
 13.970    558.000    571.096    -13.096    569.853    571.035    569.853    569.913    569.853
 14.070    544.000    570.832    -26.832    569.697    570.772    569.697    569.758    569.697
 14.170    544.954    570.581    -25.627    569.539    570.520    569.539    569.599    569.539
 14.270    562.000    570.339     -8.339    569.376    570.278    569.376    569.437    569.376
 14.370    577.026    570.107      6.919    569.211    570.045    569.211    569.272    569.211
 14.470    614.696    569.881     44.815    569.043    569.819    569.043    569.104    569.043
 14.570    555.000    569.658    -14.658    568.871    569.596    568.871    568.933    568.871
 14.670    543.000    569.438    -26.438    568.697    569.376    568.697    568.759    568.697
 14.770    524.609    569.221    -44.612    568.519    569.158    568.519    568.582    568.519
 14.870    550.997    569.005    -18.008    568.339    568.942    568.339    568.402    568.339
 14.970    616.000    568.790     47.210    568.155    568.727    568.155    568.218    568.155
 15.070    542.000    568.576    -26.576    567.969    568.512    567.969    568.032    567.969
 15.170    552.241    568.362    -16.121    567.780    568.298    567.780    567.844    567.780
 15.270    578.022    568.148      9.874    567.588    568.084    567.588    567.652    567.588
 15.370    529.000    567.933    -38.933    567.393    567.869    567.393    567.457    567.393
 15.470    523.000    567.718    -44.718    567.195    567.653    567.195    567.260    567.195
 15.570    579.000    567.502     11.498    566.995    567.436    566.995    567.060    566.995
 15.670    559.000    567.284     -8.284    566.792    567.219    566.792    566.857    566.792
 15.770    555.261    567.066    -11.805    566.586    567.000    566.586    566.652    566.586
 15.870    554.000    566.846    -12.846    566.378    566.780    566.378    566.444    566.378
 15.970    566.000    566.625     -0.625    566.167    566.558    566.167    566.234    566.167
 16.070    604.292    566.403     37.889    565.953    566.335    565.953    566.021    565.953
 16.170    521.588    566.179    -44.590    565.737    566.111    565.737    565.805    565.737
 16.270    520.895    565.953    -45.057    565.519    565.885    565.519    565.587    565.519
 16.370    569.000    565.726      3.274    565.298    565.657    565.298    565.367    565.298
 16.470    577.000    565.501     11.499    565.075    565.427    565.075    565.148    565.075
 16.570    563.315    565.274     -1.959    564.850    565.199    564.850    564.925    564.850
 16.670    604.000    565.042     38.958    564.622    564.966    564.622    564.697    564.622
 16.770    545.714    564.808    -19.094    564.392    564.732    564.392    564.468    564.392
 16.870    574.468    564.572      9.896    564.159    564.496    564.159    564.236    564.159
 16.970    588.000    564.335     23.665    563.925    564.258    563.925    564.002    563.925
 17.070    505.000    564.096    -59.096    563.688    564.018    563.688    563.765    563.688
 17.170    607.000    563.855     43.145    563.449    563.777    563.449    563.527    563.449
 17.270    570.529    563.612      6.916    563.208    563.534    563.208    563.287    563.208
 17.370    544.219    563.368    -19.150    562.965    563.289    562.965    563.044    562.965
 17.470    522.823    563.122    -40.299    562.720    563.043    562.720    562.799    562.720
 17.570    560.000    562.875     -2.875    562.473    562.795    562.473    562.553    562.473
 17.670    550.125    562.626    -12.501    562.224    562.545    562.224    562.304    562.224
 17.770    557.000    562.375     -5.375    561.973    562.294    561.973    562.054    561.973
 17.870    538.384    562.123    -23.739    561.720    562.041    561.720    561.802    561.720
 17.970    546.307    561.869    -15.563    561.465    561.787    561.465    561.547    561.465
 18.070    515.270    561.615    -46.345    561.208    561.532    561.208    561.291    561.208
 18.170    567.000    561.358      5.642    560.950    561.275    560.950    561.033    560.950
 18.270    587.363    561.101     26.262    560.690    561.017    560.690    560.774    560.690
 18.370    586.276    560.842     25.434    560.428    560.758    560.428    560.512    560.428
 18.470    521.000    560.581    -39.581    560.164    560.496    560.164    560.249    560.164
 18.570    570.000    560.319      9.681    559.899    560.233    559.899    559.985    559.899
 18.670    537.000    560.055    -23.055    559.632    559.968    559.632    559.718    559.632
 18.770    611.000    559.790     51.210    559.363    559.703    559.363    559.450    559.363
 18.870    584.000    559.524     24.476    559.093    559.436    559.093    559.181    559.093
 18.970    512.000    559.256    -47.256    558.821    559.167    558.821    558.910    558.821
 19.070    531.000    558.988    -27.988    558.548    558.899    558.548    558.637    558.548
 19.170    564.835    558.733      6.102    558.273    558.643    558.273    558.363    558.273
 19.270    554.000    558.472     -4.472    557.997    558.381    557.997    558.088    557.997
 19.370    546.000    558.201    -12.201    557.720    558.110    557.720    557.811    557.720
 19.470    576.000    557.928     18.072    557.441    557.836    557.441    557.533    557.441
 19.570    571.000    557.654     13.346    557.160    557.561    557.160    557.253    557.160
 19.670    590.000    557.379     32.621    556.878    557.285    556.878    556.972    556.878
 19.770    516.090    557.103    -41.013    556.595    557.009    556.595    556.690    556.595
 19.870    545.000    556.826    -11.826    556.311    556.731    556.311    556.407    556.311
 19.970    523.810    556.549    -32.739    556.026    556.453    556.026    556.122    556.026
 20.070    550.000    556.271     -6.271    555.739    556.174    555.739    555.836    555.739
 20.170    607.140    555.992     51.149    555.451    555.894    555.451    555.549    555.451
 20.270    591.000    555.712     35.288    555.162    555.613    555.162    555.261    555.162
 20.370    514.000    555.432    -41.432    554.872    555.332    554.872    554.971    554.872
 20.470    557.000    555.151      1.849    554.580    555.051    554.580    554.681    554.580
 20.570    581.441    554.870     26.571    554.288    554.768    554.288    554.389    554.288
 20.670    597.957    554.589     43.368    553.994    554.486    553.994    554.097    553.994
 20.770    535.000    554.307    -19.307    553.700    554.203    553.700    553.803    553.700
 20.870    592.000    554.025     37.975    553.404    553.920    553.404    553.509    553.404
 20.970    575.000    553.745     21.255    553.108    553.637    553.108    553.216    553.108
 21.070    549.000    553.472     -4.472    552.810    553.362    552.810    552.920    552.810
 21.170    533.000    553.275    -20.275    552.512    553.164    552.512    552.623    552.512
 21.270    513.358    553.016    -39.658    552.213    552.904    552.213    552.325    552.213
 21.370    540.000    552.736    -12.736    551.913    552.623    551.913    552.026    551.913
 21.470    557.827    552.456      5.372    551.612    552.341    551.612    551.727    551.612
 21.570    517.498    552.178    -34.680    551.310    552.062    551.310    551.426    551.310
 21.670    554.000    551.903      2.097    551.008    551.786    551.008    551.125    551.008
 21.770    508.477    551.627    -43.150    550.705    551.509    550.705    550.823    550.705
 21.870    558.000    551.376      6.624    550.401    551.257    550.401    550.521    550.401
 21.970    587.433    551.176     36.257    550.096    551.055    550.096    550.218    550.096
 22.070    531.000    550.926    -19.926    549.791    550.803    549.791    549.914    549.791
 22.170    519.000    550.660    -31.660    549.485    550.536    549.485    549.609    549.485
 22.270    619.000    550.393     68.607    549.179    550.267    549.179    549.304    549.179
 22.370    537.000    550.129    -13.129    548.871    550.002    548.871    548.999    548.871
 22.470    557.000    549.869      7.131    548.564    549.740    548.564    548.693    548.564
 22.570    517.530    549.613    -32.083    548.256    549.483    548.256    548.387    548.256
 22.670    520.000    549.364    -29.364    547.947    549.231    547.947    548.080    547.947
 22.770    550.000    549.120      0.880    547.638    548.986    547.638    547.772    547.638
 22.870    563.000    548.886     14.114    547.328    548.749    547.328    547.464    547.328
 22.970    581.000    548.661     32.339    547.018    548.522    547.018    547.156    547.018
 23.070    522.953    548.448    -25.495    546.707    548.308    546.707    546.848    546.707
 23.170    520.681    548.251    -27.570    546.396    548.108    546.396    546.539    546.396
 23.270    551.961    548.073      3.888    546.085    547.928    546.085    546.230    546.085
 23.370    626.000    547.919     78.081    545.773    547.772    545.773    545.921    545.773
 23.470    572.678    547.798     24.880    545.461    547.648    545.461    545.611    545.461
 23.570    549.287    547.718      1.569    545.148    547.566    545.148    545.301    545.148
 23.670    538.000    547.694     -9.694    544.836    547.539    544.836    544.991    544.836
 23.770    568.000    547.747     20.253    544.523    547.590    544.523    544.681    544.523
 23.870    546.839    547.911     -1.073    544.210    547.752    544.210    544.371    544.210
 23.970    604.000    548.250     55.750    543.896    548.088    543.896    544.061    543.896
 24.070    578.389    548.909     29.480    543.583    548.744    543.583    543.750    543.583
 24.170    549.723    550.297     -0.574    543.269    550.130    543.269    543.440    543.269
 24.270    561.000    553.443      7.557    542.955    553.275    542.955    543.130    542.955
 24.370    584.607    560.342     24.265    542.641    560.176    542.641    542.819    542.641
 24.470    580.665    573.594      7.070    542.327    573.434    542.327    542.509    542.327
 24.570    614.000    594.285     19.715    542.013    594.135    542.013    542.199    542.013
 24.670    624.525    618.332      6.193    541.699    618.195    541.699    541.889    541.699
 24.770    617.000    634.116    -17.116    541.384    633.987    541.384    541.580    541.384
 24.870    601.000    630.256    -29.256    541.070    630.119    541.070    541.270    541.070
 24.970    622.000    609.835     12.165    540.756    609.679    540.756    540.961    540.756
 25.070    553.000    585.646    -32.646    540.442    585.467    540.442    540.652    540.442
 25.170    591.000    566.792     24.208    540.127    566.593    540.127    540.344    540.127
 25.270    569.000    555.304     13.696    539.813    555.091    539.813    540.036    539.813
 25.370    560.000    549.326     10.674    539.499    549.102    539.499    539.729    539.499
 25.470    532.000    546.362    -14.362    539.185    546.129    539.185    539.422    539.185
 25.570    579.000    544.753     34.247    538.871    544.511    538.871    539.115    538.871
 25.670    496.542    543.720    -47.178    538.558    543.470    538.558    538.810    538.558
 25.770    511.681    542.986    -31.305    538.244    542.727    538.244    538.505    538.244
 25.870    542.000    542.417     -0.417    537.931    542.148    537.931    538.201    537.931
 25.970    604.000    541.938     62.062    537.618    541.659    537.618    537.898    537.618
 26.070    533.000    541.528     -8.528    537.305    541.237    537.305    537.596    537.305
 26.170    555.000    541.184     13.816    536.992    540.882    536.992    537.295    536.992
 26.270    579.000    540.899     38.101    536.680    540.584    536.680    536.995    536.680
 26.370    540.982    540.670      0.312    536.367    540.341    536.367    536.697    536.367
 26.470    584.804    540.505     44.300    536.056    540.161    536.056    536.400    536.056
 26.570    575.000    540.407     34.593    535.744    540.046    535.744    536.105    535.744
 26.670    518.000    540.346    -22.346    535.433    539.968    535.433    535.812    535.433
 26.770    548.000    540.351      7.649    535.122    539.952    535.122    535.521    535.122
 26.870    565.000    540.436     24.564    534.811    540.015    534.811    535.232    534.811
 26.970    571.226    540.620     30.606    534.501    540.175    534.501    534.946    534.501
 27.070    530.000    540.929    -10.929    534.192    540.457    534.192    534.664    534.192
 27.170    495.000    541.402    -46.402    533.882    540.899    533.882    534.385    533.882
 27.270    547.000    542.096      4.904    533.574    541.559    533.574    534.110    533.574
 27.370    567.000    543.104     23.896    533.265    542.528    533.265    533.839    533.265
 27.470    517.664    544.580    -26.916    532.957    543.961    532.957    533.575    532.957
 27.570    558.223    546.960     11.263    532.650    546.291    532.650    533.316    532.650
 27.670    529.000    551.695    -22.695    532.343    550.969    532.343    533.066    532.343
 27.770    538.000    563.583    -25.583    532.037    562.787    532.037    532.824    532.037
 27.870    578.000    594.404    -16.404    531.731    593.523    531.731    532.594    531.731
 27.970    704.000    661.855     42.145    531.426    660.864    531.426    532.376    531.426
 28.070    785.000    773.045     11.955    531.121    771.918    531.121    532.175    531.121
 28.170    864.871    896.479    -31.608    530.817    895.200    530.817    531.995    530.817
 28.270   1015.821    957.343     58.479    530.514    955.918    530.514    531.840    530.514
 28.370    935.439    906.360     29.079    530.211    904.790    530.211    531.718    530.211
 28.470    782.495    796.226    -13.731    529.908    794.468    529.908    531.640    529.908
 28.570    718.693    710.787      7.907    529.607    708.756    529.607    531.625    529.607
 28.670    697.000    693.228      3.772    529.306    690.818    529.306    531.701    529.306
 28.770    708.000    738.673    -30.673    529.006    735.738    529.006    531.921    529.006
 28.870    789.000    807.142    -18.142    528.706    803.465    528.706    532.369    528.706
 28.970    893.136    839.340     53.796    528.408    834.570    528.408    533.178    528.408
 29.070    725.000    800.194    -75.194    528.109    793.793    528.109    534.521    528.109
 29.170    716.223    720.096     -3.873    527.812    711.325    527.812    536.595    527.812
 29.270    617.000    646.078    -29.078    527.516    634.049    527.516    539.552    527.516
 29.370    602.000    599.605      2.395    527.220    583.441    527.220    543.386    527.220
 29.470    599.000    578.371     20.629    526.925    557.581    526.925    547.714    526.925
 29.570    569.000    571.027     -2.027    526.631    546.178    526.631    551.478    526.631
 29.670    571.000    567.777      3.223    526.337    541.072    526.337    553.040    526.337
 29.770    612.000    563.699     48.301    526.045    538.332    526.045    551.410    526.045
 29.870    579.000    558.147     20.853    525.753    536.559    525.753    547.339    525.753
 29.970    587.000    552.305     34.695    525.462    535.318    525.462    542.446    525.462
 30.070    597.000    547.204     49.796    525.172    534.469    525.172    537.905    525.172
 30.170    572.485    543.307     29.178    524.883    533.986    524.883    534.202    524.883
 30.270    542.000    540.790      1.210    524.595    533.989    524.595    531.394    524.595
 30.370    520.000    539.980    -19.980    524.307    534.936    524.307    529.347    524.307
 30.470    567.000    541.857     25.143    524.021    538.001    524.021    527.871    524.021
 30.570    508.000    548.355    -40.355    523.736    545.295    523.736    526.783    523.736
 30.670    572.000    561.556     10.444    523.451    559.039    523.451    525.944    523.451
 30.770    556.000    581.172    -25.172    523.168    579.039    523.168    525.263    523.168
 30.870    632.138    601.389     30.750    522.885    599.541    522.885    524.681    522.885
 30.970    666.000    610.584     55.416    522.603    608.965    522.603    524.167    522.603
 31.070    577.587    601.077    -23.490    522.323    599.655    522.323    523.699    522.323
 31.170    592.000    579.989     12.011    522.043    578.735    522.043    523.267    522.043
 31.270    538.000    558.939    -20.939    521.765    557.825    521.765    522.863    521.765
 31.370    562.000    543.982     18.018    521.487    542.981    521.487    522.479    521.487
 31.470    569.000    535.517     33.483    521.211    534.610    521.211    522.114    521.211
 31.570    548.000    531.373     16.627    520.935    530.543    520.935    521.762    520.935
 31.670    553.312    529.392     23.920    520.661    528.628    520.661    521.423    520.661
 31.770    544.621    528.325     16.296    520.388    527.618    520.388    521.093    520.388
 31.870    538.965    527.648     11.317    520.115    526.989    520.115    520.772    520.115
 31.970    543.000    527.179     15.821    519.844    526.564    519.844    520.458    519.844
 32.070    547.000    526.858     20.142    519.574    526.280    519.574    520.151    519.574
 32.170    556.704    526.659     30.046    519.305    526.114    519.305    519.849    519.305
 32.270    536.000    526.574      9.426    519.038    526.059    519.038    519.552    519.038
 32.370    504.000    526.606    -22.606    518.771    526.117    518.771    519.259    518.771
 32.470    554.000    526.761     27.239    518.506    526.296    518.506    518.970    518.506
 32.570    533.000    527.059      5.941    518.241    526.615    518.241    518.685    518.241
 32.670    484.391    527.527    -43.136    517.978    527.101    517.978    518.403    517.978
 32.770    534.000    528.205      5.795    517.716    527.796    517.716    518.124    517.716
 32.870    565.000    529.153     35.847    517.455    528.759    517.455    517.848    517.455
 32.970    539.267    530.459      8.809    517.196    530.078    517.196    517.575    517.196
 33.070    582.000    532.259     49.741    516.938    531.891    516.938    517.304    516.938
 33.170    523.111    534.808    -11.697    516.680    534.450    516.680    517.036    516.680
 33.270    576.000    538.688     37.312    516.424    538.340    516.424    516.770    516.424
 33.370    560.551    545.463     15.088    516.170    545.124    516.170    516.505    516.170
 33.470    582.177    559.112     23.064    515.916    558.779    515.916    516.243    515.916
 33.570    621.000    587.963     33.037    515.664    587.633    515.664    515.983    515.664
 33.670    630.000    644.731    -14.731    515.413    644.397    515.413    515.725    515.413
 33.770    742.000    740.403      1.597    515.164    740.061    515.164    515.469    515.164
 33.870    896.000    870.550     25.450    514.915    870.198    514.915    515.215    514.915
 33.970   1049.000   1000.095     48.905    514.668    999.738    514.668    514.962    514.668
 34.070   1128.000   1063.349     64.651    514.422   1063.006    514.422    514.711    514.422
 34.170    983.791   1015.844    -32.054    514.178   1015.532    514.178    514.462    514.178
 34.270    904.000    892.413     11.587    513.935    892.129    513.935    514.215    513.935
 34.370    788.000    759.117     28.883    513.693    758.848    513.693    513.969    513.693
 34.470    670.000    656.482     13.518    513.452    656.217    513.452    513.725    513.452
 34.570    615.000    593.176     21.824    513.213    592.912    513.213    513.483    513.213
 34.670    559.937    559.865      0.072    512.975    559.601    512.975    513.242    512.975
 34.770    548.000    543.654      4.346    512.739    543.391    512.739    513.003    512.739
 34.870    519.000    535.444    -16.444    512.504    535.183    512.504    512.765    512.504
 34.970    546.104    530.636     15.468    512.270    530.376    512.270    512.529    512.270
 35.070    539.362    527.352     12.010    512.037    527.094    512.037    512.295    512.037
 35.170    568.816    524.886     43.930    511.806    524.630    511.806    512.062    511.806
 35.270    551.000    522.944     28.056    511.577    522.690    511.577    511.831    511.577
 35.370    532.000    521.370     10.630    511.349    521.118    511.349    511.601    511.349
 35.470    529.000    520.069      8.931    511.122    519.818    511.122    511.373    511.122
 35.570    502.000    518.974    -16.974    510.896    518.724    510.896    511.146    510.896
 35.670    474.046    518.038    -43.992    510.672    517.789    510.672    510.921    510.672
 35.770    506.000    517.227    -11.227    510.450    516.979    510.450    510.698    510.450
 35.870    491.000    516.517    -25.517    510.228    516.269    510.228    510.476    510.228
 35.970    500.000    515.888    -15.888    510.009    515.640    510.009    510.256    510.009
 36.070    535.000    515.326     19.674    509.790    515.080    509.790    510.037    509.790
 36.170    540.102    514.822     25.280    509.573    514.576    509.573    509.820    509.573
 36.270    501.891    514.368    -12.477    509.358    514.121    509.358    509.604    509.358
 36.370    495.000    513.957    -18.957    509.144    513.711    509.144    509.390    509.144
 36.470    544.842    513.588     31.254    508.931    513.341    508.931    509.178    508.931
 36.570    511.417    513.257     -1.841    508.720    513.011    508.720    508.967    508.720
 36.670    516.000    512.968      3.032    508.511    512.721    508.511    508.757    508.511
 36.770    475.000    512.726    -37.726    508.302    512.479    508.302    508.549    508.302
 36.870    493.000    512.553    -19.553    508.096    512.306    508.096    508.343    508.096
 36.970    528.000    512.505     15.495    507.890    512.257    507.890    508.138    507.890
 37.070    489.924    512.709    -22.785    507.687    512.461    507.687    507.935    507.687
 37.170    495.000    513.399    -18.399    507.485    513.150    507.485    507.734    507.485
 37.270    534.000    514.891     19.109    507.284    514.642    507.284    507.534    507.284
 37.370    521.000    517.434      3.566    507.085    517.185    507.085    507.335    507.085
 37.470    525.000    520.915      4.085    506.887    520.665    506.887    507.139    506.887
 37.570    548.841    524.541     24.300    506.691    524.292    506.691    506.943    506.691
 37.670    514.350    526.811    -12.461    506.496    526.562    506.496    506.750    506.496
 37.770    557.000    526.471     30.529    506.303    526.222    506.303    506.558    506.303
 37.870    523.000    523.836     -0.836    506.111    523.588    506.111    506.367    506.111
 37.970    515.000    520.269     -5.269    505.921    520.021    505.921    506.179    505.921
 38.070    529.339    516.840     12.499    505.732    516.592    505.732    505.991    505.732
 38.170    488.000    513.997    -25.997    505.545    513.746    505.545    505.806    505.545
 38.270    471.396    511.862    -40.466    505.360    511.607    505.360    505.622    505.360
 38.370    514.000    510.378      3.622    505.176    510.119    505.176    505.439    505.176
 38.470    530.000    509.388     20.612    504.993    509.125    504.993    505.259    504.993
 38.570    507.000    508.730     -1.730    504.812    508.464    504.812    505.080    504.812
 38.670    543.000    508.275     34.725    504.633    508.006    504.633    504.902    504.633
 38.770    496.000    507.935    -11.935    504.455    507.664    504.455    504.726    504.455
 38.870    489.000    507.658    -18.658    504.279    507.386    504.279    504.552    504.279
 38.970    518.000    507.417     10.583    504.104    507.142    504.104    504.379    504.104
 39.070    521.000    507.199     13.801    503.931    506.922    503.931    504.208    503.931
 39.170    462.341    506.997    -44.656    503.759    506.717    503.759    504.039    503.759
 39.270    483.000    506.808    -23.808    503.589    506.526    503.589    503.871    503.589
 39.370    532.000    506.631     25.369    503.421    506.347    503.421    503.705    503.421
 39.470    480.000    506.464    -26.464    503.254    506.177    503.254    503.541    503.254
 39.570    551.936    506.306     45.631    503.088    506.016    503.088    503.378    503.088
 39.670    496.877    506.156     -9.279    502.925    505.864    502.925    503.217    502.925
 39.770    515.000    506.016      8.984    502.762    505.721    502.762    503.057    502.762
 39.870    521.000    505.883     15.117    502.602    505.585    502.602    502.900    502.602
 39.970    495.000    505.759    -10.759    502.443    505.458    502.443    502.744    502.443
 40.070    458.934    505.644    -46.710    502.285    505.340    502.285    502.589    502.285
 40.170    463.000    505.537    -42.537    502.129    505.230    502.129    502.436    502.129
 40.270    476.000    505.441    -29.441    501.975    505.131    501.975    502.285    501.975
 40.370    481.000    505.355    -24.355    501.822    505.041    501.822    502.136    501.822
 40.470    460.000    505.281    -45.281    501.671    504.964    501.671    501.988    501.671
 40.570    503.000    505.220     -2.220    501.522    504.899    501.522    501.842    501.522
 40.670    495.572    505.173     -9.602    501.374    504.849    501.374    501.698    501.374
 40.770    472.000    505.144    -33.144    501.227    504.816    501.227    501.556    501.227
 40.870    487.000    505.136    -18.136    501.082    504.804    501.082    501.415    501.082
 40.970    504.000    505.151     -1.151    500.939    504.815    500.939    501.276    500.939
 41.070    517.000    505.195     11.805    500.797    504.855    500.797    501.138    500.797
 41.170    495.000    505.275    -10.275    500.657    504.930    500.657    501.003    500.657
 41.270    468.941    505.398    -36.457    500.519    505.050    500.519    500.869    500.519
 41.370    551.338    505.579     45.759    500.382    505.225    500.382    500.737    500.382
 41.470    449.000    505.832    -56.832    500.247    505.474    500.247    500.606    500.247
 41.570    468.650    506.186    -37.536    500.113    505.823    500.113    500.477    500.113
 41.670    552.572    506.691     45.882    499.981    506.323    499.981    500.350    499.981
 41.770    542.299    507.456     34.842    499.851    507.084    499.851    500.225    499.851
 41.870    494.000    508.743    -14.743    499.722    508.366    499.722    500.102    499.722
 41.970    510.000    511.134     -1.134    499.594    510.752    499.594    499.980    499.594
 42.070    504.980    515.748    -10.768    499.469    515.362    499.469    499.860    499.469
 42.170    497.003    524.312    -27.309    499.344    523.924    499.344    499.742    499.344
 42.270    500.000    538.729    -38.729    499.222    538.341    499.222    499.626    499.222
 42.370    563.495    559.895      3.600    499.101    559.511    499.101    499.512    499.101
 42.470    576.000    585.997     -9.997    498.982    585.620    498.982    499.399    498.982
 42.570    645.000    611.023     33.977    498.864    610.653    498.864    499.289    498.864
 42.670    638.000    625.287     12.713    498.748    624.920    498.748    499.180    498.748
 42.770    591.000    621.415    -30.415    498.633    621.041    498.633    499.073    498.633
 42.870    570.000    601.649    -31.649    498.520    601.259    498.520    498.968    498.520
 42.970    579.090    575.196      3.894    498.409    574.784    498.409    498.864    498.409
 43.070    547.000    550.503     -3.503    498.299    550.069    498.299    498.763    498.299
 43.170    571.000    531.823     39.177    498.190    531.369    498.190    498.664    498.190
 43.270    511.000    519.723     -8.723    498.084    519.252    498.084    498.566    498.084
 43.370    486.000    512.753    -26.753    497.979    512.268    497.979    498.471    497.979
 43.470    484.000    509.005    -25.005    497.875    508.508    497.875    498.377    497.875
 43.570    557.000    506.983     50.017    497.773    506.474    497.773    498.286    497.773
 43.670    547.242    505.800     41.442    497.673    505.278    497.673    498.196    497.673
 43.770    513.000    505.018      7.982    497.574    504.485    497.574    498.109    497.574
 43.870    498.000    504.448     -6.448    497.477    503.903    497.477    498.024    497.477
 43.970    528.000    504.008     23.992    497.381    503.450    497.381    497.940    497.381
 44.070    492.000    503.660    -11.660    497.287    503.088    497.287    497.859    497.287
 44.170    525.143    503.380     21.763    497.194    502.794    497.194    497.781    497.194
 44.270    481.000    503.154    -22.154    497.103    502.554    497.103    497.704    497.103
 44.370    527.371    502.972     24.399    497.014    502.357    497.014    497.630    497.014
 44.470    523.000    502.826     20.174    496.926    502.195    496.926    497.558    496.926
 44.570    519.000    502.711     16.289    496.840    502.063    496.840    497.489    496.840
 44.670    492.328    502.622    -10.294    496.755    501.956    496.755    497.421    496.755
 44.770    468.000    502.557    -34.557    496.672    501.872    496.672    497.357    496.672
 44.870    549.000    502.513     46.487    496.590    501.808    496.590    497.295    496.590
 44.970    511.000    502.489      8.511    496.510    501.763    496.510    497.236    496.510
 45.070    496.000    502.483     -6.483    496.431    501.735    496.431    497.180    496.431
 45.170    481.000    502.495    -21.495    496.354    501.724    496.354    497.126    496.354
 45.270    503.000    502.526      0.474    496.279    501.729    496.279    497.076    496.279
 45.370    507.000    502.573      4.427    496.205    501.750    496.205    497.028    496.205
 45.470    485.000    502.639    -17.639    496.133    501.788    496.133    496.984    496.133
 45.570    481.000    502.724    -21.724    496.062    501.842    496.062    496.943    496.062
 45.670    524.000    502.829     21.171    495.992    501.915    495.992    496.906    495.992
 45.770    549.351    502.956     46.396    495.924    502.006    495.924    496.873    495.924
 45.870    522.854    503.105     19.749    495.858    502.118    495.858    496.844    495.858
 45.970    482.516    503.280    -20.764    495.793    502.253    495.793    496.820    495.793
 46.070    539.930    503.484     36.446    495.730    502.414    495.730    496.800    495.730
 46.170    522.000    503.720     18.280    495.668    502.603    495.668    496.785    495.668
 46.270    542.000    503.993     38.007    495.608    502.825    495.608    496.775    495.608
 46.370    503.000    504.309     -1.309    495.549    503.086    495.549    496.771    495.549
 46.470    523.153    504.678     18.475    495.492    503.395    495.492    496.774    495.492
 46.570    526.000    505.109     20.891    495.436    503.760    495.436    496.784    495.436
 46.670    499.000    505.619     -6.619    495.382    504.199    495.382    496.801    495.382
 46.770    493.000    506.240    -13.240    495.329    504.740    495.329    496.827    495.329
 46.870    515.000    507.031      7.969    495.278    505.443    495.278    496.863    495.278
 46.970    487.000    508.126    -21.126    495.228    506.442    495.228    496.910    495.228
 47.070    516.000    509.807      6.193    495.179    508.014    495.179    496.969    495.179
 47.170    549.822    512.598     37.223    495.132    510.684    495.132    497.042    495.132
 47.270    558.000    517.322     40.678    495.087    515.270    495.087    497.130    495.087
 47.370    514.670    524.978    -10.307    495.043    522.768    495.043    497.238    495.043
 47.470    502.000    536.329    -34.329    495.000    533.940    495.000    497.367    495.000
 47.570    539.000    551.223    -12.223    494.959    548.628    494.959    497.521    494.959
 47.670    549.000    567.868    -18.868    494.920    565.038    494.920    497.705    494.920
 47.770    543.000    582.413    -39.413    494.882    579.316    494.882    497.925    494.882
 47.870    634.274    589.736     44.538    494.845    586.335    494.845    498.188    494.845
 47.970    578.000    586.809     -8.809    494.809    583.061    494.809    498.505    494.809
 48.070    614.000    575.687     38.313    494.776    571.529    494.776    498.891    494.776
 48.170    524.959    561.392    -36.434    494.743    556.738    494.743    499.366    494.743
 48.270    526.000    548.254    -22.254    494.712    542.978    494.712    499.967    494.712
 48.370    516.000    538.645    -22.645    494.682    532.565    494.682    500.749    494.682
 48.470    546.000    533.207     12.793    494.654    526.044    494.654    501.807    494.654
 48.570    515.472    531.548    -16.076    494.627    522.875    494.627    503.294    494.627
 48.670    525.000    532.984     -7.984    494.602    522.145    494.602    505.436    494.602
 48.770    493.000    537.036    -44.036    494.578    523.062    494.578    508.547    494.578
 48.870    524.492    543.610    -19.119    494.555    525.152    494.555    513.009    494.555
 48.970    568.000    552.947     15.053    494.534    528.266    494.534    519.210    494.534
 49.070    570.000    565.501      4.499    494.514    532.569    494.514    527.440    494.514
 49.170    566.504    581.956    -15.451    494.495    538.726    494.495    537.718    494.495
 49.270    558.000    603.658    -45.658    494.478    548.555    494.478    549.571    494.478
 49.370    588.467    633.870    -45.403    494.462    566.579    494.462    561.738    494.462
 49.470    712.000    680.247     31.753    494.448    602.726    494.448    571.942    494.448
 49.570    799.339    758.266     41.072    494.435    675.341    494.435    577.312    494.435
 49.670    861.841    893.025    -31.184    494.423    811.424    494.423    575.942    494.423
 49.770   1137.000   1113.257     23.743    494.413   1039.173    494.413    568.373    494.413
 49.870   1477.000   1432.943     44.057    494.404   1370.072    494.404    557.109    494.404
 49.970   1918.000   1826.370     91.630    494.396   1775.707    494.396    544.877    494.396
 50.070   2195.000   2212.434    -17.434    494.389   2173.130    494.389    533.544    494.389
 50.170   2474.000   2467.271      6.729    494.384   2437.563    494.384    524.034    494.384
 50.270   2426.647   2483.483    -56.836    494.380   2461.323    494.380    516.603    494.380
 50.370   2200.000   2250.466    -50.466    494.378   2233.890    494.378    511.107    494.378
 50.470   1783.000   1864.984    -81.984    494.377   1852.344    494.377    507.204    494.377
 50.570   1408.465   1455.550    -47.085    494.377   1445.600    494.377    504.499    494.377
 50.670   1085.000   1114.398    -29.398    494.378   1106.276    494.378    502.634    494.378
 50.770    834.000    878.174    -44.174    494.380    871.320    494.380    501.328    494.380
 50.870    736.000    739.196     -3.196    494.384    733.260    494.384    500.384    494.384
 50.970    720.524    668.176     52.348    494.389    662.937    494.389    499.677    494.389
 51.070    660.418    633.994     26.424    494.396    629.303    494.396    499.127    494.396
 51.170    638.686    614.250     24.436    494.403    610.002    494.403    498.686    494.403
 51.270    641.940    597.760     44.180    494.412    593.875    494.412    498.327    494.412
 51.370    631.000    581.705     49.295    494.422    578.121    494.422    498.031    494.422
 51.470    605.000    566.907     38.093    494.434    563.574    494.434    497.784    494.434
 51.570    598.141    554.631     43.511    494.446    551.512    494.446    497.578    494.446
 51.670    594.000    545.484     48.516    494.460    542.547    494.460    497.406    494.460
 51.770    552.000    539.347     12.653    494.475    536.566    494.475    497.262    494.475
 51.870    552.710    535.667     17.042    494.491    533.020    494.491    497.142    494.491
 51.970    543.738    533.795      9.943    494.508    531.263    494.508    497.044    494.508
 52.070    500.920    533.216    -32.296    494.527    530.782    494.527    496.963    494.527
 52.170    494.195    533.646    -39.451    494.547    531.296    494.547    496.898    494.547
 52.270    569.000    535.042     33.958    494.568    532.764    494.568    496.847    494.568
 52.370    541.250    537.650      3.599    494.590    535.432    494.590    496.809    494.590
 52.470    633.000    542.170     90.830    494.613    540.002    494.613    496.782    494.613
 52.570    547.000    550.106     -3.106    494.637    547.979    494.637    496.765    494.637
 52.670    586.000    564.275     21.725    494.663    562.181    494.663    496.757    494.663
 52.770    570.000    589.239    -19.239    494.689    587.170    494.689    496.757    494.689
 52.870    649.000    631.156     17.844    494.717    629.105    494.717    496.766    494.717
 52.970    739.000    696.407     42.593    494.746    694.368    494.746    496.782    494.746
 53.070    811.000    788.692     22.308    494.776    786.659    494.776    496.805    494.776
 53.170    928.000    905.086     22.914    494.807    903.056    494.807    496.834    494.807
 53.270   1027.000   1032.319     -5.319    494.839   1030.289    494.839    496.870    494.839
 53.370   1213.052   1144.990     68.062    494.872   1142.961    494.872    496.913    494.872
 53.470   1272.875   1210.025     62.850    494.907   1207.994    494.907    496.961    494.907
 53.570   1188.000   1203.193    -15.193    494.942   1201.155    494.942    497.015    494.942
 53.670   1129.000   1127.545      1.455    494.979   1125.490    494.979    497.076    494.979
 53.770    963.000   1010.576    -47.576    495.016   1008.492    495.016    497.142    495.016
 53.870    854.066    884.569    -30.503    495.055    882.445    495.055    497.214    495.055
 53.970    787.000    772.681     14.319    495.095    770.511    495.095    497.293    495.095
 54.070    725.548    686.063     39.485    495.135    683.840    495.135    497.377    495.135
 54.170    613.000    626.126    -13.126    495.177    623.848    495.177    497.468    495.177
 54.270    544.693    588.431    -43.738    495.220    586.093    495.220    497.566    495.220
 54.370    606.781    566.489     40.292    495.263    564.087    495.263    497.670    495.263
 54.470    506.985    554.394    -47.408    495.308    551.924    495.308    497.782    495.308
 54.570    594.228    547.924     46.304    495.354    545.379    495.354    497.901    495.354
 54.670    512.576    544.537    -31.961    495.401    541.912    495.401    498.028    495.401
 54.770    560.000    542.895     17.105    495.448    540.182    495.448    498.163    495.448
 54.870    591.000    542.363     48.637    495.497    539.553    495.497    498.308    495.497
 54.970    499.397    542.666    -43.269    495.547    539.752    495.547    498.462    495.547
 55.070    572.000    543.703     28.297    495.597    540.675    495.597    498.626    495.597
 55.170    578.000    545.456     32.544    495.649    542.304    495.649    498.802    495.649
 55.270    545.640    547.966     -2.327    495.701    544.678    495.701    498.990    495.701
 55.370    578.281    551.328     26.953    495.755    547.892    495.755    499.192    495.755
 55.470    510.950    555.723    -44.773    495.809    552.124    495.809    499.408    495.809
 55.570    587.932    561.495     26.437    495.864    557.719    495.864    499.640    495.864
 55.670    574.000    569.362      4.638    495.920    565.392    495.920    499.891    495.920
 55.770    554.173    580.855    -26.682    495.977    576.671    495.977    500.161    495.977
 55.870    593.726    599.160     -5.434    496.035    594.740    496.035    500.453    496.035
 55.970    632.000    630.392      1.608    496.094    625.711    496.094    500.770    496.094
 56.070    669.000    685.019    -16.019    496.153    680.046    496.153    501.115    496.153
 56.170    786.000    778.464      7.536    496.214    773.165    496.214    501.491    496.214
 56.270    964.305    929.321     34.985    496.275    923.657    496.275    501.904    496.275
 56.370   1217.963   1153.727     64.237    496.337   1147.657    496.337    502.357    496.337
 56.470   1407.000   1456.012    -49.012    496.401   1449.496    496.401    502.858    496.401
 56.570   1780.000   1818.176    -38.176    496.464   1811.173    496.464    503.413    496.464
 56.670   2111.000   2192.237    -81.237    496.529   2184.708    496.529    504.031    496.529
 56.770   2464.184   2500.337    -36.153    496.594   2492.238    496.594    504.722    496.594
 56.870   2644.000   2653.414     -9.414    496.661   2644.683    496.661    505.501    496.661
 56.970   2684.000   2597.985     86.015    496.728   2588.522    496.728    506.383    496.728
 57.070   2412.000   2355.887     56.113    496.796   2345.539    496.796    507.389    496.796
 57.170   2020.381   2005.937     14.444    496.864   1994.507    496.864    508.548    496.864
 57.270   1675.000   1634.424     40.576    496.934   1621.686    496.934    509.899    496.934
 57.370   1329.000   1304.053     24.947    497.004   1289.735    497.004    511.504    497.004
 57.470   1111.639   1046.537     65.102    497.074   1030.287    497.074    513.456    497.074
 57.570    841.067    867.229    -26.162    497.146    848.554    497.146    515.907    497.146
 57.670    768.000    754.919     13.081    497.218    733.089    497.218    519.100    497.218
 57.770    732.000    692.334     39.666    497.291    666.246    497.291    523.407    497.291
 57.870    680.000    663.880     16.120    497.365    631.879    497.365    529.379    497.365
 57.970    681.000    659.352     21.648    497.440    619.030    497.440    537.762    497.440
 58.070    641.209    674.346    -33.137    497.515    622.363    497.515    549.488    497.515
 58.170    729.000    708.786     20.214    497.590    640.774    497.590    565.583    497.590
 58.270    755.000    764.667     -9.667    497.667    675.312    497.667    586.990    497.667
 58.370    896.153    843.644     52.509    497.744    727.035    497.744    614.309    497.744
 58.470    903.719    944.829    -41.110    497.822    795.134    497.822    647.463    497.822
 58.570   1064.000   1063.024      0.976    497.900    875.575    497.900    685.290    497.900
 58.670   1157.000   1187.932    -30.932    497.979    960.801    497.979    725.053    497.979
 58.770   1330.000   1305.370     24.630    498.059   1041.468    498.059    761.914    498.059
 58.870   1435.000   1400.359     34.641    498.139   1109.443    498.139    789.022    498.139
 58.970   1430.000   1459.697    -29.697    498.220   1158.430    498.220    799.473    498.220
 59.070   1478.000   1473.964      4.036    498.302   1182.145    498.302    790.128    498.302
 59.170   1394.666   1441.872    -47.206    498.384   1176.406    498.384    763.872    498.384
 59.270   1369.964   1373.762     -3.798    498.466   1144.741    498.466    727.513    498.466
 59.370   1237.409   1288.487    -51.078    498.549   1099.097    498.549    687.954    498.549
 59.470   1254.000   1205.903     48.097    498.633   1054.392    498.633    650.135    498.633
 59.570   1098.000   1142.873    -44.873    498.718   1024.656    498.718    616.891    498.718
 59.670   1108.834   1113.748     -4.914    498.802   1023.015    498.802    589.449    498.802
 59.770   1199.000   1129.494     69.506    498.888   1060.310    498.888    567.933    498.888
 59.870   1255.000   1193.036     61.964    498.974   1140.045    498.974    551.770    498.974
 59.970   1323.000   1294.697     28.303    499.060   1253.483    499.060    540.027    499.060
 60.070   1396.311   1410.836    -14.526    499.147   1378.018    499.147    531.679    499.147
 60.170   1582.000   1506.453     75.547    499.234   1479.600    499.234    525.788    499.234
 60.270   1547.000   1544.420      2.580    499.322   1521.867    499.322    521.600    499.322
 60.370   1450.927   1503.135    -52.208    499.410   1483.766    499.410    518.556    499.410
 60.470   1431.000   1389.769     41.231    499.499   1372.832    499.499    516.278    499.499
 60.570   1259.000   1233.305     25.695    499.588   1218.272    499.588    514.523    499.588
 60.670   1021.000   1067.038    -46.038    499.678   1053.522    499.678    513.141    499.678
 60.770    877.662    916.822    -39.160    499.768    904.521    499.768    512.044    499.768
 60.870    804.000    797.232      6.768    499.859    785.899    499.859    511.182    499.859
 60.970    696.000    712.443    -16.443    499.950    701.862    499.950    510.525    499.950
 61.070    675.000    659.682     15.318    500.041    649.658    500.041    510.057    500.041
 61.170    602.000    633.570    -31.570    500.133    623.923    500.133    509.766    500.133
 61.270    619.504    629.768    -10.264    500.225    620.330    500.225    509.642    500.225
 61.370    612.000    646.997    -34.997    500.317    637.616    500.317    509.666    500.317
 61.470    673.088    687.205    -14.116    500.410    677.755    500.410    509.809    500.410
 61.570    783.000    754.050     28.950    500.504    744.454    500.504    510.025    500.504
 61.670    853.000    850.090      2.910    500.597    840.340    500.597    510.244    500.597
 61.770    909.000    973.352    -64.352    500.691    963.534    500.691    510.373    500.691
 61.870   1064.000   1114.323    -50.323    500.785   1104.622    500.785    510.322    500.785
 61.970   1174.000   1254.414    -80.414    500.880   1245.071    500.880    510.041    500.880
 62.070   1294.000   1367.069    -73.069    500.975   1358.313    500.975    509.551    500.975
 62.170   1400.638   1424.012    -23.375    501.070   1416.001    501.070    508.924    501.070
 62.270   1409.000   1408.062      0.938    501.165   1400.863    501.165    508.247    501.165
 62.370   1254.000   1323.916    -69.916    501.261   1317.516    501.261    507.589    501.261
 62.470   1212.000   1194.771     17.229    501.357   1189.102    501.357    506.993    501.357
 62.570    984.000   1049.227    -65.227    501.453   1044.190    501.453    506.482    501.453
 62.670    922.000    910.973     11.027    501.549    906.465    501.549    506.064    501.549
 62.770    785.563    794.809     -9.246    501.646    790.733    501.646    505.734    501.646
 62.870    653.918    706.609    -52.691    501.743    702.879    501.743    505.484    501.743
 62.970    593.000    645.364    -52.364    501.840    641.912    501.840    505.299    501.840
 63.070    657.802    606.127     51.675    501.938    602.900    501.938    505.167    501.938
 63.170    584.000    582.794      1.206    502.035    579.753    502.035    505.075    502.035
 63.270    558.000    569.998    -11.998    502.133    567.113    502.133    505.014    502.133
 63.370    572.000    563.972      8.028    502.231    561.221    502.231    504.976    502.231
 63.470    587.000    562.686     24.314    502.329    560.052    502.329    504.955    502.329
 63.570    607.000    565.646     41.354    502.427    563.115    502.427    504.948    502.427
 63.670    574.000    573.624      0.376    502.525    571.184    502.525    504.951    502.525
 63.770    585.000    588.379     -3.379    502.624    586.018    502.624    504.964    502.624
 63.870    621.171    612.280      8.890    502.722    609.988    502.722    504.984    502.722
 63.970    682.000    647.698     34.302    502.821    645.464    502.821    505.010    502.821
 64.070    734.760    696.118     38.642    502.920    693.933    502.920    505.043    502.920
 64.170    716.534    757.084    -40.550    503.019    754.939    503.019    505.081    503.019
 64.270    864.000    827.190     36.810    503.118    825.082    503.118    505.124    503.118
 64.370    970.000    899.423     70.577    503.217    897.349    503.217    505.171    503.217
 64.470    982.000    963.349     18.651    503.316    961.314    503.316    505.222    503.316
 64.570   1044.000   1007.277     36.723    503.415   1005.288    503.415    505.277    503.415
 64.670   1019.023   1022.772     -3.749    503.515   1020.838    503.515    505.336    503.515
 64.770    994.679   1008.376    -13.697    503.614   1006.503    503.614    505.397    503.614
 64.870    973.000    969.227      3.773    503.713    967.417    503.713    505.462    503.713
 64.970    898.000    914.271    -16.271    503.813    912.520    503.813    505.530    503.813
 65.070    877.390    853.313     24.078    503.912    851.615    503.912    505.600    503.912
 65.170    779.000    794.350    -15.350    504.012    792.698    504.012    505.672    504.012
 65.270    736.490    742.045     -5.555    504.111    740.428    504.111    505.747    504.111
 65.370    699.000    697.937      1.063    504.210    696.349    504.210    505.825    504.210
 65.470    629.000    661.793    -32.793    504.310    660.225    504.310    505.904    504.310
 65.570    620.771    632.835    -12.064    504.409    631.283    504.409    505.985    504.409
 65.670    561.176    610.206    -49.031    504.508    608.665    504.508    506.068    504.508
 65.770    601.000    593.004      7.996    504.607    591.471    504.607    506.153    504.607
 65.870    577.000    580.342     -3.342    504.706    578.816    504.706    506.240    504.706
 65.970    550.044    571.427    -21.383    504.805    569.908    504.805    506.329    504.805
 66.070    529.790    565.576    -35.787    504.904    564.063    504.904    506.419    504.904
 66.170    574.397    562.218     12.179    505.003    560.711    505.003    506.511    505.003
 66.270    535.000    560.886    -25.886    505.102    559.383    505.102    506.605    505.102
 66.370    595.000    561.235     33.765    505.200    559.735    505.200    506.700    505.200
 66.470    587.000    563.082     23.918    505.299    561.584    505.299    506.797    505.299
 66.570    550.695    566.477    -15.781    505.397    564.979    505.397    506.895    505.397
 66.670    572.790    571.817      0.973    505.495    570.318    505.495    506.995    505.495
 66.770    546.672    580.063    -33.391    505.593    578.560    505.593    507.096    505.593
 66.870    566.000    593.076    -27.076    505.691    591.568    505.691    507.200    505.691
 66.970    565.040    614.081    -49.042    505.789    612.564    505.789    507.304    505.789
 67.070    639.000    648.142     -9.142    505.886    646.613    505.886    507.411    505.886
 67.170    734.277    702.420     31.857    505.984    700.876    505.984    507.519    505.984
 67.270    787.000    785.837      1.163    506.081    784.276    506.081    507.629    506.081
 67.370    877.260    907.761    -30.501    506.178    906.181    506.178    507.741    506.178
 67.470   1147.000   1075.504     71.496    506.274   1073.906    506.274    507.854    506.274
 67.570   1296.000   1290.905      5.095    506.371   1289.294    506.371    507.970    506.371
 67.670   1588.234   1546.744     41.490    506.467   1545.129    506.467    508.088    506.467
 67.770   1869.428   1824.019     45.409    506.563   1822.412    506.563    508.208    506.563
 67.870   2120.000   2091.043     28.957    506.658   2089.457    506.658    508.330    506.658
 67.970   2284.000   2305.825    -21.825    506.754   2304.274    506.754    508.454    506.754
 68.070   2506.457   2424.837     81.620    506.849   2423.324    506.849    508.582    506.849
 68.170   2500.840   2419.521     81.319    506.944   2418.036    506.944    508.712    506.944
 68.270   2241.429   2291.334    -49.904    507.038   2289.849    507.038    508.845    507.038
 68.370   2014.000   2070.834    -56.834    507.132   2069.315    507.132    508.980    507.132
 68.470   1805.632   1801.906      3.727    507.226   1800.319    507.226    509.119    507.226
 68.570   1552.000   1525.844     26.156    507.320   1524.166    507.320    509.263    507.320
 68.670   1215.115   1273.287    -58.172    507.413   1271.503    507.413    509.411    507.413
 68.770    996.000   1062.177    -66.177    507.506   1060.283    507.506    509.563    507.506
 68.870    941.000    898.851     42.149    507.598    896.847    507.598    509.720    507.598
 68.970    795.000    780.870     14.130    507.690    778.759    507.690    509.882    507.690
 69.070    663.131    700.633    -37.503    507.782    698.418    507.782    510.051    507.782
 69.170    667.000    648.737     18.263    507.873    646.420    507.873    510.226    507.873
 69.270    675.000    616.372     58.628    507.964    613.951    507.964    510.408    507.964
 69.370    604.352    596.540      7.812    508.055    594.012    508.055    510.599    508.055
 69.470    645.000    584.328     60.672    508.145    581.686    508.145    510.798    508.145
 69.570    617.000    576.606     40.394    508.235    573.841    508.235    511.007    508.235
 69.670    560.000    571.541    -11.541    508.324    568.643    508.324    511.228    508.324
 69.770    619.609    568.128     51.481    508.413    565.084    508.413    511.461    508.413
 69.870    565.000    565.842     -0.842    508.501    562.638    508.501    511.708    508.501
 69.970    543.434    564.422    -20.989    508.589    561.042    508.589    511.971    508.589
 70.070    599.000    563.746     35.254    508.677    560.171    508.677    512.253    508.677
 70.170    576.000    563.778     12.222    508.764    559.985    508.764    512.556    508.764
 70.270    532.000    564.549    -32.549    508.850    560.516    508.850    512.882    508.850
 70.370    595.301    566.186     29.115    508.936    561.884    508.936    513.236    508.936
 70.470    558.957    568.961    -10.004    509.022    564.357    509.022    513.623    509.022
 70.570    581.321    573.404      7.917    509.107    568.459    509.107    514.046    509.107
 70.670    588.000    580.461      7.539    509.191    575.131    509.191    514.514    509.191
 70.770    635.928    591.730     44.198    509.275    585.958    509.275    515.035    509.275
 70.870    581.000    609.705    -28.705    509.359    603.422    509.359    515.623    509.359
 70.970    594.135    637.979    -43.844    509.442    631.096    509.442    516.295    509.442
 71.070    641.000    681.239    -40.239    509.524    673.638    509.524    517.082    509.524
 71.170    750.000    744.891      5.109    509.606    736.406    509.606    518.028    509.606
 71.270    766.000    834.165    -68.165    509.687    824.560    509.687    519.204    509.687
 71.370    928.726    952.684    -23.958    509.767    941.613    509.767    520.723    509.767
 71.470   1074.319   1100.689    -26.370    509.847   1087.640    509.847    522.750    509.847
 71.570   1287.329   1273.327     14.002    509.927   1257.551    509.927    525.526    509.927
 71.670   1390.000   1459.405    -69.405    510.005   1439.835    510.005    529.376    510.005
 71.770   1579.029   1641.062    -62.033    510.084   1616.223    510.084    534.711    510.084
 71.870   1878.000   1794.918     83.082    510.161   1762.862    510.161    542.011    510.161
 71.970   1957.624   1896.037     61.587    510.238   1854.319    510.238    551.771    510.238
 72.070   1896.722   1925.754    -29.032    510.314   1871.496    510.314    564.422    510.314
 72.170   1815.000   1880.307    -65.307    510.390   1810.366    510.390    580.221    510.390
 72.270   1821.000   1772.968     48.032    510.465   1684.240    510.465    599.120    510.465
 72.370   1585.998   1627.221    -41.223    510.539   1517.075    510.539    620.641    510.539
 72.470   1508.000   1467.399     40.601    510.613   1334.241    510.613    643.747    510.613
 72.570   1362.000   1312.780     49.220    510.686   1156.709    510.686    666.745    510.686
 72.670   1133.000   1175.400    -42.400    510.758    998.907    510.758    687.245    510.758
 72.770    995.000   1060.109    -65.109    510.829    868.562    510.829    702.372    510.829
 72.870    937.000    966.159    -29.159    510.900    767.610    510.900    709.444    510.900
 72.970    913.222    889.857     23.365    510.970    693.788    510.970    707.033    510.970
 73.070    808.395    827.091    -18.696    511.040    642.450    511.040    695.675    511.040
 73.170    762.463    774.669    -12.207    511.108    608.194    511.108    677.577    511.108
 73.270    724.944    730.466     -5.522    511.176    586.015    511.176    655.622    511.176
 73.370    684.000    693.126     -9.126    511.243    571.893    511.243    632.473    511.243
 73.470    706.716    661.803     44.914    511.310    562.948    511.310    610.162    511.310
 73.570    644.000    635.967      8.033    511.375    557.305    511.375    590.038    511.375
 73.670    589.972    615.243    -25.271    511.440    553.849    511.440    572.836    511.440
 73.770    625.000    599.261     25.739    511.504    551.970    511.504    558.801    511.504
 73.870    568.427    587.574    -19.147    511.568    551.343    511.568    547.808    511.568
 73.970    627.826    579.627     48.199    511.630    551.773    511.630    539.498    511.630
 74.070    637.000    574.769     62.231    511.692    553.086    511.692    533.394    511.692
 74.170    522.994    572.279    -49.285    511.753    555.052    511.753    529.004    511.753
 74.270    601.000    571.392     29.608    511.813    557.357    511.813    525.879    511.813
 74.370    611.000    571.328     39.672    511.872    559.586    511.872    523.651    511.872
 74.470    567.248    571.325     -4.077    511.930    561.257    511.930    522.039    511.930
 74.570    661.000    570.721     90.279    511.988    561.910    511.988    520.843    511.988
 74.670    661.000    569.092     91.908    512.045    561.254    512.045    519.928    512.045
 74.770    580.296    566.361     13.935    512.100    559.302    512.100    519.202    512.100
 74.870    549.697    562.786    -13.089    512.155    556.370    512.155    518.610    512.155
 74.970    513.918    558.828    -44.910    512.210    552.955    512.210    518.116    512.210
 75.070    551.923    555.007     -3.083    512.263    549.600    512.263    517.696    512.263
 75.170    565.106    551.829     13.277    512.315    546.830    512.315    517.334    512.315
 75.270    589.000    549.779     39.221    512.367    545.138    512.367    517.021    512.367
 75.370    550.000    549.335      0.665    512.417    545.012    512.417    516.748    512.417
 75.470    543.566    550.987     -7.422    512.467    546.947    512.467    516.508    512.467
 75.570    537.000    555.249    -18.249    512.516    551.462    512.516    516.298    512.516
 75.670    569.604    562.623      6.981    512.563    559.063    512.563    516.113    512.563
 75.770    553.999    573.521    -19.522    512.610    570.163    512.610    515.950    512.610
 75.870    575.000    588.132    -13.132    512.656    584.957    512.656    515.806    512.656
 75.970    637.737    606.270     31.467    512.701    603.260    512.701    515.678    512.701
 76.070    576.353    627.221    -50.868    512.745    624.359    512.745    515.565    512.745
 76.170    677.000    649.641     27.359    512.788    646.914    512.788    515.464    512.788
 76.270    714.000    671.531     42.469    512.830    668.929    512.830    515.375    512.830
 76.370    718.000    690.329     27.671    512.872    687.842    512.872    515.296    512.872
 76.470    698.729    703.224     -4.495    512.912    700.846    512.912    515.225    512.912
 76.570    693.000    707.861    -14.861    512.951    705.588    512.951    515.162    512.951
 76.670    681.781    703.255    -21.474    512.989    701.082    512.989    515.106    512.989
 76.770    651.000    690.272    -39.272    513.026    688.194    513.026    515.056    513.026
 76.870    645.000    671.196    -26.196    513.063    669.208    513.063    515.012    513.063
 76.970    673.000    648.812     24.188    513.098    646.908    513.098    514.972    513.098
 77.070    591.941    625.691    -33.751    513.132    623.864    513.132    514.936    513.132
 77.170    560.000    603.841    -43.841    513.165    602.086    513.165    514.905    513.165
 77.270    534.000    584.602    -50.602    513.198    582.912    513.198    514.877    513.198
 77.370    571.995    568.664      3.332    513.229    567.034    513.229    514.851    513.229
 77.470    552.832    556.159     -3.327    513.259    554.584    513.259    514.829    513.259
 77.570    566.703    546.818     19.885    513.288    545.294    513.288    514.809    513.288
 77.670    572.000    540.137     31.863    513.316    538.660    513.316    514.791    513.316
 77.770    531.000    535.528     -4.528    513.343    534.094    513.343    514.775    513.343
 77.870    536.000    532.432      3.568    513.369    531.039    513.369    514.760    513.369
 77.970    505.954    530.385    -24.430    513.394    529.029    513.394    514.748    513.394
 78.070    527.814    529.031     -1.217    513.417    527.711    513.417    514.736    513.417
 78.170    518.000    528.126    -10.126    513.440    526.839    513.440    514.726    513.440
 78.270    502.000    527.508    -25.508    513.462    526.252    513.462    514.716    513.462
 78.370    503.443    527.082    -23.638    513.482    525.855    513.482    514.708    513.482
 78.470    498.000    526.792    -28.792    513.501    525.592    513.501    514.700    513.501
 78.570    497.000    526.596    -29.596    513.520    525.422    513.520    514.693    513.520
 78.670    511.000    526.501    -15.501    513.537    525.350    513.537    514.687    513.537
 78.770    510.000    526.547    -16.547    513.553    525.417    513.553    514.682    513.553
 78.870    520.000    526.727     -6.727    513.568    525.616    513.568    514.678    513.568
 78.970    527.000    527.062     -0.062    513.582    525.968    513.582    514.675    513.582
 79.070    501.000    527.580    -26.580    513.595    526.500    513.595    514.673    513.595
 79.170    533.097    528.311      4.785    513.606    527.242    513.606    514.673    513.606
 79.270    557.000    529.282     27.718    513.617    528.221    513.617    514.676    513.617
 79.370    516.000    530.524    -14.524    513.626    529.465    513.626    514.682    513.626
 79.470    516.000    532.063    -16.063    513.634    531.002    513.634    514.692    513.634
 79.570    535.917    533.932      1.985    513.641    532.863    513.641    514.706    513.641
 79.670    491.017    536.186    -45.168    513.647    535.103    513.647    514.725    513.647
 79.770    527.000    538.912    -11.912    513.652    537.809    513.652    514.750    513.652
 79.870    551.314    542.256      9.059    513.655    541.124    513.655    514.781    513.655
 79.970    544.000    546.440     -2.440    513.658    545.275    513.658    514.818    513.658
 80.070    517.404    551.795    -34.392    513.659    550.590    513.659    514.859    513.659
 80.170    535.000    558.752    -23.752    513.659    557.504    513.659    514.904    513.659
 80.270    533.418    567.794    -34.376    513.658    566.502    513.658    514.949    513.658
 80.370    555.000    579.366    -24.366    513.656    578.031    513.656    514.991    513.656
 80.470    553.191    593.751    -40.559    513.652    592.381    513.652    515.026    513.652
 80.570    571.000    610.966    -39.966    513.647    609.574    513.647    515.048    513.647
 80.670    650.239    630.677     19.562    513.642    629.279    513.642    515.053    513.642
 80.770    578.000    652.154    -74.154    513.634    650.770    513.634    515.037    513.634
 80.870    671.000    674.295     -3.295    513.626    672.945    513.626    515.001    513.626
 80.970    721.000    695.741     25.259    513.617    694.441    513.617    514.948    513.617
 81.070    713.000    715.073     -2.073    513.606    713.836    513.606    514.882    513.606
 81.170    788.892    731.005     57.888    513.594    729.836    513.594    514.807    513.594
 81.270    745.000    742.492      2.508    513.581    741.395    513.581    514.730    513.581
 81.370    761.000    748.822     12.178    513.566    747.793    513.566    514.653    513.566
 81.470    754.000    749.684      4.316    513.551    748.719    513.551    514.579    513.551
 81.570    730.000    745.193    -15.193    513.534    744.284    513.534    514.509    513.534
 81.670    712.464    735.835    -23.370    513.516    734.975    513.516    514.444    513.516
 81.770    729.000    722.445      6.555    513.497    721.626    513.497    514.384    513.497
 81.870    739.000    706.176     32.824    513.476    705.389    513.476    514.330    513.476
 81.970    699.000    688.334     10.666    513.454    687.574    513.454    514.281    513.454
 82.070    687.000    670.112     16.888    513.431    669.371    513.431    514.235    513.431
 82.170    632.024    652.363    -20.339    513.407    651.637    513.407    514.193    513.407
 82.270    611.000    635.558    -24.558    513.381    634.842    513.381    514.152    513.381
 82.370    639.000    619.894     19.106    513.355    619.185    513.355    514.114    513.355
 82.470    576.638    605.468    -28.831    513.326    604.764    513.326    514.076    513.326
 82.570    614.000    592.408     21.592    513.297    591.705    513.297    514.039    513.297
 82.670    536.000    580.890    -44.890    513.267    580.188    513.267    514.002    513.267
 82.770    588.000    571.104     16.896    513.235    570.400    513.235    513.965    513.235
 82.870    576.080    563.210     12.870    513.202    562.504    513.202    513.927    513.202
 82.970    552.909    557.325     -4.417    513.167    556.616    513.167    513.889    513.167
 83.070    609.000    553.509     55.491    513.132    552.795    513.132    513.850    513.132
 83.170    571.000    551.748     19.252    513.095    551.030    513.095    513.810    513.095
 83.270    580.000    551.938     28.062    513.057    551.215    513.057    513.769    513.057
 83.370    545.734    553.868     -8.134    513.017    553.140    513.017    513.728    513.017
 83.470    537.571    557.210    -19.639    512.976    556.477    512.976    513.685    512.976
 83.570    536.944    561.517    -24.573    512.934    560.778    512.934    513.642    512.934
 83.670    551.000    566.238    -15.238    512.891    565.495    512.891    513.597    512.891
 83.770    523.008    570.746    -47.738    512.846    569.999    512.846    513.552    512.846
 83.870    573.000    574.381     -1.381    512.801    573.631    512.801    513.505    512.801
 83.970    580.000    576.538      3.462    512.753    575.788    512.753    513.458    512.753
 84.070    545.000    576.795    -31.795    512.705    576.046    512.705    513.410    512.705
 84.170    602.000    575.022     26.978    512.655    574.275    512.655    513.360    512.655
 84.270    562.000    571.416     -9.416    512.604    570.672    512.604    513.310    512.604
 84.370    570.000    566.418      3.582    512.552    565.678    512.552    513.258    512.552
 84.470    550.000    560.575    -10.575    512.498    559.839    512.498    513.206    512.498
 84.570    561.016    554.424      6.592    512.443    553.692    512.443    513.152    512.443
 84.670    533.045    548.425    -15.380    512.387    547.695    512.387    513.098    512.387
 84.770    559.765    542.923     16.842    512.330    542.196    512.330    513.042    512.330
 84.870    582.000    538.143     43.857    512.271    537.417    512.271    512.986    512.271
 84.970    546.000    534.193     11.807    512.211    533.467    512.211    512.928    512.211
 85.070    518.000    531.084    -13.084    512.149    530.357    512.149    512.869    512.149
 85.170    533.000    528.757      4.243    512.087    528.028    512.087    512.809    512.087
 85.270    544.579    527.113     17.466    512.023    526.382    512.023    512.749    512.023
 85.370    527.000    526.041      0.959    511.957    525.307    511.957    512.687    511.957
 85.470    574.000    525.440     48.560    511.891    524.702    511.891    512.624    511.891
 85.570    534.000    525.233      8.767    511.823    524.491    511.823    512.560    511.823
 85.670    527.000    525.381      1.619    511.754    524.634    511.754    512.495    511.754
 85.770    533.289    525.881      7.409    511.683    525.129    511.683    512.429    511.683
 85.870    492.617    526.776    -34.158    511.611    526.017    511.611    512.362    511.611
 85.970    508.000    528.150    -20.150    511.538    527.384    511.538    512.294    511.538
 86.070    529.000    530.129     -1.129    511.464    529.355    511.464    512.225    511.464
 86.170    550.803    532.873     17.929    511.388    532.090    511.388    512.155    511.388
 86.270    532.000    536.565     -4.565    511.311    535.770    511.311    512.084    511.311
 86.370    523.950    541.386    -17.436    511.233    540.579    511.233    512.013    511.233
 86.470    519.867    547.494    -27.626    511.153    546.673    511.153    511.940    511.153
 86.570    547.000    554.984     -7.984    511.073    554.147    511.073    511.866    511.073
 86.670    581.000    563.852     17.148    510.990    562.997    510.990    511.791    510.990
 86.770    528.701    573.952    -45.251    510.907    573.077    510.907    511.716    510.907
 86.870    565.000    584.969    -19.969    510.822    584.074    510.822    511.639    510.822
 86.970    621.000    596.403     24.597    510.736    595.488    510.736    511.562    510.736
 87.070    616.000    607.573      8.427    510.649    606.638    510.649    511.484    510.649
 87.170    583.000    617.641    -34.641    510.560    616.688    510.560    511.405    510.560
 87.270    666.000    625.695     40.305    510.470    624.726    510.470    511.325    510.470
 87.370    619.715    630.885    -11.170    510.379    629.904    510.379    511.244    510.379
 87.470    634.836    632.626      2.209    510.287    631.637    510.287    511.163    510.287
 87.570    629.000    630.770     -1.770    510.193    629.776    510.193    511.081    510.193
 87.670    617.000    625.652     -8.652    510.098    624.655    510.098    510.998    510.098
 87.770    622.000    617.982      4.018    510.002    616.985    510.002    510.915    510.002
 87.870    620.000    608.663     11.337    509.904    607.666    509.904    510.831    509.904
 87.970    620.000    598.673     21.327    509.805    597.675    509.805    510.746    509.805
 88.070    639.000    588.922     50.078    509.705    587.922    509.705    510.661    509.705
 88.170    591.000    580.184     10.816    509.604    579.181    509.604    510.575    509.604
 88.270    603.128    573.075     30.053    509.501    572.066    509.501    510.489    509.501
 88.370    623.000    568.022     54.978    509.397    567.005    509.397    510.402    509.397
 88.470    581.000    565.252     15.748    509.292    564.225    509.292    510.316    509.292
 88.570    504.000    564.799    -60.799    509.186    563.762    509.186    510.228    509.186
 88.670    578.000    566.517     11.483    509.078    565.467    509.078    510.141    509.078
 88.770    581.012    570.093     10.919    508.969    569.029    508.969    510.054    508.969
 88.870    610.602    575.071     35.531    508.859    573.992    508.859    509.966    508.859
 88.970    590.000    580.876      9.124    508.747    579.780    508.747    509.879    508.747
 89.070    619.000    586.842     32.158    508.635    585.728    508.635    509.792    508.635
 89.170    627.000    592.250     34.750    508.521    591.115    508.521    509.705    508.521
 89.270    615.865    596.389     19.476    508.406    595.232    508.406    509.619    508.406
 89.370    585.000    598.651    -13.651    508.289    597.467    508.289    509.533    508.289
 89.470    614.899    598.642     16.257    508.172    597.428    508.172    509.448    508.172
 89.570    546.074    596.278    -50.204    508.053    595.029    508.053    509.364    508.053
 89.670    598.000    591.792      6.208    507.933    590.504    507.933    509.281    507.933
 89.770    588.983    585.647      3.336    507.811    584.316    507.811    509.200    507.811
 89.870    575.000    578.420     -3.420    507.689    577.040    507.689    509.120    507.689
 89.970    593.630    570.688     22.942    507.565    569.256    507.565    509.042    507.565
 90.070    585.000    562.964     22.036    507.440    561.476    507.440    508.967    507.440
 90.170    554.000    555.662     -1.662    507.314    554.114    507.314    508.894    507.314
 90.270    480.000    549.080    -69.080    507.187    547.469    507.187    508.824    507.187
 90.370    510.000    543.403    -33.403    507.059    541.723    507.059    508.759    507.059
 90.470    511.000    538.709    -27.709    506.929    536.955    506.929    508.698    506.929
 90.570    530.000    534.991     -4.991    506.798    533.157    506.798    508.643    506.798
 90.670    508.976    532.181    -23.204    506.666    530.259    506.666    508.595    506.666
 90.770    515.000    530.174    -15.174    506.533    528.155    506.533    508.556    506.533
 90.870    513.000    528.855    -15.855    506.398    526.728    506.398    508.528    506.398
 90.970    526.570    528.118     -1.548    506.263    525.866    506.263    508.516    506.263
 91.070    534.000    527.881      6.119    506.126    525.482    506.126    508.525    506.126
 91.170    574.142    528.093     46.049    505.988    525.520    505.988    508.560    505.988
 91.270    538.000    528.744      9.256    505.850    525.961    505.850    508.631    505.850
 91.370    541.000    529.869     11.131    505.709    526.829    505.709    508.747    505.709
 91.470    530.697    531.547     -0.851    505.568    528.189    505.568    508.922    505.568
 91.570    493.617    533.904    -40.287    505.426    530.150    505.426    509.174    505.426
 91.670    503.661    537.109    -33.447    505.282    532.863    505.282    509.520    505.282
 91.770    521.101    541.362    -20.261    505.138    536.506    505.138    509.984    505.138
 91.870    557.807    546.860     10.947    504.992    541.249    504.992    510.590    504.992
 91.970    602.976    553.915     49.061    504.845    547.380    504.845    511.363    504.845
 92.070    544.398    562.755    -18.357    504.697    555.104    504.697    512.327    504.697
 92.170    576.845    573.559      3.286    504.549    564.575    504.549    513.505    504.549
 92.270    571.000    586.454    -15.454    504.398    575.908    504.398    514.912    504.398
 92.370    618.563    601.478     17.085    504.247    589.130    504.247    516.556    504.247
 92.470    587.306    618.546    -31.240    504.095    604.159    504.095    518.435    504.095
 92.570    636.385    637.427     -1.042    503.942    620.782    503.942    520.533    503.942
 92.670    692.000    657.737     34.263    503.788    638.648    503.788    522.815    503.788
 92.770    681.000    678.926      2.074    503.632    657.262    503.632    525.229    503.632
 92.870    711.000    700.302     10.698    503.476    676.004    503.476    527.701    503.476
 92.970    711.000    721.080    -10.080    503.319    694.190    503.319    530.131    503.319
 93.070    787.514    740.482     47.032    503.160    711.166    503.160    532.396    503.160
 93.170    786.000    757.868     28.132    503.001    726.437    503.001    534.351    503.001
 93.270    747.000    772.851    -25.851    502.840    739.770    502.840    535.841    502.840
 93.370    810.000    785.326     24.674    502.679    751.201    502.679    536.725    502.679
 93.470    821.000    795.440     25.560    502.516    760.980    502.516    536.900    502.516
 93.570    820.000    803.502     16.498    502.353    769.446    502.353    536.335    502.353
 93.670    824.485    809.907     14.578    502.189    776.951    502.189    535.073    502.189
 93.770    871.000    815.137     55.863    502.023    783.869    502.023    533.222    502.023
 93.870    759.259    819.776    -60.517    501.857    790.639    501.857    530.928    501.857
 93.970    866.000    824.495     41.505    501.690    797.774    501.690    528.346    501.690
 94.070    889.000    829.960     59.040    501.522    805.800    501.522    525.618    501.522
 94.170    884.450    836.667     47.783    501.353    815.093    501.353    522.865    501.353
 94.270    872.000    844.774     27.226    501.183    825.715    501.183    520.183    501.183
 94.370    876.000    853.985     22.015    501.012    837.298    501.012    517.642    501.012
 94.470    859.936    863.523     -3.587    500.840    849.017    500.840    515.293    500.840
 94.570    909.000    872.195     36.805    500.667    859.647    500.667    513.166    500.667
 94.670    913.245    878.518     34.727    500.494    867.692    500.494    511.277    500.494
 94.770    917.889    880.946     36.942    500.319    871.604    500.319    509.625    500.319
 94.870    863.136    878.161    -15.025    500.144    870.074    500.144    508.203    500.144
 94.970    941.000    869.385     71.615    499.968    862.342    499.968    506.992    499.968
 95.070    892.000    854.599     37.401    499.791    848.408    499.791    505.971    499.791
 95.170    899.000    834.557     64.443    499.613    829.051    499.613    505.114    499.613
 95.270    863.000    810.624     52.376    499.434    805.661    499.434    504.398    499.434
 95.370    834.850    784.525     50.324    499.255    779.988    499.255    503.798    499.255
 95.470    770.000    758.126     11.874    499.075    753.916    499.075    503.293    499.075
 95.570    779.000    733.273     45.727    498.894    729.312    498.894    502.863    498.894
 95.670    727.684    711.699     15.985    498.712    707.925    498.712    502.493    498.712
 95.770    683.000    694.970    -11.970    498.529    691.333    498.529    502.169    498.529
 95.870    732.342    684.454     47.888    498.346    680.916    498.346    501.882    498.346
 95.970    679.381    681.306     -1.924    498.162    677.837    498.162    501.621    498.162
 96.070    700.000    686.529     13.471    497.977    683.104    497.977    501.385    497.977
 96.170    720.000    700.889     19.111    497.792    697.487    497.792    501.167    497.792
 96.270    678.000    724.939    -46.939    497.605    721.543    497.605    500.965    497.605
 96.370    716.000    758.983    -42.983    497.419    755.578    497.419    500.776    497.419
 96.470    760.097    803.001    -42.904    497.231    799.575    497.231    500.599    497.231
 96.570    847.305    856.561     -9.255    497.043    853.102    497.043    500.432    497.043
 96.670    971.367    918.721     52.647    496.854    915.219    496.854    500.275    496.854
 96.770    942.000    987.947    -45.947    496.664    984.394    496.664    500.128    496.664
 96.870   1044.000   1062.055    -18.055    496.474   1058.443    496.474    499.990    496.474
 96.970   1150.000   1138.195     11.805    496.283   1134.516    496.283    499.861    496.283
 97.070   1225.203   1212.883     12.320    496.092   1209.132    496.092    499.743    496.092
 97.170   1256.000   1282.119    -26.119    495.900   1278.288    495.900    499.634    495.900
 97.270   1293.000   1341.614    -48.614    495.707   1337.697    495.707    499.536    495.707
 97.370   1398.000   1387.201     10.799    495.514   1383.192    495.514    499.449    495.514
 97.470   1438.000   1415.421     22.579    495.321   1411.310    495.321    499.374    495.321
 97.570   1436.000   1424.148     11.852    495.126   1419.926    495.126    499.312    495.126
 97.670   1379.000   1413.035    -34.035    494.932   1408.686    494.932    499.265    494.932
 97.770   1420.661   1383.510     37.151    494.736   1379.017    494.736    499.234    494.736
 97.870   1302.000   1338.413    -36.413    494.541   1333.754    494.541    499.222    494.541
 97.970   1212.303   1281.430    -69.128    494.344   1276.579    494.344    499.232    494.344
 98.070   1233.199   1216.582     16.616    494.148   1211.509    494.148    499.268    494.148
 98.170   1168.000   1147.856     20.144    493.951   1142.523    493.951    499.336    493.951
 98.270   1100.000   1078.973     21.027    493.753   1073.336    493.753    499.444    493.753
 98.370    950.000   1013.249    -63.249    493.555   1007.256    493.555    499.601    493.555
 98.470    959.000    953.527      5.473    493.356    947.111    493.356    499.822    493.356
 98.570    913.000    902.154     10.846    493.158    895.232    493.158    500.122    493.158
 98.670    893.358    860.996     32.362    492.958    853.462    492.958    500.526    492.958
 98.770    853.000    831.487     21.513    492.759    823.209    492.759    501.062    492.759
 98.870    810.000    814.691     -4.691    492.559    805.501    492.559    501.765    492.559
 98.970    801.000    811.371    -10.371    492.359    801.057    492.359    502.679    492.359
 99.070    791.000    822.044    -31.044    492.158    810.346    492.158    503.854    492.158
 99.170    841.000    847.017     -6.017    491.957    833.613    491.957    505.350    491.957
 99.270    937.000    886.378     50.622    491.756    870.883    491.756    507.234    491.756
 99.370    951.000    939.963     11.037    491.555    921.920    491.555    509.576    491.555
 99.470   1033.591   1007.284     26.308    491.353    986.161    491.353    512.450    491.353
 99.570   1135.689   1087.441     48.248    491.151   1062.637    491.151    515.930    491.151
 99.670   1264.000   1179.023     84.977    490.949   1149.870    490.949    520.081    490.949
 99.770   1290.000   1280.067      9.933    490.747   1245.843    490.747    524.956    490.747
 99.870   1428.000   1387.940     40.060    490.544   1347.890    490.544    530.591    490.544
 99.970   1447.050   1499.344    -52.294    490.342   1452.704    490.342    536.992    490.342
100.070   1607.000   1610.401     -3.401    490.139   1556.433    490.139    544.136    490.139
100.170   1766.000   1716.835     49.165    489.936   1654.863    489.936    551.959    489.936
100.270   1734.421   1814.295    -79.874    489.733   1743.753    489.733    560.351    489.733
100.370   1873.166   1898.744    -25.578    489.529   1819.223    489.529    569.153    489.529
100.470   1994.000   1966.786     27.214    489.326   1878.092    489.326    578.149    489.326
100.570   2051.288   2015.823     35.465    489.123   1918.033    489.123    587.066    489.123
100.670   2070.000   2044.034     25.966    488.920   1937.556    488.920    595.571    488.920
100.770   2108.000   2050.331     57.669    488.716   1935.961    488.716    603.278    488.716
100.870   2018.000   2034.460    -16.460    488.513   1913.411    488.513    609.767    488.513
100.970   1936.023   1997.247    -61.223    488.309   1871.150    488.309    614.620    488.309
101.070   1934.000   1940.839     -6.839    488.106   1811.684    488.106    617.478    488.106
101.170   1859.000   1868.717     -9.717    487.903   1738.732    487.903    618.103    487.903
101.270   1717.000   1785.377    -68.377    487.699   1656.858    487.699    616.426    487.699
101.370   1645.106   1695.787    -50.681    487.496   1570.913    487.496    612.567    487.496
101.470   1619.000   1604.813     14.187    487.293   1485.482    487.293    606.807    487.293
101.570   1541.117   1516.754     24.363    487.090   1404.483    487.090    599.528    487.090
101.670   1430.891   1435.048     -4.157    486.888   1330.932    486.888    591.154    486.888
101.770   1363.000   1362.128      0.872    486.685   1266.848    486.685    582.100    486.685
101.870   1253.000   1299.381    -46.381    486.482   1213.247    486.482    572.736    486.482
101.970   1184.090   1247.187    -63.097    486.280   1170.194    486.280    563.380    486.280
102.070   1160.603   1205.002    -44.400    486.078   1136.890    486.078    554.287    486.078
102.170   1229.746   1171.495     58.251    485.877   1111.804    485.877    545.656    485.877
102.270   1090.000   1144.709    -54.709    485.675   1092.835    485.675    537.632    485.675
102.370   1145.000   1122.280     22.720    485.474   1077.524    485.474    530.311    485.474
102.470   1059.000   1101.699    -42.699    485.273   1063.308    485.273    523.744    485.273
102.570   1081.504   1080.618      0.886    485.072   1047.825    485.072    517.945    485.072
102.670   1013.000   1057.155    -44.155    484.872   1029.210    484.872    512.899    484.872
102.770    985.000   1030.124    -45.124    484.672   1006.316    484.672    508.563    484.672
102.870   1023.432    999.109     24.323    484.473    978.783    484.473    504.881    484.473
102.970    917.032    964.382    -47.350    484.274    946.953    484.274    501.785    484.274
103.070    896.000    926.711    -30.711    484.075    911.666    484.075    499.200    484.075
103.170    842.477    887.145    -44.668    483.877    874.044    483.877    497.053    483.877
103.270    833.000    846.830    -13.830    483.679    835.307    483.679    495.274    483.679
103.370    797.000    806.891     -9.891    483.482    796.640    483.482    493.799    483.482
103.470    734.164    768.338    -34.174    483.286    759.113    483.286    492.570    483.286
103.570    777.737    732.021     45.715    483.090    723.624    483.090    491.539    483.090
103.670    648.000    698.595    -50.595    482.894    690.869    482.894    490.665    482.894
103.770    670.000    668.506      1.494    482.699    661.329    482.699    489.915    482.699
103.870    646.000    641.995      4.005    482.505    635.272    482.505    489.261    482.505
103.970    629.000    619.115      9.885    482.311    612.771    482.311    488.683    482.311
104.070    597.973    599.760     -1.787    482.118    593.736    482.118    488.164    482.118
104.170    617.000    583.701     33.299    481.926    577.951    481.926    487.693    481.926
104.270    548.469    570.626    -22.157    481.734    565.115    481.734    487.259    481.734
104.370    590.000    560.179     29.821    481.544    554.877    481.544    486.856    481.544
104.470    503.966    551.990    -48.024    481.354    546.872    481.354    486.478    481.354
104.570    520.991    545.701    -24.710    481.164    540.748    481.164    486.122    481.164
104.670    550.132    540.993      9.139    480.976    536.186    480.976    485.785    480.976
104.770    542.000    537.589      4.411    480.788    532.915    480.788    485.464    480.788
104.870    537.000    535.263      1.737    480.601    530.707    480.601    485.157    480.601
104.970    533.000    533.837     -0.837    480.415    529.386    480.415    484.864    480.415
105.070    508.562    533.204    -24.642    480.230    528.848    480.230    484.582    480.230
105.170    531.000    533.290     -2.290    480.046    529.020    480.046    484.312    480.046
105.270    560.000    534.069     25.931    479.863    529.874    479.863    484.052    479.863
105.370    514.000    535.555    -21.555    479.681    531.427    479.681    483.801    479.681
105.470    553.000    537.794     15.206    479.500    533.725    479.500    483.560    479.500
105.570    510.000    540.861    -30.861    479.320    536.843    479.320    483.326    479.320
105.670    573.000    544.846     28.154    479.141    540.871    479.141    483.101    479.141
105.770    537.000    549.843    -12.843    478.963    545.906    478.963    482.884    478.963
105.870    534.222    555.939    -21.717    478.786    552.031    478.786    482.674    478.786
105.970    580.000    563.193     16.807    478.611    559.310    478.611    482.472    478.611
106.070    609.036    571.631     37.405    478.436    567.766    478.436    482.276    478.436
106.170    606.124    581.227     24.897    478.263    577.375    478.263    482.086    478.263
106.270    548.000    591.897    -43.897    478.091    588.053    478.091    481.904    478.091
106.370    608.035    603.494      4.541    477.920    599.651    477.920    481.727    477.920
106.470    632.000    615.802     16.198    477.751    611.958    477.751    481.557    477.751
106.570    607.000    628.545    -21.545    477.582    624.693    477.582    481.393    477.582
106.670    634.000    641.385     -7.385    477.415    637.522    477.415    481.235    477.415
106.770    602.000    653.938    -51.938    477.250    650.060    477.250    481.083    477.250
106.870    651.000    665.790    -14.790    477.086    661.893    477.086    480.937    477.086
106.970    676.000    676.523     -0.523    476.923    672.604    476.923    480.797    476.923
107.070    612.000    685.749    -73.749    476.762    681.803    476.762    480.663    476.762
107.170    683.000    693.161    -10.161    476.602    689.186    476.602    480.535    476.602
107.270    682.000    698.585    -16.585    476.444    694.576    476.444    480.413    476.444
107.370    719.397    702.014     17.383    476.287    697.967    476.287    480.298    476.287
107.470    719.257    703.622     15.634    476.132    699.533    476.132    480.188    476.132
107.570    685.000    703.733    -18.733    475.978    699.597    475.978    480.085    475.978
107.670    713.801    702.766     11.035    475.826    698.579    475.826    479.989    475.826
107.770    671.000    701.173    -30.173    475.676    696.931    475.676    479.899    475.676
107.870    735.634    699.380     36.254    475.528    695.077    475.528    479.816    475.528
107.970    674.000    697.743    -23.743    475.381    693.372    475.381    479.739    475.381
108.070    657.000    696.515    -39.515    475.236    692.073    475.236    479.670    475.236
108.170    642.000    695.837    -53.837    475.092    691.317    475.092    479.609    475.092
108.270    693.000    695.723     -2.723    474.951    691.119    474.951    479.554    474.951
108.370    717.718    696.060     21.658    474.811    691.370    474.811    479.504    474.811
108.470    663.000    696.630    -33.630    474.673    691.844    474.673    479.466    474.673
108.570    736.595    697.108     39.487    474.537    692.218    474.537    479.437    474.537
108.670    727.000    697.104     29.896    474.403    692.104    474.403    479.417    474.403
108.770    653.755    696.208    -42.453    474.271    691.089    474.271    479.406    474.271
108.870    683.000    694.042    -11.042    474.141    688.796    474.141    479.405    474.141
108.970    694.848    690.318      4.530    474.013    684.937    474.013    479.414    474.013
109.070    685.000    684.885      0.115    473.887    679.360    473.887    479.434    473.887
109.170    707.000    677.746     29.254    473.763    672.067    473.763    479.465    473.763
109.270    654.118    669.050    -14.932    473.642    663.207    473.642    479.508    473.642
109.370    698.000    659.050     38.950    473.522    653.040    473.522    479.555    473.522
109.470    630.190    648.089    -17.898    473.405    641.892    473.405    479.623    473.405
109.570    642.000    636.516      5.484    473.290    630.119    473.290    479.707    473.290
109.670    622.000    624.685     -2.685    473.177    618.075    473.177    479.806    473.177
109.770    586.100    612.928    -26.829    473.066    606.091    473.066    479.922    473.066
109.870    610.799    601.541      9.257    472.958    594.461    472.958    480.055    472.958
109.970    636.000    590.775     45.225    472.852    583.434    472.852    480.207    472.852
110.070    554.472    580.830    -26.358    472.749    573.210    472.749    480.380    472.749
110.170    594.000    571.856     22.144    472.647    563.936    472.647    480.577    472.647
110.270    516.018    563.949    -47.931    472.549    555.706    472.549    480.800    472.549
110.370    589.000    557.156     31.844    472.453    548.564    472.453    481.051    472.453
110.470    554.000    551.461      2.539    472.359    542.488    472.359    481.336    472.359
110.570    556.000    546.864      9.136    472.268    537.476    472.268    481.659    472.268
110.670    556.592    543.329     13.262    472.180    533.484    472.180    482.026    472.180
110.770    552.000    540.760     11.240    472.094    530.407    472.094    482.446    472.094
110.870    507.702    539.069    -31.367    472.011    528.150    472.011    482.927    472.011
110.970    533.476    538.167     -4.691    471.930    526.610    471.930    483.484    471.930
111.070    513.238    537.968    -24.730    471.853    525.687    471.853    484.130    471.853
111.170    538.096    538.394     -0.299    471.778    525.283    471.778    484.884    471.778
111.270    562.000    539.379     22.621    471.706    525.309    471.706    485.769    471.706
111.370    527.294    540.870    -13.576    471.637    525.685    471.637    486.814    471.637
111.470    570.000    542.829     27.171    471.571    526.341    471.571    488.051    471.571
111.570    499.000    545.237    -46.237    471.507    527.217    471.507    489.519    471.507
111.670    542.000    548.091     -6.091    471.447    528.264    471.447    491.264    471.447
111.770    543.000    551.406     -8.406    471.389    529.447    471.389    493.339    471.389
111.870    588.000    555.216     32.784    471.335    530.737    471.335    495.804    471.335
111.970    570.000    559.571     10.429    471.284    532.121    471.284    498.724    471.284
112.070    543.000    564.541    -21.541    471.236    533.593    471.236    502.173    471.236
112.170    578.000    570.208      7.792    471.191    535.161    471.191    506.226    471.191
112.270    540.000    576.668    -36.668    471.149    536.840    471.149    510.966    471.149
112.370    536.000    584.028    -48.028    471.111    538.653    471.111    516.474    471.111
112.470    556.737    592.400    -35.663    471.075    540.634    471.075    522.829    471.075
112.570    609.000    601.898      7.102    471.043    542.823    471.043    530.106    471.043
112.670    593.000    612.641    -19.641    471.015    545.272    471.015    538.371    471.015
112.770    646.732    624.745     21.988    470.990    548.045    470.990    547.675    470.990
112.870    661.299    638.325     22.974    470.968    551.225    470.968    558.053    470.968
112.970    655.000    653.502      1.498    470.950    554.920    470.950    569.516    470.950
113.070    689.000    670.397     18.603    470.935    559.268    470.935    582.046    470.935
113.170    638.000    689.145    -51.145    470.924    564.453    470.924    595.597    470.924
113.270    736.100    709.904     26.196    470.916    570.715    470.916    610.084    470.916
113.370    748.000    732.863     15.137    470.912    578.369    470.912    625.383    470.912
113.470    730.666    758.264    -27.598    470.912    587.822    470.912    641.327    470.912
113.570    733.944    786.420    -52.476    470.915    599.599    470.915    657.706    470.915
113.670    868.591    817.737     50.854    470.922    614.366    470.922    674.257    470.922
113.770    855.000    852.740      2.260    470.933    632.959    470.933    690.673    470.933
113.870    888.547    892.102     -3.555    470.948    656.407    470.948    706.594    470.948
113.970    932.000    936.670     -4.670    470.966    685.962    470.966    721.616    470.966
114.070    983.000    987.496     -4.496    470.989    723.115    470.989    735.300    470.989
114.170   1108.621   1045.865     62.757    471.016    769.609    471.016    747.187    471.016
114.270   1105.000   1113.322     -8.322    471.046    827.439    471.046    756.826    471.046
114.370   1256.769   1191.693     65.076    471.081    898.836    471.081    763.814    471.081
114.470   1230.416   1283.089    -52.673    471.120    986.228    471.120    767.831    471.120
114.570   1397.899   1389.882      8.017    471.162   1092.179    471.162    768.687    471.162
114.670   1447.411   1514.646    -67.235    471.209   1219.303    471.209    766.339    471.209
114.770   1714.199   1660.042     54.156    471.261   1370.145    471.261    760.906    471.261
114.870   1876.461   1828.665     47.796    471.316   1547.041    471.316    752.645    471.316
114.970   2101.000   2022.838     78.162    471.376   1751.947    471.376    741.923    471.376
115.070   2205.144   2244.389    -39.246    471.440   1986.262    471.440    729.173    471.440
115.170   2551.000   2494.426     56.574    471.509   2250.634    471.509    714.854    471.509
115.270   2807.099   2773.110     33.989    471.582   2544.773    471.582    699.417    471.582
115.370   3131.000   3079.470     51.530    471.659   2867.287    471.659    683.288    471.659
115.470   3430.998   3411.249     19.748    471.741   3215.538    471.741    666.847    471.741
115.570   3854.376   3764.802     89.575    471.828   3585.548    471.828    650.431    471.828
115.670   4038.000   4135.049    -97.049    471.919   3971.955    471.919    634.324    471.919
115.770   4474.000   4515.495    -41.495    472.015   4368.030    472.015    618.762    472.015
115.870   4943.122   4898.308     44.814    472.116   4765.753    472.116    603.935    472.116
115.970   5266.000   5274.469     -8.469    472.221   5155.963    472.221    589.989    472.221
116.070   5523.000   5633.993   -110.993    472.332   5528.573    472.332    577.025    472.332
116.170   5972.000   5966.239      5.761    472.447   5872.876    472.447    565.112    472.447
116.270   6251.161   6260.320     -9.159    472.567   6177.956    472.567    554.279    472.567
116.370   6569.000   6505.651     63.349    472.692   6433.224    472.692    544.531    472.692
116.470   6755.816   6692.622     63.194    472.822   6629.091    472.822    535.844    472.822
116.570   6951.000   6813.368    137.632    472.957   6757.735    472.957    528.174    472.957
116.670   6924.000   6862.532     61.468    473.097   6813.854    473.097    521.463    473.097
116.770   6933.000   6837.847     95.153    473.242   6795.247    473.242    515.640    473.242
116.870   6787.000   6740.396     46.604    473.393   6703.068    473.393    510.628    473.393
116.970   6496.000   6574.462    -78.462    473.548   6541.677    473.548    506.344    473.548
117.070   6250.619   6347.023    -96.404    473.709   6318.129    473.709    502.709    473.709
117.170   5993.000   6067.033    -74.033    473.875   6041.455    473.875    499.643    473.875
117.270   5627.000   5744.644   -117.644    474.047   5721.879    474.047    497.071    474.047
117.370   5179.000   5390.505   -211.505    474.224   5370.120    474.224    494.923    474.224
117.470   4951.000   5015.191    -64.191    474.407   4996.814    474.407    493.136    474.407
117.570   4696.578   4628.748     67.830    474.595   4612.064    474.595    491.655    474.595
117.670   4214.578   4240.387    -25.808    474.789   4225.132    474.789    490.430    474.789
117.770   3851.000   3858.275     -7.275    474.988   3844.228    474.988    489.420    474.988
117.870   3509.000   3489.287     19.713    475.193   3476.267    475.193    488.587    475.193
117.970   3233.000   3138.993     94.007    475.404   3126.848    475.404    487.901    475.404
118.070   2884.000   2811.623     72.377    475.620   2800.231    475.620    487.338    475.620
118.170   2568.714   2510.113     58.601    475.843   2499.373    475.843    486.877    475.843
118.270   2284.000   2236.192     47.808    476.071   2226.023    476.071    486.501    476.071
118.370   2011.000   1990.518     20.482    476.305   1980.855    476.305    486.196    476.305
118.470   1799.000   1772.834     26.166    476.545   1763.621    476.545    485.951    476.545
118.570   1512.000   1582.134    -70.134    476.791   1573.328    476.791    485.759    476.791
118.670   1395.941   1416.839    -20.898    477.044   1408.403    477.044    485.611    477.044
118.770   1273.000   1274.960     -1.960    477.302   1266.865    477.302    485.503    477.302
118.870   1174.509   1154.262     20.247    477.567   1146.481    477.567    485.430    477.567
118.970    998.000   1052.393    -54.393    477.838   1044.905    477.838    485.388    477.838
119.070    953.000    967.005    -14.005    478.115    959.790    478.115    485.376    478.115
119.170    922.958    895.842     27.116    478.399    888.883    478.399    485.391    478.399
119.270    788.578    836.806    -48.228    478.689    830.087    478.689    485.431    478.689
119.370    797.120    787.998      9.122    478.985    781.503    478.985    485.495    478.985
119.470    736.000    747.737    -11.737    479.288    741.453    479.288    485.582    479.288
119.570    682.000    714.568    -32.568    479.598    708.481    479.598    485.691    479.598
119.670    711.000    687.255     23.745    479.914    681.351    479.914    485.821    479.914
119.770    621.000    664.762    -43.762    480.237    659.027    480.237    485.973    480.237
119.870    665.000    646.232     18.768    480.566    640.653    480.566    486.146    480.566
119.970    673.000    630.969     42.031    480.903    625.532    480.903    486.340    480.903
120.070    615.000    618.409     -3.409    481.246    613.100    481.246    486.555    481.246
120.170    621.000    608.102     12.898    481.596    602.907    481.596    486.792    481.596
120.270    641.466    599.689     41.777    481.953    594.594    481.953    487.050    481.953
120.370    602.355    592.889      9.466    482.317    587.878    482.317    487.330    482.317
120.470    624.621    587.480     37.141    482.688    582.538    482.688    487.633    482.688
120.570    579.000    583.287     -4.287    483.066    578.398    483.066    487.958    483.066
120.670    626.097    580.174     45.923    483.452    575.321    483.452    488.308    483.452
120.770    602.109    578.035     24.074    483.845    573.201    483.845    488.682    483.845
120.870    538.750    576.784    -38.035    484.245    571.953    484.245    489.081    484.245
120.970    597.369    576.354     21.016    484.652    571.506    484.652    489.506    484.652
121.070    608.000    576.686     31.314    485.067    571.803    485.067    489.956    485.067
121.170    543.000    577.729    -34.729    485.489    572.793    485.489    490.433    485.489
121.270    532.372    579.436    -47.064    485.919    574.429    485.919    490.936    485.919
121.370    583.000    581.759      1.241    486.356    576.661    486.356    491.465    486.356
121.470    607.806    584.646     23.161    486.801    579.439    486.801    492.020    486.801
121.570    581.000    588.040     -7.040    487.254    582.708    487.254    492.601    487.254
121.670    594.939    591.879      3.059    487.714    586.405    487.714    493.206    487.714
121.770    608.000    596.092     11.908    488.183    590.460    488.183    493.835    488.183
121.870    584.000    600.600    -16.600    488.659    594.796    488.659    494.485    488.659
121.970    583.000    605.312    -22.312    489.143    599.326    489.143    495.155    489.143
122.070    628.000    610.134     17.866    489.635    603.956    489.635    495.841    489.635
122.170    616.000    614.962      1.038    490.135    608.585    490.135    496.542    490.135
122.270    639.032    619.684     19.348    490.643    613.106    490.643    497.254    490.643
122.370    639.000    624.187     14.813    491.160    617.410    491.160    497.973    491.160
122.470    669.083    628.358     40.726    491.685    621.386    491.685    498.694    491.685
122.570    662.000    632.085     29.915    492.218    624.929    492.218    499.414    492.218
122.670    627.000    635.269     -8.269    492.759    627.943    492.759    500.127    492.759
122.770    607.000    637.822    -30.822    493.309    630.347    493.309    500.828    493.309
122.870    644.786    639.681      5.105    493.867    632.082    493.867    501.512    493.867
122.970    597.790    640.804    -43.013    494.434    633.110    494.434    502.173    494.434
123.070    664.000    641.177     22.823    495.010    633.425    495.010    502.808    495.010
123.170    621.000    640.816    -19.816    495.594    633.043    495.594    503.413    495.594
123.270    665.000    639.757     25.243    496.187    632.004    496.187    503.985    496.187
123.370    661.000    638.058     22.942    496.788    630.366    496.788    504.524    496.788
123.470    612.000    635.791    -23.791    497.399    628.202    497.399    505.031    497.399
123.570    671.905    633.038     38.868    498.018    625.590    498.018    505.507    498.018
123.670    641.000    629.884     11.116    498.647    622.613    498.647    505.955    498.647
123.770    670.000    626.415     43.585    499.284    619.354    499.284    506.381    499.284
123.870    626.514    622.717      3.797    499.931    615.891    499.931    506.789    499.931
123.970    583.575    618.867    -35.291    500.587    612.299    500.587    507.184    500.587
124.070    606.000    614.936     -8.936    501.252    608.644    501.252    507.572    501.252
124.170    568.598    610.987    -42.389    501.926    604.981    501.926    507.957    501.926
124.270    594.000    607.070    -13.070    502.610    601.358    502.610    508.344    502.610
124.370    548.000    603.226    -55.226    503.304    597.811    503.304    508.737    503.304
124.470    659.000    599.484     59.516    504.006    594.365    504.006    509.140    504.006
124.570    556.144    595.863    -39.718    504.719    591.037    504.719    509.557    504.719
124.670    580.000    592.373    -12.373    505.441    587.833    505.441    509.991    505.441
124.770    600.000    589.018     10.982    506.172    584.756    506.172    510.443    506.172
124.870    548.836    585.794    -36.958    506.914    581.800    506.914    510.915    506.914
124.970    610.000    582.700     27.300    507.665    578.960    507.665    511.411    507.665
