neutron_powder_diffraction_0110
R_wp: 3.945
Temperature (K): 938.005
Counts: 83284.00
Wavelength (Ã…): 2.52098
COMMENTS
Test file for demonstrating the .xyy file format in Reel1.0
END OF HEADER
   tth       Y_obs     Y_calc      Y_res    Background    Phase_1_Nuc    Phase_1_Mag    Phase_2_Nuc    Phase_2_Mag
  9.970    582.443    548.438     34.005    547.224    548.281    547.224    547.381    547.224
 10.070    566.000    549.001     16.999    547.692    548.843    547.692    547.849    547.692
 10.170    592.000    549.562     42.438    548.149    549.403    548.149    548.307    548.149
 10.270    596.846    550.127     46.719    548.595    549.968    548.595    548.754    548.595
 10.370    584.000    550.701     33.299    549.032    550.541    549.032    549.191    549.032
 10.470    579.470    551.288     28.182    549.458    551.127    549.458    549.618    549.458
 10.570    587.956    551.893     36.063    549.874    551.731    549.874    550.034    549.874
 10.670    556.504    552.523      3.980    550.280    552.361    550.280    550.441    550.280
 10.770    596.000    553.189     42.811    550.676    553.026    550.676    550.838    550.676
 10.870    514.567    553.903    -39.336    551.062    553.739    551.062    551.225    551.062
 10.970    569.747    554.683     15.064    551.439    554.518    551.439    551.602    551.439
 11.070    558.000    555.555      2.445    551.805    555.389    551.805    551.969    551.805
 11.170    584.672    556.555     28.118    552.162    556.388    552.162    552.327    552.162
 11.270    597.000    557.741     39.259    552.510    557.573    552.510    552.675    552.510
 11.370    575.802    559.218     16.584    552.848    559.048    552.848    553.014    552.848
 11.470    595.000    561.210     33.790    553.177    561.039    553.177    553.343    553.177
 11.570    629.000    564.240     64.760    553.496    564.067    553.496    553.663    553.496
 11.670    595.000    569.444     25.556    553.806    569.267    553.806    553.974    553.806
 11.770    594.000    578.868     15.132    554.107    578.685    554.107    554.276    554.107
 11.870    629.000    595.185     33.815    554.399    594.992    554.399    554.569    554.399
 11.970    611.024    620.115     -9.091    554.682    619.906    554.682    554.852    554.682
 12.070    636.000    651.258    -15.258    554.956    651.032    554.956    555.127    554.956
 12.170    657.674    678.484    -20.811    555.221    678.241    555.221    555.393    555.221
 12.270    653.000    686.083    -33.083    555.478    685.835    555.478    555.650    555.478
 12.370    635.000    668.106    -33.106    555.725    667.867    555.725    555.899    555.725
 12.470    666.716    637.376     29.340    555.964    637.155    555.964    556.139    555.964
 12.570    639.000    608.751     30.249    556.195    608.545    556.195    556.370    556.195
 12.670    571.000    588.408    -17.408    556.417    588.214    556.417    556.593    556.417
 12.770    572.000    576.236     -4.236    556.631    576.049    556.631    556.808    556.631
 12.870    565.000    569.704     -4.704    556.837    569.519    556.837    557.014    556.837
 12.970    548.011    566.292    -18.281    557.034    566.108    557.034    557.212    557.034
 13.070    557.000    564.394     -7.394    557.223    564.211    557.223    557.403    557.223
 13.170    546.000    563.218    -17.218    557.404    563.035    557.404    557.585    557.404
 13.270    537.000    562.423    -25.423    557.578    562.240    557.578    557.759    557.578
 13.370    551.000    561.859    -10.859    557.743    561.675    557.743    557.925    557.743
 13.470    583.000    561.451     21.549    557.900    561.267    557.900    558.083    557.900
 13.570    604.523    561.153     43.370    558.050    560.968    558.050    558.233    558.050
 13.670    533.000    560.936    -27.936    558.192    560.750    558.192    558.376    558.192
 13.770    536.000    560.777    -24.777    558.326    560.590    558.326    558.511    558.326
 13.870    525.468    560.662    -35.194    558.453    560.474    558.453    558.639    558.453
 13.970    548.000    560.579    -12.579    558.572    560.391    558.572    558.759    558.572
 14.070    574.000    560.521     13.479    558.684    560.333    558.684    558.872    558.684
 14.170    540.000    560.482    -20.482    558.788    560.292    558.788    558.977    558.788
 14.270    564.000    560.456      3.544    558.886    560.265    558.886    559.076    558.886
 14.370    548.000    560.440    -12.440    558.976    560.249    558.976    559.167    558.976
 14.470    602.000    560.431     41.569    559.059    560.239    559.059    559.251    559.059
 14.570    571.000    560.427     10.573    559.135    560.234    559.135    559.328    559.135
 14.670    499.000    560.426    -61.426    559.204    560.232    559.204    559.397    559.204
 14.770    563.000    560.427      2.573    559.266    560.232    559.266    559.460    559.266
 14.870    606.402    560.428     45.973    559.321    560.232    559.321    559.517    559.321
 14.970    537.000    560.430    -23.430    559.369    560.232    559.369    559.566    559.369
 15.070    515.000    560.430    -45.430    559.411    560.232    559.411    559.609    559.411
 15.170    561.000    560.429      0.571    559.446    560.229    559.446    559.645    559.446
 15.270    554.000    560.441     -6.441    559.474    560.240    559.474    559.674    559.474
 15.370    549.308    560.444    -11.135    559.496    560.242    559.496    559.697    559.496
 15.470    559.000    560.433     -1.433    559.512    560.231    559.512    559.714    559.512
 15.570    549.000    560.419    -11.419    559.521    560.215    559.521    559.724    559.521
 15.670    552.000    560.400     -8.400    559.524    560.195    559.524    559.728    559.524
 15.770    478.000    560.377    -82.377    559.520    560.171    559.520    559.726    559.520
 15.870    511.000    560.351    -49.351    559.511    560.143    559.511    559.718    559.511
 15.970    549.780    560.322    -10.542    559.495    560.114    559.495    559.703    559.495
 16.070    540.000    560.289    -20.289    559.473    560.079    559.473    559.683    559.473
 16.170    593.140    560.249     32.891    559.446    560.038    559.446    559.656    559.446
 16.270    574.373    560.204     14.169    559.412    559.993    559.412    559.624    559.412
 16.370    599.523    560.163     39.360    559.373    559.950    559.373    559.585    559.373
 16.470    555.809    560.189     -4.380    559.327    559.974    559.327    559.541    559.327
 16.570    534.686    560.177    -25.491    559.276    559.961    559.276    559.492    559.276
 16.670    589.846    560.118     29.728    559.220    559.901    559.220    559.437    559.220
 16.770    577.934    560.050     17.884    559.158    559.832    559.158    559.376    559.158
 16.870    576.989    559.978     17.011    559.090    559.758    559.090    559.309    559.090
 16.970    531.000    559.901    -28.901    559.017    559.680    559.017    559.237    559.017
 17.070    539.000    559.819    -20.819    558.938    559.597    558.938    559.160    558.938
 17.170    582.000    559.733     22.267    558.854    559.509    558.854    559.078    558.854
 17.270    592.110    559.642     32.469    558.765    559.417    558.765    558.990    558.765
 17.370    538.981    559.546    -20.566    558.670    559.320    558.670    558.897    558.670
 17.470    541.081    559.446    -18.365    558.571    559.218    558.571    558.799    558.571
 17.570    566.866    559.342      7.524    558.466    559.112    558.466    558.695    558.466
 17.670    561.000    559.234      1.766    558.356    559.003    558.356    558.587    558.356
 17.770    562.000    559.126      2.874    558.242    558.894    558.242    558.474    558.242
 17.870    528.000    559.009    -31.009    558.122    558.775    558.122    558.356    558.122
 17.970    555.092    558.886     -3.795    557.997    558.651    557.997    558.233    557.997
 18.070    529.386    558.760    -29.374    557.868    558.523    557.868    558.105    557.868
 18.170    530.000    558.629    -28.629    557.734    558.390    557.734    557.973    557.734
 18.270    572.000    558.494     13.506    557.595    558.253    557.595    557.836    557.595
 18.370    594.417    558.361     36.056    557.452    558.119    557.452    557.694    557.452
 18.470    600.000    558.286     41.714    557.304    558.042    557.304    557.548    557.304
 18.570    565.670    558.150      7.520    557.151    557.904    557.151    557.397    557.151
 18.670    576.000    557.999     18.001    556.995    557.752    556.995    557.242    556.995
 18.770    512.488    557.844    -45.356    556.833    557.595    556.833    557.082    556.833
 18.870    566.000    557.686      8.314    556.668    557.434    556.668    556.919    556.668
 18.970    548.000    557.523     -9.523    556.498    557.270    556.498    556.751    556.498
 19.070    547.246    557.356    -10.110    556.323    557.102    556.323    556.578    556.323
 19.170    546.000    557.186    -11.186    556.145    556.930    556.145    556.402    556.145
 19.270    513.055    557.013    -43.958    555.963    556.754    555.963    556.222    555.963
 19.370    532.693    556.836    -24.143    555.776    556.575    555.776    556.037    555.776
 19.470    579.291    556.655     22.636    555.586    556.392    555.586    555.849    555.586
 19.570    558.000    556.471      1.529    555.391    556.206    555.391    555.656    555.391
 19.670    540.000    556.283    -16.283    555.193    556.016    555.193    555.460    555.193
 19.770    521.271    556.093    -34.822    554.990    555.823    554.990    555.260    554.990
 19.870    570.000    555.904     14.096    554.784    555.632    554.784    555.056    554.784
 19.970    528.000    555.716    -27.716    554.574    555.442    554.574    554.849    554.574
 20.070    553.000    555.531     -2.531    554.361    555.254    554.361    554.638    554.361
 20.170    554.000    555.374     -1.374    554.144    555.095    554.144    554.423    554.144
 20.270    603.000    555.207     47.793    553.923    554.925    553.923    554.205    553.923
 20.370    519.000    555.002    -36.002    553.699    554.718    553.699    553.983    553.699
 20.470    524.735    554.792    -30.056    553.471    554.505    553.471    553.758    553.471
 20.570    570.472    554.579     15.893    553.240    554.290    553.240    553.530    553.240
 20.670    542.000    554.364    -12.364    553.006    554.072    553.006    553.298    553.006
 20.770    580.514    554.146     26.368    552.768    553.851    552.768    553.063    552.768
 20.870    579.000    553.928     25.072    552.527    553.630    552.527    552.824    552.527
 20.970    578.888    553.707     25.181    552.282    553.406    552.282    552.583    552.282
 21.070    549.000    553.483     -4.483    552.035    553.180    552.035    552.339    552.035
 21.170    523.165    553.258    -30.094    551.784    552.951    551.784    552.091    551.784
 21.270    517.000    553.031    -36.031    551.530    552.721    551.530    551.841    551.530
 21.370    598.483    552.806     45.677    551.274    552.492    551.274    551.587    551.274
 21.470    521.000    552.601    -31.601    551.014    552.284    551.014    551.331    551.014
 21.570    548.000    552.380     -4.380    550.751    552.060    550.751    551.071    550.751
 21.670    509.803    552.156    -42.353    550.486    551.832    550.486    550.810    550.486
 21.770    552.000    551.982      0.018    550.217    551.655    550.217    550.545    550.217
 21.870    577.103    551.785     25.318    549.946    551.454    549.946    550.277    549.946
 21.970    575.377    551.559     23.818    549.672    551.224    549.672    550.007    549.672
 22.070    579.102    551.332     27.770    549.395    550.993    549.395    549.735    549.395
 22.170    551.000    551.131     -0.131    549.116    550.788    549.116    549.460    549.116
 22.270    546.000    550.951     -4.951    548.834    550.603    548.834    549.182    548.834
 22.370    524.000    550.736    -26.736    548.550    550.384    548.550    548.902    548.550
 22.470    530.000    550.526    -20.526    548.263    550.169    548.263    548.620    548.263
 22.570    527.000    550.317    -23.317    547.974    549.956    547.974    548.335    547.974
 22.670    569.071    550.110     18.961    547.682    549.744    547.682    548.048    547.682
 22.770    589.505    549.913     39.592    547.388    549.542    547.388    547.759    547.388
 22.870    538.000    549.725    -11.725    547.091    549.349    547.091    547.468    547.091
 22.970    546.000    549.549     -3.549    546.792    549.167    546.792    547.175    546.792
 23.070    519.000    549.397    -30.397    546.491    549.010    546.491    546.879    546.491
 23.170    562.000    549.261     12.739    546.188    548.868    546.188    546.582    546.188
 23.270    516.000    549.140    -33.140    545.883    548.741    545.883    546.283    545.883
 23.370    593.631    549.048     44.583    545.575    548.643    545.575    545.981    545.575
 23.470    548.000    548.995     -0.995    545.266    548.583    545.266    545.679    545.266
 23.570    555.000    548.997      6.003    544.954    548.578    544.954    545.374    544.954
 23.670    526.812    549.068    -22.256    544.641    548.643    544.641    545.067    544.641
 23.770    537.000    549.232    -12.232    544.325    548.799    544.325    544.759    544.325
 23.870    541.087    549.526     -8.439    544.008    549.086    544.008    544.450    544.008
 23.970    564.676    550.026     14.650    543.689    549.579    543.689    544.139    543.689
 24.070    568.000    550.889     17.111    543.368    550.433    543.368    543.826    543.368
 24.170    536.000    552.469    -16.469    543.045    552.006    543.045    543.512    543.045
 24.270    553.911    555.528     -1.617    542.720    555.058    542.720    543.197    542.720
 24.370    529.964    561.401    -31.437    542.394    560.926    542.394    542.881    542.394
 24.470    618.807    571.797     47.010    542.066    571.319    542.066    542.563    542.066
 24.570    565.000    587.804    -22.804    541.737    587.327    541.737    542.244    541.737
 24.670    611.000    607.936      3.064    541.406    607.461    541.406    541.924    541.406
 24.770    654.000    625.884     28.116    541.073    625.410    541.073    541.604    541.073
 24.870    602.594    631.437    -28.843    540.739    630.955    540.739    541.282    540.739
 24.970    585.000    620.024    -35.024    540.404    619.522    540.404    540.960    540.404
 25.070    613.000    599.500     13.500    540.067    598.969    540.067    540.637    540.067
 25.170    544.000    579.735    -35.735    539.728    579.176    539.728    540.313    539.728
 25.270    527.839    565.177    -37.339    539.389    564.593    539.389    539.989    539.389
 25.370    604.000    556.081     47.919    539.048    555.473    539.048    539.665    539.048
 25.470    560.000    550.927      9.073    538.706    550.298    538.706    539.341    538.706
 25.570    570.868    548.048     22.819    538.362    547.399    538.362    539.016    538.362
 25.670    581.103    546.313     34.790    538.018    545.643    538.018    538.691    538.018
 25.770    566.000    545.136     20.864    537.672    544.444    537.672    538.367    537.672
 25.870    556.000    544.257     11.743    537.325    543.542    537.325    538.043    537.325
 25.970    590.000    543.566     46.434    536.977    542.826    536.977    537.719    536.977
 26.070    574.000    543.011     30.989    536.628    542.245    536.628    537.396    536.628
 26.170    578.346    542.559     35.787    536.278    541.765    536.278    537.074    536.278
 26.270    571.137    542.194     28.943    535.928    541.369    535.928    536.753    535.928
 26.370    583.000    541.905     41.095    535.576    541.048    535.576    536.434    535.576
 26.470    562.000    541.689     20.311    535.223    540.797    535.223    536.116    535.223
 26.570    544.000    541.545      2.455    534.869    540.615    534.869    535.800    534.869
 26.670    560.623    541.476     19.147    534.515    540.505    534.515    535.486    534.515
 26.770    562.000    541.492     20.508    534.160    540.476    534.160    535.176    534.160
 26.870    587.972    541.605     46.367    533.804    540.540    533.804    534.868    533.804
 26.970    575.000    541.836     33.164    533.447    540.719    533.447    534.565    533.447
 27.070    585.155    542.213     42.942    533.090    541.037    533.090    534.266    533.090
 27.170    546.000    542.777      3.223    532.732    541.537    532.732    533.971    532.732
 27.270    518.522    543.591    -25.069    532.373    542.280    532.373    533.683    532.373
 27.370    576.000    544.750     31.250    532.014    543.361    532.014    533.401    532.014
 27.470    542.877    546.433     -3.555    531.654    544.958    531.654    533.128    531.654
 27.570    572.000    549.086     22.914    531.294    547.515    531.294    532.863    531.294
 27.670    592.000    554.100     37.900    530.933    552.421    530.933    532.608    530.933
 27.770    522.287    565.526    -43.239    530.572    563.725    530.572    532.366    530.572
 27.870    622.000    592.434     29.566    530.211    590.490    530.211    532.136    530.211
 27.970    677.000    648.040     28.960    529.848    645.930    529.848    531.922    529.848
 28.070    738.000    739.288     -1.288    529.486    736.985    529.486    531.726    529.486
 28.170    866.948    848.087     18.861    529.123    845.575    529.123    531.549    529.123
 28.270    891.000    922.505    -31.505    528.760    919.784    528.760    531.393    528.760
 28.370    870.382    913.386    -43.004    528.397    910.457    528.397    531.263    528.397
 28.470    841.000    836.056      4.944    528.033    832.896    528.033    531.158    528.033
 28.570    787.000    753.499     33.501    527.670    750.068    527.670    531.083    527.670
 28.670    723.802    715.383      8.419    527.306    711.635    527.306    531.038    527.306
 28.770    756.000    732.436     23.564    526.942    728.335    526.942    531.024    526.942
 28.870    791.000    781.326      9.674    526.577    776.843    526.577    531.039    526.577
 28.970    824.000    817.506      6.494    526.213    812.625    526.213    531.079    526.213
 29.070    827.000    803.711     23.289    525.849    798.421    525.849    531.138    525.849
 29.170    711.000    744.784    -33.784    525.484    739.075    525.484    531.203    525.484
 29.270    665.000    673.913     -8.913    525.120    667.788    525.120    531.256    525.120
 29.370    571.118    616.918    -45.800    524.756    610.406    524.756    531.276    524.756
 29.470    573.971    581.088     -7.117    524.391    574.248    524.391    531.236    524.391
 29.570    548.000    562.086    -14.086    524.027    555.004    524.027    531.111    524.027
 29.670    657.000    552.776    104.224    523.663    545.561    523.663    530.879    523.663
 29.770    510.538    547.960    -37.423    523.299    540.734    523.299    530.526    523.299
 29.870    543.000    545.024     -2.024    522.935    537.907    522.935    530.052    522.935
 29.970    590.790    542.934     47.857    522.571    536.036    522.571    529.468    522.571
 30.070    608.000    541.348     66.652    522.208    534.759    522.208    528.795    522.208
 30.170    567.000    540.198     26.802    521.845    533.982    521.845    528.059    521.845
 30.270    584.182    539.602     44.580    521.482    533.796    521.482    527.286    521.482
 30.370    517.005    539.956    -22.951    521.119    534.574    521.119    526.498    521.119
 30.470    502.233    542.121    -39.888    520.757    537.157    520.757    525.715    520.757
 30.570    547.000    547.454     -0.454    520.395    542.889    520.395    524.948    520.395
 30.670    550.000    557.313     -7.313    520.033    553.120    520.033    524.207    520.033
 30.770    615.107    571.768     43.339    519.672    567.915    519.672    523.495    519.672
 30.870    584.765    587.816     -3.051    519.311    584.273    519.311    522.815    519.311
 30.970    582.000    598.492    -16.492    518.950    595.233    518.950    522.165    518.950
 31.070    623.773    596.897     26.876    518.590    593.901    518.590    521.545    518.590
 31.170    586.000    583.686      2.314    518.231    580.932    518.231    520.953    518.231
 31.270    549.492    566.141    -16.649    517.872    563.605    517.872    520.387    517.872
 31.370    543.000    550.730     -7.730    517.514    548.387    517.514    519.844    517.514
 31.470    584.396    539.972     44.424    517.156    537.799    517.156    519.321    517.156
 31.570    509.000    533.541    -24.541    516.799    531.518    516.799    518.817    516.799
 31.670    518.000    530.023    -12.023    516.442    528.132    516.442    518.330    516.442
 31.770    538.875    528.102     10.773    516.086    526.328    516.086    517.858    516.086
 31.870    489.167    526.965    -37.798    515.731    525.296    515.731    517.398    515.731
 31.970    532.484    526.225      6.259    515.376    524.649    515.376    516.951    515.376
 32.070    547.000    525.724     21.276    515.022    524.232    515.022    516.513    515.022
 32.170    553.000    525.405     27.595    514.669    523.987    514.669    516.085    514.669
 32.270    538.000    525.245     12.755    514.316    523.894    514.316    515.665    514.316
 32.370    522.000    525.242     -3.242    513.964    523.953    513.964    515.253    513.964
 32.470    509.962    525.405    -15.443    513.613    524.170    513.613    514.847    513.613
 32.570    524.000    525.754     -1.754    513.263    524.568    513.263    514.447    513.263
 32.670    548.000    526.320     21.680    512.914    525.179    512.914    514.053    512.914
 32.770    508.087    527.151    -19.063    512.565    526.051    512.565    513.664    512.565
 32.870    563.000    528.317     34.683    512.218    527.254    512.218    513.279    512.218
 32.970    523.259    529.922     -6.664    511.871    528.894    511.871    512.898    511.871
 33.070    568.000    532.134     35.866    511.525    531.136    511.525    512.521    511.525
 33.170    488.928    535.261    -46.333    511.180    534.291    511.180    512.147    511.180
 33.270    532.000    539.971     -7.971    510.836    539.027    510.836    511.777    510.836
 33.370    571.000    547.795     23.205    510.493    546.873    510.493    511.410    510.493
 33.470    569.834    561.998      7.836    510.151    561.096    510.151    511.047    510.151
 33.570    581.945    588.485     -6.540    509.810    587.598    509.810    510.685    509.810
 33.670    622.966    635.492    -12.526    509.470    634.614    509.470    510.327    509.470
 33.770    740.282    710.336     29.946    509.131    709.464    509.131    509.971    509.131
 33.870    825.000    812.455     12.545    508.793    811.587    508.793    509.617    508.793
 33.970    900.718    924.107    -23.389    508.456    923.248    508.456    509.266    508.456
 34.070   1005.441   1005.217      0.224    508.120   1004.378    508.120    508.917    508.120
 34.170   1001.000   1012.048    -11.048    507.785   1011.239    507.785    508.570    507.785
 34.270    947.000    939.684      7.316    507.452    938.903    507.452    508.225    507.452
 34.370    807.643    828.600    -20.958    507.119    827.838    507.119    507.883    507.119
 34.470    691.000    722.240    -31.240    506.788    721.490    506.788    507.542    506.788
 34.570    628.893    641.892    -12.999    506.458    641.150    506.458    507.203    506.458
 34.670    652.000    590.149     61.851    506.129    589.413    506.129    506.867    506.129
 34.770    561.000    560.328      0.672    505.802    559.599    505.802    506.532    505.802
 34.870    552.000    543.975      8.025    505.475    543.252    505.475    506.199    505.475
 34.970    537.845    534.717      3.128    505.150    533.999    505.150    505.868    505.150
 35.070    508.404    528.919    -20.515    504.826    528.206    504.826    505.539    504.826
 35.170    532.000    524.850      7.150    504.504    524.142    504.504    505.211    504.504
 35.270    508.000    521.755    -13.755    504.182    521.051    504.182    504.885    504.182
 35.370    529.978    519.289     10.690    503.862    518.589    503.862    504.561    503.862
 35.470    516.000    517.268     -1.268    503.543    516.572    503.543    504.239    503.543
 35.570    500.000    515.580    -15.580    503.226    514.887    503.226    503.919    503.226
 35.670    550.000    514.145     35.855    502.910    513.455    502.910    503.600    502.910
 35.770    447.000    512.909    -65.909    502.595    512.221    502.595    503.283    502.595
 35.870    499.389    511.831    -12.442    502.282    511.144    502.282    502.968    502.282
 35.970    500.000    510.880    -10.880    501.970    510.195    501.970    502.655    501.970
 36.070    519.000    510.033      8.967    501.660    509.349    501.660    502.343    501.660
 36.170    505.000    509.273     -4.273    501.350    508.591    501.350    502.033    501.350
 36.270    475.000    508.588    -33.588    501.043    507.906    501.043    501.725    501.043
 36.370    528.340    507.969     20.372    500.737    507.287    500.737    501.419    500.737
 36.470    475.000    507.407    -32.407    500.432    506.726    500.432    501.114    500.432
 36.570    497.000    506.901     -9.901    500.129    506.219    500.129    500.811    500.129
 36.670    482.890    506.448    -23.559    499.827    505.766    499.827    500.510    499.827
 36.770    510.357    506.054      4.303    499.527    505.371    499.527    500.210    499.527
 36.870    512.000    505.733      6.267    499.228    505.048    499.228    499.913    499.228
 36.970    509.000    505.521      3.479    498.931    504.835    498.931    499.617    498.931
 37.070    524.000    505.497     18.503    498.635    504.810    498.635    499.323    498.635
 37.170    494.000    505.809    -11.809    498.341    505.120    498.341    499.030    498.341
 37.270    494.466    506.670    -12.204    498.048    505.979    498.048    498.740    498.048
 37.370    494.000    508.305    -14.305    497.757    507.613    497.757    498.451    497.757
 37.470    522.000    510.810     11.190    497.468    510.116    497.468    498.164    497.468
 37.570    494.000    513.940    -19.940    497.180    513.244    497.180    497.879    497.180
 37.670    519.917    516.883      3.034    496.894    516.186    496.894    497.595    496.894
 37.770    495.000    518.299    -23.299    496.609    517.600    496.609    497.314    496.609
 37.870    519.000    517.328      1.672    496.326    516.628    496.326    497.034    496.326
 37.970    526.000    514.584     11.416    496.045    513.882    496.045    496.756    496.045
 38.070    492.000    511.238    -19.238    495.765    510.533    495.765    496.481    495.765
 38.170    460.000    508.036    -48.036    495.487    507.327    495.487    496.206    495.487
 38.270    498.000    505.319     -7.319    495.210    504.604    495.210    495.934    495.210
 38.370    482.894    503.214    -20.320    494.936    502.493    494.936    495.664    494.936
 38.470    507.063    501.684      5.379    494.663    500.956    494.663    495.395    494.663
 38.570    500.000    500.598     -0.598    494.391    499.864    494.391    495.129    494.391
 38.670    501.000    499.817      1.183    494.122    499.077    494.122    494.864    494.122
 38.770    522.000    499.230     22.770    493.854    498.484    493.854    494.601    493.854
 38.870    489.000    498.766     -9.766    493.588    498.014    493.588    494.341    493.588
 38.970    473.000    498.375    -25.375    493.323    497.617    493.323    494.082    493.323
 39.070    462.031    498.029    -35.998    493.060    497.265    493.060    493.825    493.060
 39.170    539.822    497.712     42.110    492.799    496.942    492.799    493.570    492.799
 39.270    470.000    497.417    -27.417    492.540    496.641    492.540    493.317    492.540
 39.370    488.000    497.141     -9.141    492.283    496.358    492.283    493.066    492.283
 39.470    514.561    496.879     17.681    492.027    496.090    492.027    492.817    492.027
 39.570    453.636    496.632    -42.996    491.773    495.835    491.773    492.570    491.773
 39.670    467.000    496.397    -29.397    491.521    495.593    491.521    492.325    491.521
 39.770    458.000    496.174    -38.174    491.271    495.363    491.271    492.082    491.271
 39.870    489.612    495.963     -6.351    491.022    495.144    491.022    491.842    491.022
 39.970    451.487    495.763    -44.277    490.775    494.937    490.775    491.603    490.775
 40.070    501.757    495.576      6.181    490.530    494.741    490.530    491.366    490.530
 40.170    455.402    495.401    -39.999    490.287    494.558    490.287    491.132    490.287
 40.270    509.641    495.240     14.401    490.046    494.387    490.046    490.899    490.046
 40.370    531.718    495.092     36.626    489.807    494.231    489.807    490.669    489.807
 40.470    481.000    494.960    -13.960    489.569    494.090    489.569    490.441    489.569
 40.570    462.000    494.846    -32.846    489.333    493.966    489.333    490.214    489.333
 40.670    474.000    494.751    -20.751    489.099    493.861    489.099    489.990    489.099
 40.770    530.239    494.678     35.561    488.867    493.778    488.867    489.769    488.867
 40.870    478.000    494.632    -16.632    488.637    493.721    488.637    489.549    488.637
 40.970    507.245    494.616     12.629    488.409    493.694    488.409    489.332    488.409
 41.070    475.000    494.637    -19.637    488.182    493.704    488.182    489.117    488.182
 41.170    493.000    494.702     -1.702    487.958    493.758    487.958    488.904    487.958
 41.270    479.000    494.822    -15.822    487.735    493.866    487.735    488.693    487.735
 41.370    451.388    495.010    -43.622    487.514    494.042    487.514    488.485    487.514
 41.470    507.000    495.287     11.713    487.296    494.306    487.296    488.279    487.296
 41.570    489.197    495.681     -6.483    487.079    494.687    487.079    488.075    487.079
 41.670    483.742    496.244    -12.502    486.863    495.237    486.863    487.873    486.863
 41.770    456.000    497.077    -41.077    486.650    496.056    486.650    487.674    486.650
 41.870    521.916    498.389     23.527    486.439    497.354    486.439    487.478    486.439
 41.970    456.000    500.607    -44.607    486.230    499.558    486.230    487.283    486.230
 42.070    461.239    504.502    -43.263    486.022    503.439    486.022    487.092    486.022
 42.170    521.226    511.257      9.969    485.817    510.181    485.817    486.902    485.817
 42.270    512.000    522.293    -10.293    485.613    521.206    485.613    486.715    485.613
 42.370    524.000    538.693    -14.693    485.411    537.597    485.411    486.531    485.411
 42.470    545.000    560.259    -15.259    485.212    559.155    485.212    486.349    485.212
 42.570    591.253    584.353      6.900    485.014    583.243    485.014    486.170    485.014
 42.670    601.000    604.882     -3.882    484.818    603.765    484.818    485.993    484.818
 42.770    646.000    613.300     32.700    484.624    612.169    484.624    485.819    484.624
 42.870    623.508    604.942     18.567    484.432    603.789    484.432    485.648    484.432
 42.970    571.000    584.333    -13.333    484.242    583.150    484.242    485.479    484.242
 43.070    604.255    560.005     44.250    484.054    558.787    484.054    485.313    484.054
 43.170    542.435    538.113      4.322    483.868    536.860    483.868    485.150    483.868
 43.270    513.000    521.357     -8.357    483.683    520.070    483.683    484.990    483.683
 43.370    526.328    509.976     16.352    483.501    508.658    483.501    484.833    483.501
 43.470    536.262    502.904     33.359    483.321    501.555    483.321    484.679    483.321
 43.570    481.000    498.721    -17.721    483.142    497.342    483.142    484.527    483.142
 43.670    500.000    496.238      3.762    482.966    494.829    482.966    484.379    482.966
 43.770    467.000    494.675    -27.675    482.792    493.236    482.792    484.234    482.792
 43.870    501.000    493.602      7.398    482.619    492.131    482.619    484.093    482.619
 43.970    492.000    492.804     -0.804    482.449    491.301    482.449    483.954    482.449
 44.070    449.884    492.180    -42.296    482.280    490.643    482.280    483.819    482.280
 44.170    522.000    491.679     30.321    482.113    490.107    482.113    483.688    482.113
 44.270    471.000    491.270    -20.270    481.949    489.661    481.949    483.560    481.949
 44.370    535.000    490.934     44.066    481.786    489.286    481.786    483.435    481.786
 44.470    517.000    490.659     26.341    481.625    488.970    481.625    483.315    481.625
 44.570    467.000    490.433    -23.433    481.466    488.702    481.466    483.198    481.466
 44.670    511.000    490.250     20.750    481.310    488.475    481.310    483.086    481.310
 44.770    522.000    490.105     31.895    481.155    488.282    481.155    482.978    481.155
 44.870    496.588    489.992      6.596    481.002    488.121    481.002    482.874    481.002
 44.970    475.000    489.911    -14.911    480.851    487.987    480.851    482.775    480.851
 45.070    503.076    489.857     13.219    480.702    487.879    480.702    482.681    480.702
 45.170    494.000    489.831      4.169    480.555    487.795    480.555    482.592    480.555
 45.270    486.000    489.831     -3.831    480.410    487.734    480.410    482.508    480.410
 45.370    565.000    489.857     75.143    480.267    487.695    480.267    482.429    480.267
 45.470    471.000    489.909    -18.909    480.126    487.679    480.126    482.356    480.126
 45.570    452.000    489.989    -37.989    479.986    487.686    479.986    482.290    479.986
 45.670    510.000    490.096     19.904    479.849    487.716    479.849    482.230    479.849
 45.770    514.000    490.234     23.766    479.714    487.771    479.714    482.177    479.714
 45.870    507.637    490.403     17.234    479.580    487.852    479.580    482.132    479.580
 45.970    485.000    490.607     -5.607    479.449    487.963    479.449    482.094    479.449
 46.070    511.000    490.850     20.150    479.320    488.105    479.320    482.065    479.320
 46.170    502.124    491.136     10.987    479.192    488.284    479.192    482.045    479.192
 46.270    502.000    491.471     10.529    479.067    488.503    479.067    482.035    479.067
 46.370    480.000    491.863    -11.863    478.943    488.770    478.943    482.035    478.943
 46.470    488.000    492.320     -4.320    478.821    489.093    478.821    482.048    478.821
 46.570    497.000    492.856      4.144    478.701    489.484    478.701    482.073    478.701
 46.670    526.000    493.490     32.510    478.584    489.960    478.584    482.113    478.584
 46.770    503.000    494.252      8.748    478.468    490.550    478.468    482.168    478.468
 46.870    492.323    495.197     -2.874    478.354    491.308    478.354    482.241    478.354
 46.970    499.000    496.433      2.567    478.242    492.339    478.242    482.333    478.242
 47.070    493.000    498.163     -5.163    478.132    493.846    478.132    482.446    478.132
 47.170    509.000    500.748      8.252    478.023    496.183    478.023    482.584    478.023
 47.270    509.000    504.740      4.260    477.917    499.901    477.917    482.749    477.917
 47.370    502.000    510.850     -8.850    477.813    505.706    477.813    482.945    477.813
 47.470    535.000    519.759     15.241    477.710    514.277    477.710    483.175    477.710
 47.570    523.000    531.772     -8.772    477.610    525.911    477.610    483.445    477.610
 47.670    535.000    546.353    -11.353    477.511    540.069    477.511    483.759    477.511
 47.770    568.931    561.644      7.288    477.414    554.890    477.414    484.123    477.414
 47.870    558.000    574.176    -16.176    477.319    566.900    477.319    484.543    477.319
 47.970    584.000    579.728      4.272    477.226    571.874    477.226    485.027    477.226
 48.070    518.000    576.325    -58.325    477.135    567.830    477.135    485.582    477.135
 48.170    581.000    566.296     14.704    477.046    557.087    477.046    486.215    477.046
 48.270    539.375    553.971    -14.596    476.958    543.966    476.958    486.934    476.958
 48.370    526.000    542.759    -16.759    476.873    531.862    476.873    487.749    476.873
 48.470    538.000    534.438      3.562    476.789    522.549    476.789    488.665    476.789
 48.570    562.535    529.514     33.021    476.707    516.525    476.707    489.688    476.707
 48.670    540.000    527.705     12.295    476.627    513.505    476.627    490.822    476.627
 48.770    509.072    528.401    -19.329    476.549    512.885    476.549    492.064    476.549
 48.870    544.000    531.015     12.985    476.473    514.082    476.473    493.405    476.473
 48.970    527.405    535.162     -7.758    476.399    516.735    476.399    494.826    476.399
 49.070    529.000    540.759    -11.759    476.326    520.791    476.326    496.294    476.326
 49.170    570.671    548.151     22.519    476.255    526.646    476.255    497.761    476.255
 49.270    556.057    558.528     -2.471    476.187    535.557    476.187    499.157    476.187
 49.370    576.000    574.928      1.072    476.119    550.647    476.119    500.398    476.119
 49.470    564.735    604.116    -39.381    476.054    578.772    476.054    501.390    476.054
 49.570    678.000    658.919     19.081    475.991    632.848    475.991    502.045    475.991
 49.670    745.860    759.384    -13.524    475.929    732.984    475.929    502.294    475.929
 49.770    980.000    929.510     50.490    475.869    903.208    475.869    502.108    475.869
 49.870   1209.000   1186.692     22.308    475.811   1160.905    475.811    501.503    475.811
 49.970   1452.000   1525.088    -73.088    475.755   1500.185    475.755    500.538    475.755
 50.070   1889.093   1899.920    -10.828    475.700   1876.203    475.700    499.296    475.700
 50.170   2248.166   2222.841     25.324    475.647   2200.534    475.647    497.872    475.647
 50.270   2363.000   2383.734    -20.734    475.596   2362.977    475.596    496.354    475.596
 50.370   2279.000   2314.937    -35.937    475.547   2295.771    475.547    494.816    475.547
 50.470   2082.000   2048.283     33.717    475.500   2030.646    475.500    493.313    475.500
 50.570   1628.000   1685.360    -57.360    475.454   1669.133    475.454    491.881    475.454
 50.670   1273.726   1328.041    -54.314    475.410   1313.088    475.410    490.545    475.410
 50.770   1022.000   1040.138    -18.138    475.367   1026.336    475.367    489.316    475.367
 50.870    832.900    842.419     -9.519    475.327    829.655    475.327    488.197    475.327
 50.970    716.816    724.537     -7.721    475.288    712.713    475.288    487.188    475.288
 51.070    616.080    662.059    -45.979    475.251    651.084    475.251    486.283    475.251
 51.170    656.000    630.104     25.896    475.215    619.891    475.215    485.475    475.215
 51.270    612.774    610.598      2.175    475.181    601.062    475.181    484.758    475.181
 51.370    612.000    594.237     17.763    475.149    585.298    475.149    484.123    475.149
 51.470    582.071    578.523      3.549    475.119    570.108    475.119    483.562    475.119
 51.570    575.000    564.050     10.950    475.090    556.095    475.090    483.067    475.090
 51.670    591.770    551.856     39.914    475.063    544.303    475.063    482.633    475.063
 51.770    545.000    542.497      2.503    475.038    535.296    475.038    482.252    475.038
 51.870    579.628    535.982     43.646    475.014    529.088    475.014    481.918    475.014
 51.970    564.000    531.955     32.045    474.992    525.328    474.992    481.627    474.992
 52.070    556.168    529.940     26.227    474.971    523.544    474.971    481.373    474.971
 52.170    548.000    529.521     18.479    474.952    523.325    474.952    481.153    474.952
 52.270    582.000    530.469     51.531    474.935    524.444    474.935    480.964    474.935
 52.370    533.005    532.823      0.182    474.919    526.944    474.919    480.802    474.919
 52.470    582.000    536.991     45.009    474.905    531.236    474.905    480.665    474.905
 52.570    611.000    543.942     67.058    474.893    538.289    474.893    480.550    474.893
 52.670    586.000    555.481     30.519    474.882    549.911    474.882    480.456    474.882
 52.770    556.606    574.556    -17.950    474.872    569.051    474.872    480.381    474.872
 52.870    561.664    605.290    -43.626    474.864    599.835    474.864    480.323    474.864
 52.970    657.000    652.486      4.514    474.858    647.065    474.858    480.283    474.858
 53.070    725.000    720.289      4.711    474.853    714.889    474.853    480.258    474.853
 53.170    823.000    810.051     12.949    474.850    804.659    474.850    480.248    474.850
 53.270    929.000    917.726     11.274    474.849    912.333    474.849    480.252    474.849
 53.370   1000.000   1031.281    -31.281    474.848   1025.876    474.848    480.270    474.848
 53.470   1088.844   1129.121    -40.278    474.850   1123.696    474.850    480.302    474.850
 53.570   1192.000   1183.757      8.243    474.853   1178.301    474.853    480.348    474.853
 53.670   1119.837   1175.771    -55.934    474.857   1170.271    474.857    480.406    474.857
 53.770   1100.000   1108.593     -8.593    474.863   1103.032    474.863    480.478    474.863
 53.870   1017.000   1005.379     11.621    474.870    999.738    474.870    480.562    474.870
 53.970    871.000    892.762    -21.762    474.879    887.025    474.879    480.661    474.879
 54.070    740.574    789.872    -49.298    474.889    784.024    474.889    480.772    474.889
 54.170    675.404    706.524    -31.120    474.900    700.553    474.900    480.898    474.900
 54.270    618.000    645.173    -27.173    474.913    639.069    474.913    481.038    474.913
 54.370    598.000    603.555     -5.555    474.928    597.304    474.928    481.193    474.928
 54.470    592.986    577.207     15.779    474.944    570.798    474.944    481.363    474.944
 54.570    582.000    561.428     20.572    474.961    554.847    474.961    481.549    474.961
 54.670    571.000    552.386     18.614    474.980    545.620    474.980    481.752    474.980
 54.770    506.000    547.445    -41.445    475.000    540.477    475.000    481.973    475.000
 54.870    590.067    545.015     45.052    475.021    537.828    475.021    482.213    475.021
 54.970    550.107    544.239      5.868    475.044    536.814    475.044    482.473    475.044
 55.070    559.000    544.697     14.303    475.068    537.015    475.068    482.755    475.068
 55.170    616.000    546.218     69.782    475.093    538.257    475.093    483.060    475.093
 55.270    556.000    548.766      7.234    475.120    540.502    475.120    483.390    475.120
 55.370    570.751    552.401     18.350    475.148    543.807    475.148    483.747    475.148
 55.470    555.000    557.281     -2.281    475.177    548.331    475.177    484.133    475.177
 55.570    581.212    563.724     17.488    475.208    554.385    475.208    484.552    475.208
 55.670    583.000    572.352     10.648    475.240    562.592    475.240    485.006    475.240
 55.770    583.000    584.402     -1.402    475.273    574.181    475.273    485.500    475.273
 55.870    626.000    602.264     23.736    475.308    591.541    475.308    486.036    475.308
 55.970    654.661    630.294     24.367    475.343    619.020    475.343    486.621    475.343
 56.070    617.000    675.729    -58.729    475.380    663.851    475.380    487.260    475.380
 56.170    731.000    749.231    -18.231    475.418    736.689    475.418    487.960    475.418
 56.270    916.244    864.228     52.016    475.458    850.954    475.458    488.727    475.458
 56.370   1000.000   1034.180    -34.180    475.498   1020.099    475.498    489.571    475.498
 56.470   1318.097   1267.453     50.644    475.540   1252.483    475.540    490.502    475.540
 56.570   1578.465   1560.641     17.825    475.583   1544.694    475.583    491.530    475.583
 56.670   1869.000   1892.003    -23.003    475.627   1874.984    475.627    492.669    475.627
 56.770   2141.789   2216.684    -74.895    475.672   2198.486    475.672    493.933    475.672
 56.870   2516.767   2467.273     49.494    475.719   2447.775    475.719    495.337    475.719
 56.970   2532.000   2571.382    -39.382    475.766   2550.440    475.766    496.900    475.766
 57.070   2489.321   2493.199     -3.878    475.815   2470.630    475.815    498.640    475.815
 57.170   2329.000   2261.966     67.034    475.865   2237.543    475.865    500.579    475.865
 57.270   1980.000   1947.927     32.073    475.916   1921.392    475.916    502.739    475.916
 57.370   1607.000   1620.229    -13.229    475.968   1591.309    475.968    505.144    475.968
 57.470   1314.392   1326.716    -12.324    476.021   1295.129    476.021    507.817    476.021
 57.570   1085.000   1091.927     -6.927    476.075   1057.378    476.075    510.782    476.075
 57.670    888.494    921.472    -32.978    476.130    883.652    476.130    514.063    476.130
 57.770    749.000    808.560    -59.560    476.186    767.143    476.186    517.680    476.186
 57.870    739.000    740.912     -1.912    476.244    695.559    476.244    521.647    476.244
 57.970    720.000    706.315     13.685    476.302    656.679    476.302    525.970    476.302
 58.070    696.000    695.781      0.219    476.361    641.518    476.361    530.643    476.361
 58.170    722.000    704.373     17.627    476.421    645.165    476.421    535.638    476.421
 58.270    763.000    730.422     32.578    476.482    666.002    476.482    540.901    476.482
 58.370    757.000    773.914    -16.914    476.545    704.106    476.545    546.342    476.545
 58.470    811.000    834.665    -23.665    476.608    759.430    476.608    551.824    476.608
 58.570    904.000    910.652     -6.652    476.672    830.138    476.672    557.162    476.672
 58.670    957.612    996.785    -39.173    476.737    911.375    476.737    562.121    476.737
 58.770   1020.599   1084.899    -64.301    476.803    995.248    476.803    566.434    476.803
 58.870   1172.000   1165.868      6.132    476.870   1072.907    476.870    569.820    476.870
 58.970   1236.725   1232.084      4.641    476.937   1136.990    476.937    572.033    476.937
 59.070   1325.000   1277.098     47.902    477.006   1181.223    477.006    572.897    477.006
 59.170   1403.000   1294.748    108.252    477.075   1199.509    477.075    572.344    477.075
 59.270   1329.000   1282.815     46.185    477.146   1189.569    477.146    570.430    477.146
 59.370   1306.000   1247.867     58.133    477.217   1157.802    477.217    567.320    477.217
 59.470   1166.088   1203.503    -37.415    477.289   1117.561    477.289    563.255    477.289
 59.570   1242.000   1164.107     77.893    477.362   1082.954    477.362    558.514    477.362
 59.670   1159.531   1141.454     18.077    477.435   1065.487    477.435    553.367    477.435
 59.770   1230.000   1145.114     84.886    477.510   1074.492    477.510    548.054    477.510
 59.870   1230.488   1181.955     48.533    477.585   1116.649    477.585    542.767    477.585
 59.970   1349.000   1252.444     96.556    477.661   1192.288    477.661    537.645    477.661
 60.070   1360.000   1346.910     13.090    477.738   1291.647    477.738    532.785    477.738
 60.170   1429.000   1444.555    -15.555    477.815   1393.880    477.815    528.245    477.815
 60.270   1481.000   1515.850    -34.850    477.893   1469.438    477.893    524.055    477.893
 60.370   1575.000   1531.098     43.902    477.972   1488.620    477.972    520.223    477.972
 60.470   1518.000   1476.131     41.869    478.052   1437.257    478.052    516.746    478.052
 60.570   1369.000   1361.790      7.210    478.132   1326.190    478.132    513.609    478.132
 60.670   1233.291   1214.849     18.442    478.213   1182.196    478.213    510.792    478.213
 60.770   1099.000   1062.769     36.231    478.294   1032.753    478.294    508.274    478.294
 60.870    894.000    925.805    -31.805    478.377    898.138    478.377    506.030    478.377
 60.970    831.521    815.447     16.074    478.459    789.868    478.459    504.036    478.459
 61.070    741.000    735.569      5.431    478.543    711.845    478.543    502.268    478.543
 61.170    708.000    684.941     23.059    478.627    662.864    478.627    500.702    478.627
 61.270    726.000    660.265     65.735    478.712    639.651    478.712    499.316    478.712
 61.370    654.000    658.758     -4.758    478.797    639.447    478.797    498.089    478.797
 61.470    671.000    679.573     -8.573    478.883    661.422    478.883    497.002    478.883
 61.570    731.000    723.759      7.241    478.969    706.645    478.969    496.035    478.969
 61.670    779.000    792.940    -13.940    479.056    776.756    479.056    495.172    479.056
 61.770    910.000    887.141     22.859    479.144    871.796    479.144    494.396    479.144
 61.870   1023.000   1002.409     20.591    479.232    987.831    479.232    493.695    479.232
 61.970   1093.000   1128.877    -35.877    479.320   1115.008    479.320    493.055    479.320
 62.070   1236.574   1249.746    -13.171    479.409   1236.543    479.409    492.467    479.409
 62.170   1285.900   1342.255    -56.355    479.498   1329.690    479.498    491.924    479.498
 62.270   1312.000   1383.292    -71.292    479.588   1371.343    479.588    491.421    479.588
 62.370   1365.000   1360.523      4.477    479.679   1349.168    479.679    490.953    479.679
 62.470   1216.000   1280.407    -64.407    479.769   1269.614    479.769    490.519    479.769
 62.570   1131.000   1163.571    -32.571    479.861   1153.302    479.861    490.117    479.861
 62.670    984.000   1033.533    -49.533    479.952   1023.747    479.952    489.745    479.952
 62.770    861.000    909.182    -48.182    480.044    899.840    480.044    489.402    480.044
 62.870    769.000    802.444    -33.444    480.136    793.511    480.136    489.088    480.136
 62.970    722.000    718.593      3.407    480.229    710.038    480.229    488.801    480.229
 63.070    605.000    657.685    -52.685    480.322    649.480    480.322    488.540    480.322
 63.170    635.340    616.519     18.821    480.416    608.639    480.416    488.303    480.416
 63.270    627.647    590.599     37.049    480.509    583.021    480.509    488.090    480.509
 63.370    533.187    575.630    -42.443    480.603    568.335    480.603    487.898    480.603
 63.470    557.000    568.384    -11.384    480.698    561.352    480.698    487.727    480.698
 63.570    547.000    567.002    -20.002    480.792    560.214    480.792    487.574    480.792
 63.670    535.536    570.950    -35.414    480.887    564.389    480.887    487.439    480.887
 63.770    613.000    580.804     32.196    480.982    574.451    480.982    487.320    480.982
 63.870    552.554    597.929    -45.375    481.078    591.769    481.078    487.216    481.078
 63.970    655.000    624.056     30.944    481.173    618.070    481.173    487.127    481.173
 64.070    657.000    660.705     -3.705    481.269    654.879    481.269    487.051    481.269
 64.170    743.000    708.494     34.506    481.365    702.813    481.365    486.987    481.365
 64.270    799.258    766.379     32.879    481.461    760.831    481.461    486.934    481.461
 64.370    814.000    830.952    -16.952    481.558    825.527    481.558    486.892    481.558
 64.470    866.565    895.919    -29.355    481.654    890.611    481.654    486.860    481.654
 64.570    926.171    952.245    -26.074    481.751    947.052    481.751    486.837    481.751
 64.670   1033.000    989.976     43.024    481.848    984.899    481.848    486.823    481.848
 64.770   1034.000   1002.054     31.946    481.945    997.094    481.945    486.817    481.945
 64.870   1046.358    987.493     58.866    482.042    982.650    482.042    486.819    482.042
 64.970    919.000    951.112    -32.112    482.139    946.382    482.139    486.828    482.139
 65.070    870.000    900.943    -30.943    482.236    896.318    482.236    486.843    482.236
 65.170    833.000    845.474    -12.474    482.333    840.945    482.333    486.866    482.333
 65.270    782.259    791.510     -9.251    482.431    787.065    482.431    486.894    482.431
 65.370    729.000    743.060    -14.060    482.528    738.690    482.528    486.928    482.528
 65.470    726.000    701.508     24.492    482.626    697.200    482.626    486.967    482.626
 65.570    624.965    666.699    -41.734    482.723    662.445    482.723    487.012    482.723
 65.670    661.000    638.072     22.928    482.820    633.862    482.820    487.062    482.820
 65.770    607.000    615.089     -8.089    482.918    610.917    482.918    487.117    482.918
 65.870    587.944    597.180     -9.237    483.015    593.040    483.015    487.176    483.015
 65.970    576.000    583.695     -7.695    483.112    579.582    483.112    487.241    483.112
 66.070    563.000    573.977    -10.977    483.209    569.888    483.209    487.310    483.209
 66.170    582.000    567.438     14.562    483.307    563.370    483.307    487.383    483.307
 66.270    549.000    563.594    -14.594    483.404    559.543    483.404    487.460    483.404
 66.370    578.739    562.069     16.670    483.501    558.032    483.501    487.542    483.501
 66.470    549.000    562.611    -13.611    483.597    558.586    483.597    487.628    483.597
 66.570    530.000    565.145    -35.145    483.694    561.126    483.694    487.718    483.694
 66.670    614.125    569.863     44.262    483.791    565.847    483.791    487.813    483.791
 66.770    610.000    577.379     32.621    483.887    573.362    483.887    487.911    483.887
 66.870    555.000    588.945    -33.945    483.983    584.922    483.983    488.014    483.983
 66.970    621.000    606.734     14.266    484.079    602.700    484.079    488.121    484.079
 67.070    633.000    634.149     -1.149    484.175    630.100    484.175    488.233    484.175
 67.170    663.000    676.031    -13.031    484.271    671.962    484.271    488.348    484.271
 67.270    692.809    738.586    -45.777    484.366    734.494    484.366    488.469    484.366
 67.370    774.541    828.805    -54.264    484.461    824.686    484.461    488.594    484.461
 67.470    924.133    953.209    -29.076    484.556    949.062    484.556    488.723    484.556
 67.570   1084.000   1115.934    -31.934    484.651   1111.761    484.651    488.858    484.651
 67.670   1338.000   1316.421     21.579    484.745   1312.225    484.745    488.998    484.745
 67.770   1548.000   1547.146      0.854    484.839   1542.933    484.839    489.143    484.839
 67.870   1741.581   1791.842    -50.261    484.933   1787.618    484.933    489.294    484.933
 67.970   1970.204   2024.666    -54.462    485.026   2020.439    485.026    489.450    485.026
 68.070   2285.000   2211.620     73.380    485.120   2207.391    485.120    489.613    485.120
 68.170   2324.000   2317.171      6.829    485.212   2312.933    485.212    489.783    485.212
 68.270   2284.802   2317.375    -32.573    485.305   2313.108    485.305    489.959    485.305
 68.370   2311.000   2212.246     98.754    485.397   2207.914    485.397    490.143    485.397
 68.470   2073.000   2025.746     47.254    485.488   2021.308    485.488    490.335    485.488
 68.570   1770.131   1793.412    -23.281    485.580   1788.833    485.580    490.535    485.580
 68.670   1600.229   1549.239     50.991    485.670   1544.491    485.670    490.744    485.670
 68.770   1364.000   1319.061     44.939    485.761   1314.126    485.761    490.963    485.761
 68.870   1066.159   1119.137    -52.979    485.851   1114.006    485.851    491.193    485.851
 68.970    947.425    956.985     -9.560    485.940    951.650    485.940    491.435    485.940
 69.070    820.000    833.157    -13.157    486.029    827.614    486.029    491.688    486.029
 69.170    762.000    743.510     18.490    486.118    737.755    486.118    491.956    486.118
 69.270    657.580    681.517    -23.937    486.206    675.542    486.206    492.239    486.206
 69.370    666.000    640.177     25.823    486.294    633.974    486.294    492.538    486.294
 69.470    634.000    613.267     20.733    486.381    606.821    486.381    492.856    486.381
 69.570    601.000    595.916      5.084    486.467    589.212    486.467    493.194    486.467
 69.670    596.000    584.676     11.324    486.553    577.692    486.553    493.555    486.553
 69.770    622.417    577.296     45.121    486.638    570.008    486.638    493.941    486.638
 69.870    569.000    572.407     -3.407    486.723    564.785    486.723    494.357    486.723
 69.970    559.000    569.223    -10.223    486.807    561.236    486.807    494.805    486.807
 70.070    548.000    567.323    -19.323    486.891    558.932    486.891    495.291    486.891
 70.170    580.000    566.501     13.499    486.974    557.662    486.974    495.819    486.974
 70.270    584.000    566.690     17.310    487.057    557.355    487.057    496.397    487.057
 70.370    554.000    567.939    -13.939    487.138    558.050    487.138    497.032    487.138
 70.470    599.962    570.430     29.532    487.219    559.920    487.219    497.732    487.219
 70.570    579.059    574.529      4.529    487.300    563.322    487.300    498.509    487.300
 70.670    542.000    580.896    -38.896    487.380    568.902    487.380    499.373    487.380
 70.770    606.000    590.615     15.385    487.459    577.733    487.459    500.338    487.459
 70.870    619.641    605.365     14.276    487.537    591.474    487.537    501.419    487.537
 70.970    612.238    627.561    -15.323    487.615    612.527    487.615    502.635    487.615
 71.070    667.123    660.420      6.702    487.692    644.087    487.692    504.002    487.692
 71.170    677.000    707.827    -30.827    487.768    690.018    487.768    505.543    487.768
 71.270    739.000    773.929    -34.929    487.843    754.446    487.843    507.278    487.843
 71.370    850.591    862.383    -11.792    487.918    841.006    487.918    509.230    487.918
 71.470    966.000    975.314     -9.314    487.992    951.801    487.992    511.422    487.992
 71.570   1007.000   1112.109   -105.109    488.065   1086.198    488.065    513.876    488.065
 71.670   1272.000   1268.276      3.724    488.137   1239.688    488.137    516.611    488.137
 71.770   1392.259   1434.557    -42.298    488.209   1402.999    488.209    519.644    488.209
 71.870   1599.000   1596.458      2.542    488.280   1561.630    488.280    522.985    488.280
 71.970   1684.000   1734.659    -50.659    488.350   1696.262    488.350    526.637    488.350
 72.070   1910.908   1827.608     83.299    488.419   1785.355    488.419    530.586    488.419
 72.170   1816.000   1857.673    -41.673    488.487   1811.303    488.487    534.805    488.487
 72.270   1814.000   1818.983     -4.983    488.554   1768.281    488.554    539.236    488.554
 72.370   1654.076   1720.636    -66.560    488.620   1665.471    488.620    543.792    488.620
 72.470   1684.000   1581.879    102.121    488.686   1522.247    488.686    548.343    488.686
 72.570   1417.057   1424.056     -6.999    488.750   1360.128    488.750    552.717    488.750
 72.670   1269.000   1265.241      3.759    488.814   1197.401    488.814    556.695    488.814
 72.770   1126.000   1118.366      7.634    488.877   1047.249    488.877    560.035    488.877
 72.870    968.000    991.185    -23.185    488.939    917.670    488.939    562.492    488.939
 72.970    870.180    886.926    -16.747    488.999    812.095    488.999    563.864    488.999
 73.070    812.534    805.302      7.231    489.059    730.360    489.059    564.030    489.059
 73.170    683.000    743.717    -60.717    489.118    669.881    489.118    562.978    489.118
 73.270    678.652    698.447    -19.795    489.176    626.831    489.176    560.812    489.176
 73.370    669.470    665.593      3.877    489.233    597.121    489.233    557.721    489.233
 73.470    622.994    641.708    -18.713    489.289    577.065    489.289    553.946    489.289
 73.570    655.816    624.085     31.731    489.344    563.708    489.344    549.734    489.344
 73.670    611.679    610.797      0.882    489.397    554.901    489.397    545.307    489.397
 73.770    603.000    600.584      2.416    489.450    549.201    489.450    540.848    489.450
 73.870    559.664    592.678    -33.014    489.502    545.703    489.502    536.494    489.502
 73.970    559.810    586.629    -26.820    489.552    543.862    489.552    532.339    489.552
 74.070    526.000    582.154    -56.154    489.602    543.335    489.602    528.444    489.602
 74.170    591.893    579.030     12.864    489.650    543.863    489.650    524.844    489.650
 74.270    584.000    577.014      6.986    489.698    545.191    489.698    521.552    489.698
 74.370    575.000    575.802     -0.802    489.744    547.014    489.744    518.570    489.744
 74.470    669.000    575.004     93.996    489.789    548.948    489.789    515.887    489.789
 74.570    541.094    574.146    -33.052    489.833    550.538    489.833    513.489    489.833
 74.670    651.000    572.738     78.262    489.876    551.309    489.876    511.355    489.876
 74.770    595.000    570.399     24.601    489.918    550.902    489.918    509.465    489.918
 74.870    616.000    567.012     48.988    489.958    549.223    489.958    507.796    489.958
 74.970    666.000    562.785    103.215    489.997    546.504    489.997    506.324    489.997
 75.070    600.000    558.164     41.836    490.035    543.211    490.035    505.029    490.035
 75.170    560.400    553.684      6.715    490.072    539.902    490.072    503.889    490.072
 75.270    502.712    549.882    -47.170    490.108    537.132    490.108    502.885    490.108
 75.370    527.538    547.267    -19.728    490.143    535.430    490.143    501.999    490.143
 75.470    507.372    546.330    -38.958    490.176    535.302    490.176    501.217    490.176
 75.570    521.000    547.548    -26.548    490.208    537.238    490.208    500.524    490.208
 75.670    520.631    551.390    -30.758    490.239    541.720    490.239    499.908    490.239
 75.770    560.000    558.258      1.742    490.268    549.161    490.268    499.358    490.268
 75.870    598.730    568.443     30.287    490.296    559.860    490.296    498.866    490.296
 75.970    604.000    582.033     21.967    490.323    573.912    490.323    498.423    490.323
 76.070    564.012    598.809    -34.797    490.349    591.106    490.349    498.024    490.349
 76.170    653.546    618.144     35.402    490.373    610.820    490.373    497.661    490.373
 76.270    660.000    638.927     21.073    490.396    631.949    490.396    497.331    490.396
 76.370    613.000    659.514    -46.514    490.418    652.852    490.418    497.030    490.418
 76.470    662.000    677.752    -15.752    490.438    671.382    490.438    496.754    490.438
 76.570    675.429    691.183    -15.754    490.457    685.086    490.457    496.499    490.457
 76.670    658.000    697.565    -39.565    490.475    691.721    490.475    496.265    490.475
 76.770    695.553    695.632     -0.080    490.492    690.027    490.492    496.047    490.492
 76.870    708.265    685.649     22.617    490.507    680.266    490.507    495.846    490.507
 76.970    674.000    669.271      4.729    490.520    664.097    490.520    495.658    490.520
 77.070    646.000    648.862     -2.862    490.532    643.883    490.532    495.483    490.532
 77.170    621.000    626.782     -5.782    490.543    621.983    490.543    495.319    490.543
 77.270    632.000    604.983     27.017    490.553    600.354    490.553    495.165    490.553
 77.370    580.654    584.881     -4.226    490.561    580.409    490.561    495.021    490.561
 77.470    575.000    567.350      7.650    490.567    563.024    490.567    494.885    490.567
 77.570    523.435    552.789    -29.354    490.572    548.599    490.572    494.757    490.572
 77.670    555.000    541.208     13.792    490.576    537.145    490.576    494.635    490.576
 77.770    559.000    532.346     26.654    490.578    528.402    490.578    494.520    490.578
 77.870    524.000    525.788     -1.788    490.579    521.955    490.579    494.411    490.579
 77.970    511.871    521.063     -9.192    490.579    517.333    490.579    494.307    490.579
 78.070    463.000    517.720    -54.720    490.577    514.088    490.577    494.208    490.577
 78.170    485.000    515.376    -30.376    490.573    511.836    490.573    494.113    490.573
 78.270    498.000    513.731    -15.731    490.568    510.276    490.568    494.022    490.568
 78.370    508.000    512.564     -4.564    490.561    509.190    490.561    493.935    490.561
 78.470    554.186    511.727     42.459    490.553    508.429    490.553    493.851    490.553
 78.570    503.000    511.124     -8.124    490.544    507.897    490.544    493.771    490.544
 78.670    495.000    510.701    -15.701    490.533    507.541    490.533    493.693    490.533
 78.770    522.852    510.430     12.423    490.520    507.332    490.520    493.618    490.520
 78.870    496.000    510.302    -14.302    490.506    507.263    490.506    493.545    490.506
 78.970    498.000    510.323    -12.323    490.490    507.339    490.490    493.474    490.490
 79.070    502.000    510.509     -8.509    490.473    507.576    490.473    493.406    490.473
 79.170    467.000    510.882    -43.882    490.454    507.997    490.454    493.339    490.454
 79.270    481.000    511.473    -30.473    490.434    508.632    490.434    493.274    490.434
 79.370    550.730    512.315     38.415    490.412    509.515    490.412    493.211    490.412
 79.470    500.000    513.452    -13.452    490.388    510.690    490.388    493.149    490.388
 79.570    499.680    514.935    -15.255    490.363    512.208    490.363    493.088    490.363
 79.670    519.000    516.836      2.164    490.336    514.142    490.336    493.029    490.336
 79.770    494.000    519.251    -25.251    490.308    516.587    490.308    492.970    490.308
 79.870    513.000    522.315     -9.315    490.278    519.678    490.278    492.912    490.278
 79.970    556.106    526.208     29.898    490.247    523.597    490.247    492.855    490.247
 80.070    519.000    531.166    -12.166    490.214    528.579    490.214    492.797    490.214
 80.170    513.655    537.489    -23.834    490.179    534.925    490.179    492.740    490.179
 80.270    572.619    545.544     27.075    490.143    543.002    490.143    492.682    490.143
 80.370    552.000    555.726     -3.726    490.105    553.207    490.105    492.624    490.105
 80.470    603.837    568.367     35.469    490.065    565.871    490.065    492.564    490.065
 80.570    550.000    583.749    -33.749    490.024    581.275    490.024    492.503    490.024
 80.670    592.308    601.834     -9.526    489.981    599.385    489.981    492.440    489.981
 80.770    586.000    622.260    -36.260    489.936    619.837    489.936    492.374    489.936
 80.870    613.000    644.305    -31.305    489.890    641.909    489.890    492.306    489.890
 80.970    696.000    666.899     29.101    489.842    664.533    489.842    492.235    489.842
 81.070    694.000    688.733      5.267    489.792    686.399    489.792    492.162    489.792
 81.170    698.000    708.441    -10.441    489.741    706.139    489.741    492.086    489.741
 81.270    692.000    724.785    -32.785    489.688    722.516    489.688    492.008    489.688
 81.370    752.000    736.776     15.224    489.633    734.539    489.633    491.928    489.633
 81.470    699.558    743.749    -44.191    489.577    741.544    489.577    491.846    489.577
 81.570    746.421    745.432      0.989    489.519    743.259    489.519    491.762    489.519
 81.670    748.000    741.952      6.048    489.459    739.808    489.459    491.677    489.459
 81.770    753.000    733.740     19.260    489.398    731.623    489.398    491.592    489.398
 81.870    692.000    721.463    -29.463    489.335    719.370    489.335    491.505    489.335
 81.970    710.823    706.035      4.788    489.270    703.965    489.270    491.418    489.270
 82.070    688.407    688.575     -0.168    489.203    686.523    489.203    491.330    489.203
 82.170    681.000    670.216     10.784    489.135    668.181    489.135    491.242    489.135
 82.270    679.000    651.880     27.120    489.065    649.859    489.065    491.153    489.065
 82.370    647.000    634.152     12.848    488.993    632.144    488.993    491.063    488.993
 82.470    626.496    617.348      9.147    488.919    615.351    488.919    490.974    488.919
 82.570    555.000    601.659    -46.659    488.844    599.671    488.844    490.883    488.844
 82.670    575.767    587.284    -11.517    488.767    585.303    488.767    490.792    488.767
 82.770    600.286    574.466     25.820    488.688    572.492    488.688    490.701    488.688
 82.870    539.000    563.452    -24.452    488.608    561.482    488.608    490.609    488.608
 82.970    549.000    554.447     -5.447    488.525    552.479    488.525    490.516    488.525
 83.070    586.522    547.588     38.934    488.441    545.622    488.441    490.423    488.441
 83.170    569.000    542.942     26.058    488.356    540.976    488.356    490.329    488.356
 83.270    542.822    540.490      2.332    488.268    538.523    488.268    490.234    488.268
 83.370    493.000    540.117    -47.117    488.179    538.149    488.179    490.138    488.179
 83.470    517.650    541.615    -23.965    488.088    539.644    488.088    490.042    488.088
 83.570    490.000    544.654    -54.654    487.995    542.679    487.995    489.945    487.995
 83.670    524.400    548.795    -24.395    487.900    546.816    487.900    489.846    487.900
 83.770    545.000    553.499     -8.499    487.804    551.517    487.804    489.747    487.804
 83.870    589.932    558.141     31.791    487.705    556.155    487.705    489.647    487.705
 83.970    587.960    562.047     25.912    487.605    560.058    487.605    489.545    487.605
 84.070    521.000    564.569    -43.569    487.504    562.578    487.504    489.443    487.504
 84.170    528.995    565.202    -36.207    487.400    563.211    487.400    489.340    487.400
 84.270    554.000    563.721     -9.721    487.295    561.732    487.295    489.235    487.295
 84.370    554.000    560.241     -6.241    487.188    558.254    487.188    489.130    487.188
 84.470    595.000    555.154     39.846    487.079    553.169    487.079    489.023    487.079
 84.570    534.317    548.996    -14.679    486.968    547.014    486.968    488.916    486.968
 84.670    539.000    542.319     -3.319    486.855    540.339    486.855    488.807    486.855
 84.770    546.000    535.613     10.387    486.741    533.634    486.741    488.697    486.741
 84.870    486.000    529.266    -43.266    486.625    527.287    486.625    488.586    486.625
 84.970    534.000    523.555     10.445    486.507    521.574    486.507    488.474    486.507
 85.070    532.000    518.648     13.352    486.387    516.663    486.387    488.361    486.387
 85.170    526.000    514.611     11.389    486.266    512.622    486.266    488.246    486.266
 85.270    474.379    511.435    -37.056    486.143    509.440    486.143    488.131    486.143
 85.370    496.712    509.056    -12.343    486.018    507.053    486.018    488.014    486.018
 85.470    535.000    507.380     27.620    485.891    505.369    485.891    487.896    485.891
 85.570    540.507    506.309     34.197    485.762    504.289    485.762    487.777    485.762
 85.670    541.635    505.757     35.878    485.632    503.726    485.632    487.657    485.632
 85.770    519.000    505.664     13.336    485.499    503.620    485.499    487.536    485.499
 85.870    505.000    506.000     -1.000    485.365    503.944    485.365    487.414    485.365
 85.970    486.000    506.777    -20.777    485.229    504.707    485.229    487.291    485.229
 86.070    515.000    508.041      6.959    485.092    505.955    485.092    487.167    485.092
 86.170    501.412    509.874     -8.461    484.952    507.772    484.952    487.041    484.952
 86.270    484.000    512.387    -28.387    484.811    510.266    484.811    486.915    484.811
 86.370    513.052    515.709     -2.657    484.668    513.569    484.668    486.788    484.668
 86.470    492.000    519.976    -27.976    484.523    517.814    484.523    486.660    484.523
 86.570    487.881    525.307    -37.426    484.377    523.121    484.377    486.531    484.377
 86.670    520.000    531.787    -11.787    484.228    529.576    484.228    486.401    484.228
 86.770    559.000    539.437     19.563    484.078    537.198    484.078    486.270    484.078
 86.870    538.682    548.186     -9.504    483.926    545.917    483.926    486.138    483.926
 86.970    575.464    557.847     17.617    483.772    555.547    483.772    486.006    483.772
 87.070    537.736    568.095    -30.359    483.617    565.762    483.617    485.873    483.617
 87.170    602.000    578.456     23.544    483.460    576.090    483.460    485.739    483.460
 87.270    636.745    588.310     48.435    483.300    585.912    483.300    485.604    483.300
 87.370    576.000    596.922    -20.922    483.140    594.492    483.140    485.469    483.140
 87.470    640.000    603.517     36.483    482.977    601.057    482.977    485.333    482.977
 87.570    619.000    607.432     11.568    482.813    604.943    482.813    485.197    482.813
 87.670    635.000    608.282     26.718    482.646    605.769    482.646    485.060    482.646
 87.770    621.000    606.085     14.915    482.479    603.548    482.479    484.923    482.479
 87.870    646.206    601.245     44.960    482.309    598.686    482.309    484.786    482.309
 87.970    578.148    594.443    -16.296    482.138    591.862    482.138    484.648    482.138
 88.070    617.000    586.484     30.516    481.964    583.879    481.964    484.510    481.964
 88.170    613.379    578.185     35.195    481.789    575.555    481.789    484.372    481.789
 88.270    639.000    570.304     68.696    481.613    567.647    481.613    484.235    481.613
 88.370    555.000    563.490     -8.490    481.434    560.803    481.434    484.097    481.434
 88.470    595.995    558.246     37.748    481.254    555.527    481.254    483.960    481.254
 88.570    568.000    554.909     13.091    481.072    552.153    481.072    483.823    481.072
 88.670    530.547    553.637    -23.090    480.889    550.843    480.889    483.687    480.889
 88.770    615.000    554.413     60.587    480.704    551.577    480.704    483.552    480.704
 88.870    598.000    557.051     40.949    480.517    554.171    480.517    483.418    480.517
 88.970    537.000    561.213    -24.213    480.328    558.285    480.328    483.285    480.328
 89.070    543.000    566.423    -23.423    480.137    563.444    480.137    483.153    480.137
 89.170    572.947    572.094      0.852    479.945    569.060    479.945    483.023    479.945
 89.270    601.000    577.556     23.444    479.751    574.463    479.751    482.895    479.751
 89.370    614.000    582.100     31.900    479.556    578.943    479.556    482.770    479.556
 89.470    620.000    585.060     34.940    479.359    581.833    479.359    482.647    479.359
 89.570    573.505    585.924    -12.419    479.160    582.621    479.160    482.527    479.160
 89.670    618.000    584.450     33.550    478.959    581.064    478.959    482.411    478.959
 89.770    602.788    580.720     22.067    478.757    577.244    478.757    482.299    478.757
 89.870    531.963    575.093    -43.131    478.553    571.518    478.553    482.192    478.553
 89.970    552.000    568.092    -16.092    478.348    564.408    478.348    482.089    478.348
 90.070    553.000    560.282     -7.282    478.141    556.483    478.141    481.993    478.141
 90.170    547.000    552.195     -5.195    477.932    548.271    477.932    481.903    477.932
 90.270    535.000    544.280     -9.280    477.721    540.221    477.721    481.820    477.721
 90.370    534.426    536.886     -2.460    477.509    532.684    477.509    481.745    477.509
 90.470    480.000    530.263    -50.263    477.296    525.907    477.296    481.680    477.296
 90.570    525.000    524.560      0.440    477.080    520.039    477.080    481.624    477.080
 90.670    479.000    519.840    -40.840    476.863    515.143    476.863    481.578    476.863
 90.770    509.000    516.098     -7.098    476.645    511.212    476.645    481.545    476.645
 90.870    472.000    513.276    -41.276    476.425    508.187    476.425    481.524    476.425
 90.970    480.000    511.289    -31.289    476.203    505.982    476.203    481.517    476.203
 91.070    502.000    510.043     -8.043    475.980    504.504    475.980    481.524    475.980
 91.170    499.116    509.453    -10.337    475.755    503.664    475.755    481.548    475.755
 91.270    522.000    509.456     12.544    475.529    503.398    475.529    481.588    475.529
 91.370    495.909    510.019    -14.110    475.301    503.673    475.301    481.647    475.301
 91.470    529.868    511.147     18.721    475.072    504.494    475.072    481.724    475.072
 91.570    510.000    512.886     -2.886    474.841    505.903    474.841    481.821    474.841
 91.670    490.000    515.320    -25.320    474.608    507.985    474.608    481.939    474.608
 91.770    489.000    518.572    -29.572    474.374    510.862    474.374    482.078    474.374
 91.870    527.000    522.793      4.207    474.139    514.686    474.139    482.238    474.139
 91.970    479.000    528.146    -49.146    473.902    519.617    473.902    482.420    473.902
 92.070    522.308    534.838    -12.530    473.664    525.864    473.664    482.623    473.664
 92.170    498.000    543.051    -45.051    473.424    533.609    473.424    482.847    473.424
 92.270    547.358    552.927     -5.569    473.183    542.997    473.183    483.090    473.183
 92.370    571.000    564.573      6.427    472.940    554.134    472.940    483.350    472.940
 92.470    517.000    578.026    -61.026    472.696    567.063    472.696    483.625    472.696
 92.570    605.000    593.238     11.762    472.450    581.739    472.450    483.909    472.450
 92.670    606.000    610.056     -4.056    472.203    598.016    472.203    484.198    472.203
 92.770    600.000    628.210    -28.210    471.955    615.629    471.955    484.484    471.955
 92.870    690.000    647.304     42.696    471.705    634.190    471.705    484.761    471.705
 92.970    649.000    666.820    -17.820    471.454    653.193    471.454    485.018    471.454
 93.070    672.000    686.147    -14.147    471.201    672.037    471.201    485.244    471.201
 93.170    726.000    704.658     21.342    470.947    690.106    470.947    485.429    470.947
 93.270    677.687    721.816    -44.129    470.692    706.876    470.692    485.561    470.692
 93.370    767.000    737.291     29.709    470.436    722.028    470.436    485.628    470.436
 93.470    746.599    751.022     -4.424    470.178    735.509    470.178    485.621    470.178
 93.570    752.000    763.176    -11.176    469.919    747.495    469.919    485.532    469.919
 93.670    716.000    774.036    -58.036    469.658    758.272    469.658    485.356    469.658
 93.770    798.000    783.889     14.111    469.397    768.130    469.397    485.093    469.397
 93.870    827.178    792.967     34.210    469.134    777.296    469.134    484.744    469.134
 93.970    799.000    801.470     -2.470    468.869    785.966    468.869    484.316    468.869
 94.070    871.000    809.631     61.369    468.604    794.365    468.604    483.816    468.604
 94.170    851.000    817.746     33.254    468.337    802.777    468.337    483.256    468.337
 94.270    879.569    826.115     53.454    468.069    811.491    468.069    482.647    468.069
 94.370    862.000    834.922     27.078    467.800    820.680    467.800    482.000    467.800
 94.470    865.000    844.091     20.909    467.530    830.255    467.530    481.328    467.530
 94.570    900.025    853.194     46.831    467.259    839.779    467.259    480.640    467.259
 94.670    945.000    861.434     83.566    466.986    848.447    466.986    479.946    466.986
 94.770    897.000    867.716     29.284    466.713    855.153    466.713    479.254    466.713
 94.870    942.000    870.784     71.216    466.438    858.638    466.438    478.571    466.438
 94.970    952.000    869.455     82.545    466.162    857.710    466.162    477.902    466.162
 95.070    811.845    862.891    -51.046    465.885    851.529    465.885    477.250    465.885
 95.170    883.641    850.847     32.794    465.607    839.844    465.607    476.620    465.607
 95.270    892.000    833.778     58.222    465.328    823.110    465.328    476.012    465.328
 95.370    896.000    812.756     83.244    465.048    802.395    465.048    475.429    465.048
 95.470    832.000    789.259     42.741    464.767    779.176    464.767    474.872    464.767
 95.570    774.000    764.914      9.086    464.485    755.081    464.485    474.341    464.485
 95.670    721.000    741.540    -20.540    464.202    731.928    464.202    473.836    464.202
 95.770    682.376    720.731    -38.355    463.917    711.311    463.917    473.357    463.917
 95.870    719.675    703.984     15.691    463.632    694.728    463.632    472.904    463.632
 95.970    722.000    692.640     29.360    463.346    683.521    463.346    472.477    463.346
 96.070    730.045    687.875     42.170    463.060    678.865    463.060    472.075    463.060
 96.170    668.556    690.659    -22.102    462.772    681.730    462.772    471.699    462.772
 96.270    706.000    701.750      4.250    462.483    692.879    462.483    471.346    462.483
 96.370    711.000    721.696    -10.696    462.194    712.856    462.194    471.019    462.194
 96.470    779.000    750.801     28.199    461.903    741.967    461.903    470.715    461.903
 96.570    804.000    789.095     14.905    461.612    780.243    461.612    470.435    461.612
 96.670    784.530    836.284    -51.754    461.320    827.390    461.320    470.179    461.320
 96.770    928.696    891.686     37.009    461.028    882.726    461.028    469.947    461.028
 96.870    930.000    954.175    -24.175    460.734    945.125    460.734    469.739    460.734
 96.970   1059.191   1022.123     37.069    460.440   1012.960    460.440    469.555    460.440
 97.070   1047.000   1093.370    -46.370    460.145   1084.071    460.145    469.396    460.145
 97.170   1103.000   1165.211    -62.211    459.849   1155.751    459.849    469.264    459.849
 97.270   1237.573   1234.421      3.152    459.553   1224.776    459.553    469.158    459.553
 97.370   1316.000   1297.360     18.640    459.256   1287.505    459.256    469.081    459.256
 97.470   1395.000   1350.198     44.802    458.958   1340.106    458.958    469.033    458.958
 97.570   1350.000   1389.322    -39.322    458.660   1378.964    458.660    469.016    458.660
 97.670   1407.000   1411.887     -4.887    458.361   1401.231    458.361    469.033    458.361
 97.770   1384.329   1416.365    -32.036    458.061   1405.377    458.061    469.085    458.061
 97.870   1354.375   1402.861    -48.486    457.761   1391.501    457.761    469.175    457.761
 97.970   1344.000   1373.033    -29.033    457.461   1361.258    457.461    469.306    457.461
 98.070   1332.260   1329.695      2.565    457.160   1317.458    457.160    469.481    457.160
 98.170   1263.000   1276.302    -13.302    456.858   1263.550    456.858    469.702    456.858
 98.270   1285.000   1216.500     68.500    456.556   1203.179    456.556    469.973    456.556
 98.370   1167.000   1153.834     13.166    456.254   1139.887    456.254    470.298    456.254
 98.470   1093.000   1091.572      1.428    455.951   1076.937    455.951    470.680    455.951
 98.570    974.000   1032.622    -58.622    455.648   1017.235    455.648    471.123    455.648
 98.670   1040.017    979.497     60.520    455.344    963.291    455.344    471.631    455.344
 98.770    941.500    934.321      7.179    455.040    917.225    455.040    472.207    455.040
 98.870    909.000    898.837     10.163    454.735    880.779    454.735    472.856    454.735
 98.970    856.000    874.425    -18.425    454.431    855.329    454.431    473.580    454.431
 99.070    841.000    862.110    -21.110    454.126    841.895    454.126    474.384    454.126
 99.170    860.000    862.667     -2.667    453.821    841.254    453.821    475.270    453.821
 99.270    843.474    876.517    -33.043    453.515    853.821    453.515    476.240    453.515
 99.370    918.000    903.820     14.180    453.210    879.757    453.210    477.298    453.210
 99.470    947.000    944.462      2.538    452.904    918.945    452.904    478.443    452.904
 99.570   1014.000    998.027     15.973    452.598    970.972    452.598    479.676    452.598
 99.670   1053.000   1063.769    -10.769    452.292   1035.090    452.292    480.997    452.292
 99.770   1103.000   1140.554    -37.554    451.985   1110.170    451.985    482.402    451.985
 99.870   1172.430   1226.814    -54.384    451.679   1194.649    451.679    483.887    451.679
 99.970   1278.294   1320.492    -42.197    451.373   1286.477    451.373    485.446    451.373
100.070   1465.537   1419.016     46.521    451.066   1383.091    451.066    487.068    451.066
100.170   1577.697   1519.315     58.382    450.760   1481.433    450.760    488.741    450.760
100.270   1627.000   1617.915      9.085    450.454   1578.045    450.454    490.448    450.454
100.370   1797.000   1711.145     85.855    450.147   1669.278    450.147    492.167    450.147
100.470   1759.848   1795.440    -35.591    449.841   1751.592    449.841    493.872    449.841
100.570   1908.177   1867.649     40.528    449.535   1821.865    449.535    495.532    449.535
100.670   1918.000   1925.247     -7.247    449.229   1877.606    449.229    497.112    449.229
100.770   1977.000   1966.354     10.646    448.923   1916.974    448.923    498.572    448.923
100.870   2030.000   1989.643     40.357    448.618   1938.684    448.618    499.869    448.618
100.970   1979.000   1994.266    -15.266    448.312   1941.929    448.312    500.960    448.312
101.070   2017.000   1979.954     37.046    448.007   1926.481    448.007    501.803    448.007
101.170   1868.199   1947.285    -79.087    447.702   1892.956    447.702    502.362    447.702
101.270   1833.000   1897.969    -64.969    447.398   1843.091    447.398    502.606    447.398
101.370   1843.000   1834.910      8.090    447.094   1779.811    447.094    502.517    447.094
101.470   1730.000   1761.949    -31.949    446.790   1706.964    446.790    502.088    446.790
101.570   1666.000   1683.366    -17.366    446.486   1628.827    446.486    501.323    446.486
101.670   1541.000   1603.346    -62.346    446.183   1549.567    446.183    500.242    446.183
101.770   1572.000   1525.567     46.433    445.881   1472.836    445.881    498.871    445.881
101.870   1506.577   1452.930     53.647    445.579   1401.500    445.579    497.248    445.579
101.970   1451.000   1387.478     63.522    445.277   1337.561    445.277    495.413    445.277
102.070   1342.000   1330.377     11.623    444.976   1282.144    444.976    493.409    444.976
102.170   1271.000   1281.961    -10.961    444.676   1235.540    444.676    491.280    444.676
102.270   1225.000   1241.799    -16.799    444.376   1197.279    444.376    489.065    444.376
102.370   1291.000   1208.790     82.210    444.077   1166.223    444.077    486.802    444.077
102.470   1239.939   1181.288     58.651    443.779   1140.695    443.779    484.521    443.779
102.570   1212.403   1157.275     55.128    443.481   1118.649    443.481    482.251    443.481
102.670   1178.725   1134.584     44.141    443.184   1097.897    443.184    480.012    443.184
102.770   1143.000   1111.177     31.823    442.888   1076.381    442.888    477.822    442.888
102.870   1058.795   1085.418    -26.622    442.592   1052.451    442.592    475.695    442.592
102.970   1073.078   1056.281     16.797    442.298   1025.072    442.298    473.641    442.298
103.070   1017.010   1023.427     -6.417    442.004    993.895    442.004    471.667    442.004
103.170    984.911    987.112     -2.200    441.711    959.171    441.711    469.778    441.711
103.270    926.000    948.083    -22.083    441.420    921.646    441.420    467.977    441.420
103.370    929.000    907.291     21.709    441.129    882.268    441.129    466.265    441.129
103.470    853.000    865.769    -12.769    440.839    842.071    440.839    464.642    440.839
103.570    784.981    824.526    -39.545    440.550    802.066    440.550    463.107    440.550
103.670    795.000    784.474     10.526    440.263    763.166    440.263    461.658    440.263
103.770    745.542    746.389     -0.847    439.976    726.151    439.976    460.293    439.976
103.870    715.000    710.891      4.109    439.691    691.642    439.691    459.009    439.691
103.970    725.365    678.429     46.936    439.406    660.094    439.406    457.802    439.406
104.070    624.788    649.285    -24.497    439.123    631.792    439.123    456.669    439.123
104.170    624.382    623.582      0.800    438.842    606.862    438.842    455.606    438.842
104.270    637.000    601.302     35.698    438.561    585.292    438.561    454.609    438.561
104.370    626.966    582.313     44.653    438.282    566.952    438.282    453.675    438.282
104.470    522.584    566.394    -43.810    438.005    551.626    438.005    452.799    438.005
104.570    517.986    553.267    -35.281    437.728    539.040    437.728    451.978    437.728
104.670    533.745    542.628     -8.883    437.453    528.891    437.453    451.208    437.453
104.770    572.620    534.165     38.455    437.180    520.874    437.180    450.485    437.180
104.870    557.101    527.584     29.516    436.908    514.697    436.908    449.807    436.908
104.970    502.063    522.622    -20.559    436.638    510.099    436.638    449.169    436.638
105.070    513.000    519.052     -6.052    436.369    506.858    436.369    448.570    436.369
105.170    506.951    516.697     -9.746    436.103    504.797    436.103    448.006    436.103
105.270    613.000    515.421     97.579    435.837    503.785    435.837    447.475    435.837
105.370    478.000    515.135    -37.135    435.574    503.735    435.574    446.974    435.574
105.470    486.074    515.791    -29.717    435.312    504.600    435.312    446.501    435.312
105.570    507.000    517.374    -10.374    435.052    506.368    435.052    446.054    435.052
105.670    557.000    519.901     37.099    434.794    509.057    434.794    445.631    434.794
105.770    481.131    523.411    -42.279    434.537    512.708    434.537    445.231    434.537
105.870    560.000    527.955     32.045    434.283    517.375    434.283    444.853    434.283
105.970    555.000    533.590     21.410    434.031    523.113    434.031    444.494    434.031
106.070    539.000    540.362     -1.362    433.780    529.972    433.780    444.154    433.780
106.170    539.000    548.297     -9.297    433.532    537.977    433.532    443.832    433.532
106.270    555.357    557.386     -2.029    433.286    547.122    433.286    443.527    433.286
106.370    534.000    567.578    -33.578    433.042    557.356    433.042    443.239    433.042
106.470    557.778    578.773    -20.995    432.800    568.579    432.800    442.966    432.800
106.570    565.000    590.813    -25.813    432.560    580.634    432.560    442.708    432.560
106.670    586.483    603.485    -17.002    432.323    593.310    432.323    442.465    432.323
106.770    606.202    616.521    -10.319    432.088    606.337    432.088    442.236    432.088
106.870    610.000    629.600    -19.600    431.855    619.396    431.855    442.021    431.855
106.970    660.193    642.356     17.837    431.624    632.122    431.624    441.820    431.624
107.070    655.000    654.394      0.606    431.396    644.119    431.396    441.633    431.396
107.170    684.547    665.310     19.237    431.171    654.984    431.171    441.459    431.171
107.270    631.647    674.729    -43.082    430.948    664.341    430.948    441.299    430.948
107.370    649.279    682.349    -33.069    430.728    671.890    430.728    441.153    430.728
107.470    708.678    687.993     20.685    430.510    677.452    430.510    441.020    430.510
107.570    689.000    691.646     -2.646    430.295    681.013    430.295    440.901    430.295
107.670    676.000    693.465    -17.465    430.083    682.728    430.083    440.796    430.083
107.770    688.000    693.753     -5.753    429.873    682.901    429.873    440.705    429.873
107.870    647.676    692.910    -45.233    429.666    681.932    429.666    440.629    429.666
107.970    645.000    691.372    -46.372    429.462    680.257    429.462    440.568    429.462
108.070    648.000    689.558    -41.558    429.261    678.291    429.261    440.522    429.261
108.170    639.000    687.821    -48.821    429.063    676.391    429.063    440.492    429.063
108.270    698.000    686.430     11.570    428.868    674.823    428.868    440.478    428.868
108.370    703.000    685.545     17.455    428.676    673.747    428.676    440.482    428.676
108.470    689.000    685.217      3.783    428.487    673.213    428.487    440.502    428.487
108.570    648.000    685.385    -37.385    428.301    673.160    428.301    440.542    428.301
108.670    694.000    685.873      8.127    428.118    673.411    428.118    440.600    428.118
108.770    689.000    686.408      2.592    427.939    673.692    427.939    440.679    427.939
108.870    664.000    686.642    -22.642    427.763    673.653    427.763    440.778    427.763
108.970    661.000    686.183    -25.183    427.590    672.903    427.590    440.900    427.590
109.070    704.468    684.645     19.823    427.421    671.053    427.421    441.046    427.421
109.170    676.000    681.701     -5.701    427.255    667.774    427.255    441.217    427.255
109.270    729.000    677.132     51.868    427.092    662.847    427.092    441.414    427.092
109.370    658.233    670.855    -12.622    426.933    656.188    426.933    441.639    426.933
109.470    658.000    662.962     -4.962    426.778    647.884    426.778    441.894    426.778
109.570    635.302    653.649    -18.347    426.626    638.132    426.626    442.181    426.626
109.670    643.000    643.206     -0.206    426.478    627.219    426.478    442.502    426.478
109.770    679.000    631.971     47.029    426.333    615.481    426.333    442.859    426.333
109.870    596.217    620.292    -24.075    426.193    603.264    426.193    443.255    426.193
109.970    591.000    608.505    -17.505    426.056    590.901    426.056    443.693    426.056
110.070    589.000    596.915     -7.915    425.923    578.694    425.923    444.174    425.923
110.170    618.000    585.786     32.214    425.795    566.905    425.795    444.703    425.795
110.270    619.000    575.345     43.655    425.670    555.756    425.670    445.282    425.670
110.370    556.000    565.766     -9.766    425.549    545.421    425.549    445.915    425.549
110.470    620.000    557.183     62.817    425.432    536.027    425.432    446.606    425.432
110.570    592.000    549.682     42.318    425.320    527.658    425.320    447.358    425.320
110.670    562.000    543.308     18.692    425.211    520.356    425.211    448.176    425.211
110.770    528.000    538.072    -10.072    425.107    514.126    425.107    449.064    425.107
110.870    578.859    533.949     44.910    425.008    508.940    425.008    450.025    425.008
110.970    552.074    530.894     21.180    424.912    504.747    424.912    451.065    424.912
111.070    495.000    528.838    -33.838    424.822    501.476    424.822    452.188    424.822
111.170    575.000    527.703     47.297    424.735    499.042    424.735    453.399    424.735
111.270    512.000    527.404    -15.404    424.653    497.356    424.653    454.703    424.653
111.370    530.369    527.855      2.514    424.576    496.327    424.576    456.104    424.576
111.470    561.000    528.970     32.030    424.504    495.865    424.504    457.608    424.504
111.570    565.122    530.671     34.452    424.436    495.886    424.436    459.218    424.436
111.670    518.256    532.886    -14.630    424.373    496.315    424.373    460.941    424.373
111.770    522.000    535.553    -13.553    424.315    497.085    424.315    462.780    424.315
111.870    534.108    538.620     -4.512    424.261    498.138    424.261    464.739    424.261
111.970    516.000    542.045    -26.045    424.213    499.430    424.213    466.823    424.213
112.070    568.980    545.797     23.183    424.170    500.927    424.170    469.035    424.170
112.170    534.307    549.858    -15.551    424.132    502.606    424.132    471.378    424.132
112.270    575.488    554.220     21.269    424.098    504.459    424.098    473.854    424.098
112.370    553.000    558.887     -5.887    424.071    506.486    424.071    476.466    424.071
112.470    576.000    563.874     12.126    424.048    508.702    424.048    479.213    424.048
112.570    555.000    569.205    -14.205    424.031    511.133    424.031    482.096    424.031
112.670    566.095    574.915     -8.820    424.019    513.814    424.019    485.114    424.019
112.770    627.228    581.051     46.178    424.012    516.795    424.012    488.262    424.012
112.870    621.988    587.671     34.317    424.011    520.140    424.011    491.536    424.011
112.970    539.000    594.854    -55.854    424.016    523.934    424.016    494.929    424.016
113.070    597.000    602.695     -5.695    424.026    528.282    424.026    498.432    424.026
113.170    606.845    611.323     -4.478    424.042    533.325    424.042    502.032    424.042
113.270    594.000    620.902    -26.902    424.063    539.242    424.063    505.714    424.063
113.370    609.000    631.645    -22.645    424.091    546.265    424.091    509.460    424.091
113.470    599.000    643.828    -44.828    424.124    554.693    424.124    513.247    424.124
113.570    648.678    657.804     -9.126    424.163    564.907    424.163    517.047    424.163
113.670    677.000    674.025      2.975    424.208    577.389    424.208    520.829    424.208
113.770    649.000    693.057    -44.057    424.260    592.741    424.260    524.556    424.260
113.870    697.070    715.603    -18.533    424.317    611.707    424.317    528.188    424.317
113.970    759.000    742.526     16.474    424.381    635.197    424.381    531.681    424.381
114.070    723.000    774.870    -51.870    424.450    664.300    424.450    534.984    424.450
114.170    844.876    813.872     31.004    424.527    700.305    424.527    538.049    424.527
114.270    878.237    860.975     17.261    424.609    744.707    424.609    540.823    424.609
114.370    863.000    917.834    -54.834    424.698    799.210    424.698    543.256    424.698
114.470    988.314    986.300      2.014    424.794    865.712    424.794    545.301    424.794
114.570   1047.000   1068.396    -21.396    424.896    946.278    424.896    546.916    424.896
114.670   1188.496   1166.257     22.240    425.005   1043.077    425.005    548.067    425.005
114.770   1321.892   1282.137     39.755    425.120   1158.389    425.120    548.729    425.120
114.870   1416.000   1418.279     -2.279    425.243   1294.469    425.243    548.890    425.243
114.970   1598.059   1576.754     21.305    425.372   1453.389    425.372    548.548    425.372
115.070   1840.000   1759.410     80.590    425.508   1636.987    425.508    547.715    425.508
115.170   1990.000   1967.717     22.283    425.651   1846.711    425.651    546.412    425.651
115.270   2144.751   2202.611    -57.860    425.801   2083.466    425.801    544.674    425.801
115.370   2536.000   2464.348     71.652    425.958   2347.468    425.958    542.540    425.958
115.470   2770.000   2752.355     17.645    426.123   2638.099    426.123    540.056    426.123
115.570   3002.463   3065.106    -62.643    426.295   2953.782    426.295    537.274    426.295
115.670   3485.089   3400.018     85.071    426.474   3291.888    426.474    534.244    426.474
115.770   3661.248   3753.385    -92.137    426.660   3648.658    426.660    531.018    426.660
115.870   4042.312   4120.348    -78.036    426.854   4019.188    426.854    527.645    426.854
115.970   4461.000   4494.906    -33.906    427.056   4397.431    427.056    524.171    427.056
116.070   4775.133   4869.977    -94.844    427.265   4776.266    427.265    520.636    427.265
116.170   5212.000   5237.503    -25.503    427.482   5147.597    427.482    517.079    427.482
116.270   5468.000   5588.614   -120.614    427.707   5502.524    427.707    513.532    427.707
116.370   5990.000   5913.863     76.137    427.939   5831.572    427.939    510.023    427.939
116.470   6181.000   6203.554    -22.554    428.180   6125.020    428.180    506.575    428.180
116.570   6526.000   6448.187     77.813    428.428   6373.350    428.428    503.209    428.428
116.670   6630.000   6639.037     -9.037    428.685   6567.815    428.685    499.940    428.685
116.770   6692.000   6768.810    -76.810    428.950   6701.110    428.950    496.781    428.950
116.870   6752.573   6832.330    -79.756    429.223   6768.042    429.223    493.743    429.223
116.970   6980.527   6827.080    153.448    429.504   6766.084    429.504    490.832    429.504
117.070   6687.261   6753.493    -66.232    429.793   6695.659    429.793    488.054    429.793
117.170   6598.000   6614.888    -16.888    430.091   6560.078    430.091    485.413    430.091
117.270   6567.099   6417.088    150.011    430.398   6365.158    430.398    482.911    430.398
117.370   6152.000   6167.806    -15.806    430.713   6118.610    430.713    480.548    430.713
117.470   5918.050   5875.961     42.089    431.037   5829.354    431.037    478.323    431.037
117.570   5423.000   5551.038   -128.038    431.369   5506.874    431.369    476.236    431.369
117.670   5176.280   5202.553    -26.273    431.711   5160.690    431.711    474.285    431.711
117.770   4763.000   4839.648    -76.648    432.061   4799.949    432.061    472.466    432.061
117.870   4541.000   4470.801     70.199    432.420   4433.131    432.420    470.776    432.420
117.970   4108.000   4103.615      4.385    432.789   4067.848    432.789    469.212    432.789
118.070   3848.000   3744.681    103.319    433.166   3710.695    433.166    467.769    433.166
118.170   3488.000   3399.499     88.501    433.553   3367.180    433.553    466.443    433.553
118.270   3169.334   3072.448     96.886    433.949   3041.688    433.949    465.230    433.949
118.370   2788.000   2766.802     21.198    434.354   2737.500    434.354    464.125    434.354
118.470   2388.879   2484.789    -95.909    434.769   2456.850    434.769    463.123    434.769
118.570   2249.000   2227.682     21.318    435.193   2201.018    435.193    462.220    435.193
118.670   1962.328   1995.910    -33.582    435.627   1970.439    435.627    461.411    435.627
118.770   1735.000   1789.186    -54.186    436.071   1764.831    436.071    460.692    436.071
118.870   1589.000   1606.633    -17.633    436.524   1583.323    436.524    460.057    436.524
118.970   1454.000   1446.919      7.081    436.987   1424.586    436.987    459.504    436.987
119.070   1294.000   1308.379    -14.379    437.461   1286.963    437.461    459.026    437.461
119.170   1155.000   1189.140    -34.140    437.944   1168.583    437.944    458.621    437.944
119.270   1123.000   1087.220     35.780    438.437   1067.469    438.437    458.284    438.437
119.370   1013.624   1000.627     12.997    438.941    981.630    438.941    458.012    438.941
119.470    886.373    927.424    -41.051    439.455    909.135    439.455    457.801    439.455
119.570    869.467    865.791      3.676    439.979    848.167    439.979    457.647    439.979
119.670    824.000    814.060      9.940    440.513    797.058    440.513    457.549    440.513
119.770    754.000    770.734    -16.734    441.058    754.317    441.058    457.502    441.058
119.870    759.000    734.500     24.500    441.614    718.631    441.614    457.504    441.614
119.970    676.000    704.223    -28.223    442.181    688.867    442.181    457.553    442.181
120.070    713.785    678.936     34.849    442.758    664.062    442.758    457.646    442.758
120.170    646.000    657.829    -11.829    443.346    643.407    443.346    457.780    443.346
120.270    658.000    640.231     17.769    443.945    626.231    443.945    457.955    443.945
120.370    616.000    625.586     -9.586    444.555    611.984    444.555    458.167    444.555
120.470    654.068    613.445     40.623    445.176    600.215    445.176    458.416    445.176
120.570    631.000    603.442     27.558    445.809    590.561    445.809    458.699    445.809
120.670    575.000    595.282    -20.282    446.453    582.728    446.453    459.016    446.453
120.770    607.346    588.725     18.621    447.108    576.479    447.108    459.364    447.108
120.870    565.000    583.580    -18.580    447.774    571.622    447.774    459.743    447.774
120.970    565.000    579.690    -14.690    448.453    568.002    448.453    460.152    448.453
121.070    572.000    576.928     -4.928    449.143    565.493    449.143    460.589    449.143
121.170    563.000    575.186    -12.186    449.844    563.989    449.844    461.054    449.844
121.270    601.309    574.375     26.934    450.558    563.401    450.558    461.545    450.558
121.370    619.580    574.415     45.165    451.283    563.651    451.283    462.062    451.283
121.470    542.000    575.234    -33.234    452.020    564.667    452.020    462.604    452.020
121.570    536.227    576.763    -40.536    452.770    566.381    452.770    463.170    452.770
121.670    593.000    578.934     14.066    453.532    568.727    453.532    463.760    453.532
121.770    568.000    581.680    -13.680    454.306    571.636    454.306    464.372    454.306
121.870    548.845    584.927    -36.081    455.092    575.037    455.092    465.007    455.092
121.970    561.097    588.597    -27.499    455.891    578.852    455.891    465.663    455.891
122.070    635.000    592.601     42.399    456.702    582.994    456.702    466.340    456.702
122.170    578.000    596.830    -18.830    457.527    587.353    457.527    467.036    457.527
122.270    616.000    601.247     14.753    458.363    591.894    458.363    467.752    458.363
122.370    598.903    605.722     -6.819    459.213    596.488    459.213    468.487    459.213
122.470    655.000    610.144     44.856    460.076    601.024    460.076    469.239    460.076
122.570    589.000    614.402    -25.402    460.952    605.391    460.952    470.008    460.952
122.670    642.000    618.383     23.617    461.841    609.478    461.841    470.794    461.841
122.770    595.186    621.976    -26.790    462.743    613.174    462.743    471.595    462.743
122.870    639.000    625.076     13.924    463.658    616.376    463.658    472.410    463.658
122.970    666.995    627.591     39.404    464.587    618.992    464.587    473.240    464.587
123.070    622.349    629.445     -7.096    465.529    620.948    465.529    474.083    465.529
123.170    602.000    630.586    -28.586    466.485    622.191    466.485    474.939    466.485
123.270    636.301    630.987      5.314    467.455    622.695    467.455    475.806    467.455
123.370    657.000    630.646     26.354    468.439    622.459    468.439    476.685    468.439
123.470    664.000    629.588     34.412    469.436    621.507    469.436    477.575    469.436
123.570    657.000    627.856     29.144    470.448    619.886    470.448    478.475    470.448
123.670    607.000    625.514    -18.514    471.473    617.657    471.473    479.387    471.473
123.770    627.000    622.633      4.367    472.513    614.892    472.513    480.308    472.513
123.870    650.933    619.292     31.641    473.567    611.671    473.567    481.240    473.567
123.970    664.000    615.574     48.426    474.636    608.075    474.636    482.183    474.636
124.070    625.457    611.560     13.897    475.719    604.187    475.719    483.138    475.719
124.170    632.000    607.328     24.672    476.817    600.084    476.817    484.103    476.817
124.270    600.000    602.953     -2.953    477.929    595.841    477.929    485.081    477.929
124.370    603.000    598.505      4.495    479.056    591.527    479.056    486.071    479.056
124.470    580.377    594.045    -13.667    480.198    587.202    480.198    487.074    480.198
124.570    577.000    589.627    -12.627    481.356    582.920    481.356    488.092    481.356
124.670    602.883    585.297     17.586    482.528    578.728    482.528    489.123    482.528
124.770    561.000    581.094    -20.094    483.715    574.664    483.715    490.170    483.715
124.870    595.000    577.050     17.950    484.918    570.757    484.918    491.232    484.918
124.970    536.488    573.187    -36.699    486.136    567.032    486.136    492.310    486.136
