neutron_powder_diffraction_0073
R_wp: 4.813
Temperature (K): 760.582
Counts: 83250.00
Wavelength (Ã…): 2.52098
COMMENTS
Test file for demonstrating the .xyy file format in Reel1.0
END OF HEADER
   tth       Y_obs     Y_calc      Y_res    Background    Phase_1_Nuc    Phase_1_Mag    Phase_2_Nuc    Phase_2_Mag
  9.970    586.586    608.125    -21.538    607.173    608.124    607.173    607.173    607.173
 10.070    586.784    608.968    -22.184    607.941    608.968    607.941    607.941    607.941
 10.170    642.000    609.808     32.192    608.696    609.807    608.696    608.696    608.696
 10.270    670.000    610.652     59.348    609.436    610.652    609.436    609.436    609.436
 10.370    601.211    611.566    -10.355    610.162    611.565    610.162    610.162    610.162
 10.470    646.000    612.504     33.496    610.874    612.503    610.874    610.874    610.874
 10.570    703.000    613.366     89.634    611.573    613.365    611.573    611.573    611.573
 10.670    623.940    614.234      9.706    612.258    614.233    612.258    612.258    612.258
 10.770    667.000    615.125     51.875    612.929    615.124    612.929    612.929    612.929
 10.870    611.135    616.048     -4.913    613.587    616.047    613.587    613.587    613.587
 10.970    667.948    617.018     50.930    614.231    617.017    614.231    614.231    614.231
 11.070    668.000    618.054     49.946    614.862    618.053    614.862    614.862    614.862
 11.170    658.030    619.186     38.844    615.480    619.184    615.480    615.480    615.480
 11.270    678.000    620.453     57.547    616.085    620.451    616.085    616.085    616.085
 11.370    642.000    621.920     20.080    616.677    621.917    616.677    616.677    616.677
 11.470    653.886    623.716     30.170    617.256    623.713    617.256    617.256    617.256
 11.570    601.988    626.145    -24.157    617.822    626.140    617.822    617.822    617.822
 11.670    675.000    629.998     45.002    618.375    629.991    618.375    618.375    618.375
 11.770    685.000    637.137     47.863    618.916    637.127    618.916    618.916    618.916
 11.870    600.422    650.927    -50.505    619.445    650.910    619.445    619.445    619.445
 11.970    758.000    675.252     82.748    619.961    675.221    619.961    619.961    619.961
 12.070    680.726    710.874    -30.147    620.465    710.823    620.465    620.465    620.465
 12.170    791.000    749.654     41.346    620.956    749.581    620.956    620.956    620.956
 12.270    763.340    771.374     -8.034    621.436    771.290    621.436    621.436    621.436
 12.370    811.000    759.581     51.419    621.903    759.503    621.903    621.903    621.903
 12.470    711.000    724.761    -13.761    622.359    724.704    622.359    622.359    622.359
 12.570    732.152    688.033     44.120    622.803    687.996    622.803    622.803    622.803
 12.670    664.000    661.087      2.913    623.235    661.066    623.235    623.235    623.235
 12.770    617.000    645.327    -28.327    623.655    645.315    623.655    623.655    623.655
 12.870    666.120    637.417     28.703    624.064    637.410    624.064    624.064    624.064
 12.970    649.748    633.695     16.054    624.462    633.690    624.462    624.462    624.462
 13.070    588.524    631.867    -43.342    624.848    631.863    624.848    624.848    624.848
 13.170    596.593    630.861    -34.269    625.223    630.858    625.223    625.223    625.223
 13.270    637.000    630.261      6.739    625.587    630.259    625.587    625.587    625.587
 13.370    627.000    629.898     -2.898    625.940    629.896    625.940    625.940    625.940
 13.470    604.000    629.690    -25.690    626.282    629.689    626.282    626.282    626.282
 13.570    596.000    629.590    -33.590    626.613    629.589    626.613    626.613    626.613
 13.670    644.000    629.567     14.433    626.933    629.566    626.933    626.933    626.933
 13.770    660.375    629.599     30.776    627.242    629.597    627.242    627.242    627.242
 13.870    678.151    629.672     48.479    627.541    629.671    627.541    627.541    627.541
 13.970    601.525    629.797    -28.272    627.830    629.796    627.830    627.830    627.830
 14.070    600.000    629.921    -29.921    628.108    629.920    628.108    628.108    628.108
 14.170    597.000    630.055    -33.055    628.376    630.055    628.376    628.376    628.376
 14.270    586.000    630.199    -44.199    628.633    630.198    628.633    628.633    628.633
 14.370    589.000    630.349    -41.349    628.881    630.349    628.881    628.881    628.881
 14.470    595.472    630.504    -35.032    629.118    630.504    629.118    629.118    629.118
 14.570    627.000    630.663     -3.663    629.345    630.662    629.345    629.345    629.345
 14.670    613.000    630.817    -17.817    629.563    630.816    629.563    629.563    629.563
 14.770    621.889    630.969     -9.080    629.771    630.969    629.771    629.771    629.771
 14.870    565.000    631.118    -66.118    629.969    631.118    629.969    629.969    629.969
 14.970    602.000    631.264    -29.264    630.157    631.263    630.157    630.157    630.157
 15.070    655.168    631.405     23.763    630.336    631.404    630.336    630.336    630.336
 15.170    568.000    631.540    -63.540    630.506    631.540    630.506    630.506    630.506
 15.270    602.000    631.674    -29.674    630.666    631.673    630.666    630.666    630.666
 15.370    589.318    631.834    -42.516    630.817    631.833    630.817    630.817    630.817
 15.470    617.000    632.000    -15.000    630.958    631.999    630.958    630.958    630.958
 15.570    668.809    632.120     36.690    631.091    632.119    631.091    631.091    631.091
 15.670    641.320    632.264      9.056    631.215    632.264    631.215    631.215    631.215
 15.770    628.000    632.394     -4.394    631.329    632.394    631.329    631.329    631.329
 15.870    684.985    632.489     52.496    631.435    632.489    631.435    631.435    631.435
 15.970    634.407    632.574      1.834    631.532    632.573    631.532    631.532    631.532
 16.070    655.000    632.651     22.349    631.620    632.651    631.620    631.620    631.620
 16.170    576.089    632.721    -56.633    631.700    632.721    631.700    631.700    631.700
 16.270    659.106    632.785     26.322    631.771    632.785    631.771    631.771    631.771
 16.370    588.000    632.844    -44.844    631.834    632.844    631.834    631.834    631.834
 16.470    620.974    632.899    -11.925    631.889    632.899    631.889    631.889    631.889
 16.570    589.283    632.941    -43.657    631.935    632.940    631.935    631.935    631.935
 16.670    558.000    632.975    -74.975    631.973    632.975    631.973    631.973    631.973
 16.770    669.352    633.011     36.341    632.003    633.011    632.003    632.003    632.003
 16.870    604.000    633.036    -29.036    632.024    633.036    632.024    632.024    632.024
 16.970    606.000    633.049    -27.049    632.038    633.049    632.038    632.038    632.038
 17.070    593.000    633.054    -40.054    632.044    633.054    632.044    632.044    632.044
 17.170    566.000    633.052    -67.052    632.042    633.052    632.042    632.042    632.042
 17.270    644.000    633.042     10.958    632.033    633.042    632.033    632.033    632.033
 17.370    565.000    633.026    -68.026    632.016    633.026    632.016    632.016    632.016
 17.470    592.073    633.003    -40.930    631.991    633.003    631.991    631.991    631.991
 17.570    588.000    632.979    -44.979    631.959    632.979    631.959    631.959    631.959
 17.670    543.000    632.977    -89.977    631.919    632.977    631.919    631.919    631.919
 17.770    597.000    632.940    -35.940    631.872    632.940    631.872    631.872    631.872
 17.870    644.000    632.914     11.086    631.818    632.914    631.818    631.818    631.818
 17.970    591.000    632.900    -41.900    631.756    632.900    631.756    631.756    631.756
 18.070    605.000    632.841    -27.841    631.688    632.841    631.688    631.688    631.688
 18.170    631.392    632.771     -1.380    631.612    632.771    631.612    631.612    631.612
 18.270    576.901    632.703    -55.802    631.530    632.703    631.530    631.530    631.530
 18.370    642.467    632.633      9.834    631.440    632.633    631.440    631.440    631.440
 18.470    610.000    632.545    -22.545    631.344    632.545    631.344    631.344    631.344
 18.570    630.448    632.450     -2.001    631.241    632.450    631.241    631.241    631.241
 18.670    585.000    632.348    -47.348    631.132    632.348    631.132    631.132    631.132
 18.770    603.000    632.244    -29.244    631.015    632.244    631.015    631.015    631.015
 18.870    597.000    632.172    -35.172    630.893    632.171    630.893    630.893    630.893
 18.970    600.000    632.104    -32.104    630.763    632.104    630.763    630.763    630.763
 19.070    590.000    632.007    -42.007    630.628    632.007    630.628    630.628    630.628
 19.170    604.000    631.880    -27.880    630.486    631.880    630.486    630.486    630.486
 19.270    596.000    631.749    -35.749    630.338    631.749    630.338    630.338    630.338
 19.370    632.000    631.607      0.393    630.183    631.607    630.183    630.183    630.183
 19.470    559.000    631.459    -72.459    630.023    631.459    630.023    630.023    630.023
 19.570    599.579    631.310    -31.731    629.857    631.310    629.857    629.857    629.857
 19.670    684.295    631.196     53.099    629.684    631.196    629.684    629.684    629.684
 19.770    689.726    631.037     58.689    629.506    631.037    629.506    629.506    629.506
 19.870    591.000    630.869    -39.869    629.322    630.869    629.322    629.322    629.322
 19.970    614.000    630.698    -16.698    629.132    630.698    629.132    629.132    629.132
 20.070    593.000    630.520    -37.520    628.936    630.520    628.936    628.936    628.936
 20.170    632.250    630.337      1.913    628.735    630.337    628.735    628.735    628.735
 20.270    608.000    630.153    -22.153    628.529    630.153    628.529    628.529    628.529
 20.370    658.629    629.966     28.663    628.316    629.966    628.316    628.316    628.316
 20.470    633.881    629.770      4.112    628.099    629.770    628.099    628.099    628.099
 20.570    586.000    629.567    -43.567    627.876    629.567    627.876    627.876    627.876
 20.670    586.000    629.361    -43.361    627.648    629.361    627.648    627.648    627.648
 20.770    548.000    629.154    -81.154    627.414    629.154    627.414    627.414    627.414
 20.870    619.000    628.942     -9.942    627.176    628.942    627.176    627.176    627.176
 20.970    564.000    628.723    -64.723    626.932    628.723    626.932    626.932    626.932
 21.070    610.078    628.501    -18.423    626.683    628.501    626.683    626.683    626.683
 21.170    585.000    628.277    -43.277    626.430    628.277    626.430    626.430    626.430
 21.270    626.000    628.047     -2.047    626.171    628.047    626.171    626.171    626.171
 21.370    588.000    627.814    -39.814    625.908    627.814    625.908    625.908    625.908
 21.470    617.000    627.578    -10.578    625.639    627.578    625.639    625.639    625.639
 21.570    653.796    627.340     26.457    625.367    627.340    625.367    625.367    625.367
 21.670    635.000    627.099      7.901    625.089    627.099    625.089    625.089    625.089
 21.770    634.000    626.856      7.144    624.807    626.856    624.807    624.807    624.807
 21.870    571.375    626.611    -55.236    624.520    626.611    624.520    624.520    624.520
 21.970    614.332    626.365    -12.034    624.229    626.366    624.229    624.229    624.229
 22.070    679.489    626.117     53.372    623.934    626.117    623.934    623.934    623.934
 22.170    576.000    625.868    -49.868    623.634    625.869    623.634    623.634    623.634
 22.270    568.000    625.620    -57.620    623.330    625.620    623.330    623.330    623.330
 22.370    670.000    625.372     44.628    623.022    625.372    623.022    623.022    623.022
 22.470    573.000    625.125    -52.125    622.709    625.125    622.709    622.709    622.709
 22.570    624.317    624.879     -0.562    622.393    624.879    622.393    622.393    622.393
 22.670    602.000    624.636    -22.636    622.072    624.636    622.072    622.072    622.072
 22.770    612.000    624.397    -12.397    621.748    624.398    621.748    621.748    621.748
 22.870    613.825    624.165    -10.340    621.419    624.165    621.419    621.419    621.419
 22.970    564.491    623.940    -59.449    621.087    623.940    621.087    621.087    621.087
 23.070    550.000    623.724    -73.724    620.751    623.724    620.751    620.751    620.751
 23.170    607.333    623.521    -16.188    620.411    623.521    620.411    620.411    620.411
 23.270    641.000    623.334     17.666    620.067    623.334    620.067    620.067    620.067
 23.370    657.423    623.168     34.254    619.720    623.169    619.720    619.720    619.720
 23.470    617.000    623.030     -6.030    619.369    623.031    619.369    619.369    619.369
 23.570    615.000    622.934     -7.934    619.015    622.934    619.015    619.015    619.015
 23.670    612.285    622.886    -10.600    618.657    622.887    618.657    618.657    618.657
 23.770    607.000    622.897    -15.897    618.296    622.899    618.296    618.296    618.296
 23.870    620.000    622.998     -2.998    617.931    623.000    617.931    617.931    617.931
 23.970    571.533    623.228    -51.695    617.563    623.230    617.563    617.563    617.563
 24.070    650.475    623.658     26.817    617.192    623.661    617.192    617.192    617.192
 24.170    599.000    624.453    -25.453    616.818    624.456    616.818    616.818    616.818
 24.270    609.000    626.017    -17.017    616.441    626.022    616.441    616.441    616.441
 24.370    616.106    629.283    -13.177    616.060    629.290    616.060    616.060    616.060
 24.470    654.000    635.980     18.020    615.677    635.992    615.677    615.677    615.677
 24.570    597.296    648.361    -51.065    615.290    648.382    615.290    615.290    615.290
 24.670    620.135    667.695    -47.560    614.901    667.730    614.901    614.901    614.901
 24.770    654.668    691.430    -36.762    614.508    691.482    614.508    614.508    614.508
 24.870    684.000    710.576    -26.576    614.113    710.642    614.113    614.113    614.113
 24.970    761.000    713.228     47.772    613.715    713.297    613.715    613.715    613.715
 25.070    702.000    696.976      5.024    613.315    697.034    613.315    613.315    613.315
 25.170    717.358    672.548     44.810    612.912    672.588    612.912    612.912    612.912
 25.270    635.577    650.841    -15.264    612.506    650.866    612.506    612.506    612.506
 25.370    691.300    636.002     55.297    612.097    636.016    612.097    612.097    612.097
 25.470    649.000    627.440     21.560    611.686    627.448    611.686    611.686    611.686
 25.570    680.572    622.924     57.648    611.273    622.929    611.273    611.273    611.273
 25.670    625.000    620.495      4.505    610.857    620.498    610.857    610.857    610.857
 25.770    631.000    619.023     11.977    610.439    619.026    610.439    610.439    610.439
 25.870    649.449    618.004     31.445    610.019    618.006    610.019    610.019    610.019
 25.970    681.000    617.235     63.765    609.596    617.237    609.596    609.596    609.596
 26.070    590.024    616.635    -26.611    609.171    616.636    609.171    609.171    609.171
 26.170    628.987    616.164     12.822    608.744    616.165    608.744    608.744    608.744
 26.270    646.758    615.801     30.957    608.314    615.801    608.314    608.314    608.314
 26.370    656.000    615.534     40.466    607.883    615.534    607.883    607.883    607.883
 26.470    551.539    615.359    -63.820    607.450    615.359    607.450    607.450    607.450
 26.570    609.982    615.278     -5.296    607.014    615.278    607.014    607.014    607.014
 26.670    641.000    615.299     25.701    606.577    615.299    606.577    606.577    606.577
 26.770    729.000    615.435    113.565    606.138    615.434    606.138    606.138    606.138
 26.870    702.000    615.706     86.294    605.697    615.705    605.697    605.697    605.697
 26.970    722.000    616.141    105.859    605.254    616.140    605.254    605.254    605.254
 27.070    650.502    616.780     33.722    604.810    616.779    604.810    604.810    604.810
 27.170    746.000    617.683    128.317    604.363    617.681    604.363    604.363    604.363
 27.270    665.000    618.931     46.069    603.915    618.929    603.915    603.915    603.915
 27.370    741.000    620.652    120.348    603.466    620.650    603.466    603.466    603.466
 27.470    686.530    623.066     63.464    603.015    623.063    603.015    603.015    603.015
 27.570    702.000    626.631     75.369    602.562    626.626    602.562    602.562    602.562
 27.670    736.000    632.455    103.545    602.108    632.448    602.108    602.108    602.108
 27.770    727.000    643.148     83.852    601.652    643.138    601.652    601.652    601.652
 27.870    745.000    663.893     81.107    601.195    663.877    601.195    601.195    601.195
 27.970    719.000    702.338     16.662    600.737    702.310    600.737    600.737    600.737
 28.070    822.000    765.020     56.980    600.277    764.973    600.277    600.277    600.277
 28.170    780.777    849.452    -68.675    599.816    849.382    599.816    599.816    599.816
 28.270    905.493    934.059    -28.567    599.354    933.973    599.354    599.354    599.354
 28.370   1057.000    976.155     80.845    598.891    976.069    598.891    598.891    598.891
 28.470   1043.000    949.087     93.913    598.426    949.025    598.426    598.426    598.426
 28.570    905.649    884.119     21.530    597.961    884.082    597.961    597.961    597.961
 28.670    912.000    829.633     82.367    597.494    829.610    597.494    597.494    597.494
 28.770    911.000    811.462     99.538    597.027    811.443    597.027    597.027    597.027
 28.870    777.717    829.953    -52.236    596.558    829.931    596.558    596.558    596.558
 28.970    976.000    864.089    111.911    596.088    864.066    596.088    596.088    596.088
 29.070    967.000    878.327     88.673    595.618    878.310    595.618    595.618    595.618
 29.170    993.000    849.298    143.702    595.146    849.293    595.146    595.146    595.146
 29.270    813.401    791.250     22.150    594.674    791.254    594.674    594.674    594.674
 29.370    827.000    731.098     95.902    594.201    731.105    594.201    594.201    594.201
 29.470    798.000    683.832    114.168    593.727    683.837    593.727    593.727    593.727
 29.570    738.000    652.497     85.503    593.253    652.499    593.253    593.253    593.253
 29.670    761.000    633.935    127.065    592.778    633.935    592.778    592.778    592.778
 29.770    724.000    623.450    100.550    592.302    623.449    592.302    592.302    592.302
 29.870    724.000    617.345    106.655    591.826    617.344    591.826    591.826    591.826
 29.970    724.000    613.484    110.516    591.349    613.481    591.349    591.349    591.349
 30.070    702.000    610.858     91.142    590.871    610.855    590.871    590.871    590.871
 30.170    703.000    609.067     93.933    590.393    609.063    590.393    590.393    590.393
 30.270    550.206    608.019    -57.813    589.915    608.015    589.915    589.915    589.915
 30.370    560.670    607.873    -47.203    589.436    607.868    589.436    589.436    589.436
 30.470    690.000    609.093     80.907    588.957    609.086    588.957    588.957    588.957
 30.570    582.984    612.502    -29.518    588.477    612.492    588.477    588.477    588.477
 30.670    671.000    619.119     51.881    587.997    619.102    587.997    587.997    587.997
 30.770    657.160    629.604     27.556    587.517    629.580    587.517    587.517    587.517
 30.870    637.650    643.282     -5.632    587.037    643.247    587.037    587.037    587.037
 30.970    717.705    656.825     60.880    586.556    656.781    586.556    586.556    586.556
 31.070    664.609    663.902      0.707    586.076    663.854    586.076    586.076    586.076
 31.170    708.260    659.691     48.569    585.595    659.648    585.595    585.595    585.595
 31.270    628.000    646.658    -18.658    585.114    646.625    585.114    585.114    585.114
 31.370    627.007    631.186     -4.179    584.633    631.163    584.633    584.633    584.633
 31.470    585.276    617.831    -32.554    584.151    617.816    584.151    584.151    584.151
 31.570    609.393    608.192      1.202    583.670    608.182    583.670    583.670    583.670
 31.670    634.000    602.012     31.988    583.189    602.005    583.189    583.189    583.189
 31.770    613.000    598.311     14.689    582.708    598.307    582.708    582.708    582.708
 31.870    627.639    596.118     31.521    582.227    596.114    582.227    582.227    582.227
 31.970    611.000    594.760     16.240    581.746    594.757    581.746    581.746    581.746
 32.070    681.000    593.871     87.129    581.266    593.868    581.266    581.266    581.266
 32.170    547.606    593.278    -45.672    580.785    593.275    580.785    580.785    580.785
 32.270    616.000    592.910     23.090    580.305    592.907    580.305    580.305    580.305
 32.370    608.000    592.740     15.260    579.825    592.738    579.825    579.825    579.825
 32.470    638.000    592.766     45.234    579.345    592.764    579.345    579.345    579.345
 32.570    621.000    593.000     28.000    578.866    592.998    578.866    578.866    578.866
 32.670    615.000    593.468     21.532    578.386    593.465    578.386    578.386    578.386
 32.770    630.000    594.212     35.788    577.908    594.209    577.908    577.908    577.908
 32.870    632.000    595.294     36.706    577.429    595.292    577.429    577.429    577.429
 32.970    555.568    596.808    -41.240    576.951    596.805    576.951    576.951    576.951
 33.070    558.167    598.893    -40.726    576.474    598.890    576.474    576.474    576.474
 33.170    573.000    601.787    -28.787    575.997    601.783    575.997    575.997    575.997
 33.270    578.000    605.944    -27.944    575.520    605.940    575.520    575.520    575.520
 33.370    641.000    612.304     28.696    575.044    612.299    575.044    575.044    575.044
 33.470    558.000    622.785    -64.785    574.569    622.778    574.569    574.569    574.569
 33.570    675.000    640.911     34.089    574.094    640.900    574.094    574.094    574.094
 33.670    708.000    672.093     35.907    573.620    672.076    573.620    573.620    573.620
 33.770    754.221    722.669     31.553    573.146    722.643    573.146    573.146    573.146
 33.870    720.000    796.865    -76.865    572.673    796.828    572.673    572.673    572.673
 33.970    835.000    891.476    -56.476    572.201    891.427    572.201    572.201    572.201
 34.070   1017.000    988.755     28.245    571.730    988.698    571.730    571.730    571.730
 34.170   1025.000   1053.284    -28.284    571.259   1053.232    571.259    571.259    571.259
 34.270   1082.000   1050.899     31.101    570.789   1050.863    570.789    570.789    570.789
 34.370   1007.000    982.820     24.180    570.320    982.800    570.320    570.320    570.320
 34.470    820.000    884.068    -64.068    569.852    884.060    569.852    569.852    569.852
 34.570    752.284    789.242    -36.959    569.384    789.239    569.384    569.384    569.384
 34.670    725.000    715.219      9.781    568.917    715.218    568.917    568.917    568.917
 34.770    603.000    664.705    -61.705    568.452    664.705    568.452    568.452    568.452
 34.870    626.000    633.278     -7.278    567.987    633.277    567.987    567.987    567.987
 34.970    629.000    614.601     14.399    567.523    614.600    567.523    567.523    567.523
 35.070    564.987    603.351    -38.365    567.060    603.350    567.060    567.060    567.060
 35.170    597.000    596.096      0.904    566.599    596.094    566.599    566.599    566.599
 35.270    629.000    590.974     38.026    566.138    590.973    566.138    566.138    566.138
 35.370    590.000    587.077      2.923    565.678    587.076    565.678    565.678    565.678
 35.470    622.270    583.961     38.309    565.219    583.960    565.219    565.219    565.219
 35.570    568.000    581.392    -13.392    564.762    581.391    564.762    564.762    564.762
 35.670    541.000    579.229    -38.229    564.305    579.228    564.305    564.305    564.305
 35.770    541.000    577.376    -36.376    563.850    577.375    563.850    563.850    563.850
 35.870    536.029    575.766    -39.736    563.396    575.765    563.396    563.396    563.396
 35.970    567.627    574.348     -6.721    562.943    574.348    562.943    562.943    562.943
 36.070    585.134    573.087     12.047    562.491    573.086    562.491    562.491    562.491
 36.170    570.580    571.953     -1.373    562.040    571.953    562.040    562.040    562.040
 36.270    554.000    570.925    -16.925    561.591    570.925    561.591    561.591    561.591
 36.370    573.536    569.987      3.549    561.143    569.987    561.143    561.143    561.143
 36.470    518.000    569.122    -51.122    560.696    569.122    560.696    560.696    560.696
 36.570    529.000    568.329    -39.329    560.250    568.329    560.250    560.250    560.250
 36.670    548.000    567.600    -19.600    559.806    567.600    559.806    559.806    559.806
 36.770    553.000    566.932    -13.932    559.363    566.932    559.363    559.363    559.363
 36.870    517.000    566.325    -49.325    558.922    566.325    558.922    558.922    558.922
 36.970    558.000    565.788     -7.788    558.482    565.788    558.482    558.482    558.482
 37.070    502.000    565.351    -63.351    558.043    565.351    558.043    558.043    558.043
 37.170    567.000    565.083      1.917    557.606    565.083    557.606    557.606    557.606
 37.270    531.000    565.126    -34.126    557.170    565.126    557.170    557.170    557.170
 37.370    541.000    565.714    -24.714    556.736    565.715    556.736    556.736    556.736
 37.470    541.000    567.132    -26.132    556.303    567.133    556.303    556.303    556.303
 37.570    542.000    569.563    -27.563    555.871    569.565    555.871    555.871    555.871
 37.670    588.000    572.842     15.158    555.442    572.845    555.442    555.442    555.442
 37.770    524.718    576.181    -51.464    555.013    576.185    555.013    555.013    555.013
 37.870    536.845    578.143    -41.297    554.586    578.149    554.586    554.586    554.586
 37.970    623.093    577.537     45.556    554.161    577.545    554.161    554.161    554.161
 38.070    583.158    574.631      8.527    553.738    574.640    553.738    553.738    553.738
 38.170    619.972    570.695     49.277    553.316    570.705    553.316    553.316    553.316
 38.270    512.000    566.819    -54.819    552.895    566.829    552.895    552.895    552.895
 38.370    571.000    563.558      7.442    552.476    563.566    552.476    552.476    552.476
 38.470    553.295    561.075     -7.779    552.059    561.081    552.059    552.059    552.059
 38.570    585.261    559.286     25.975    551.644    559.291    551.644    551.644    551.644
 38.670    534.000    558.004    -24.004    551.230    558.007    551.230    551.230    551.230
 38.770    515.000    557.051    -42.051    550.818    557.053    550.818    550.818    550.818
 38.870    509.184    556.302    -47.117    550.407    556.303    550.407    550.407    550.407
 38.970    523.000    555.677    -32.677    549.999    555.678    549.999    549.999    549.999
 39.070    538.000    555.129    -17.129    549.592    555.130    549.592    549.592    549.592
 39.170    595.662    554.630     41.032    549.187    554.631    549.187    549.187    549.187
 39.270    517.000    554.164    -37.164    548.783    554.165    548.783    548.783    548.783
 39.370    578.000    553.723     24.277    548.381    553.723    548.381    548.381    548.381
 39.470    520.655    553.300    -32.646    547.982    553.301    547.982    547.982    547.982
 39.570    534.290    552.895    -18.604    547.584    552.895    547.584    547.584    547.584
 39.670    546.000    552.504     -6.504    547.187    552.504    547.187    547.187    547.187
 39.770    508.432    552.127    -43.695    546.793    552.127    546.793    546.793    546.793
 39.870    541.000    551.763    -10.763    546.401    551.763    546.401    546.401    546.401
 39.970    523.000    551.412    -28.412    546.010    551.412    546.010    546.010    546.010
 40.070    541.000    551.073    -10.073    545.621    551.074    545.621    545.621    545.621
 40.170    498.187    550.748    -52.561    545.234    550.749    545.234    545.234    545.234
 40.270    521.000    550.437    -29.437    544.849    550.437    544.849    544.849    544.849
 40.370    572.788    550.140     22.648    544.466    550.140    544.466    544.466    544.466
 40.470    481.000    549.858    -68.858    544.085    549.859    544.085    544.085    544.085
 40.570    573.746    549.594     24.152    543.706    549.595    543.706    543.706    543.706
 40.670    497.520    549.349    -51.829    543.329    549.350    543.329    543.329    543.329
 40.770    584.000    549.125     34.875    542.954    549.126    542.954    542.954    542.954
 40.870    516.000    548.926    -32.926    542.580    548.927    542.580    542.580    542.580
 40.970    546.319    548.756     -2.437    542.209    548.757    542.209    542.209    542.209
 41.070    553.000    548.619      4.381    541.840    548.620    541.840    541.840    541.840
 41.170    525.082    548.522    -23.441    541.472    548.523    541.472    541.472    541.472
 41.270    534.776    548.474    -13.697    541.107    548.475    541.107    541.107    541.107
 41.370    572.947    548.484     24.463    540.744    548.486    540.744    540.744    540.744
 41.470    536.000    548.569    -12.569    540.383    548.571    540.383    540.383    540.383
 41.570    566.616    548.750     17.866    540.023    548.752    540.023    540.023    540.023
 41.670    498.000    549.058    -51.058    539.666    549.060    539.666    539.666    539.666
 41.770    557.000    549.550      7.450    539.311    549.552    539.311    539.311    539.311
 41.870    517.000    550.333    -33.333    538.958    550.336    538.958    538.958    538.958
 41.970    491.000    551.618    -60.618    538.607    551.621    538.607    538.607    538.607
 42.070    529.000    553.804    -24.804    538.259    553.809    538.259    538.259    538.259
 42.170    590.006    557.574     32.433    537.912    557.580    537.912    537.912    537.912
 42.270    593.066    563.919     29.147    537.567    563.928    537.567    537.567    537.567
 42.370    569.000    573.992     -4.992    537.225    574.006    537.225    537.225    537.225
 42.470    539.000    588.678    -49.678    536.885    588.699    536.885    536.885    536.885
 42.570    638.896    607.894     31.001    536.546    607.925    536.546    536.546    536.546
 42.670    632.957    629.681      3.276    536.210    629.723    536.210    536.210    536.210
 42.770    688.453    649.278     39.175    535.876    649.331    535.876    535.876    535.876
 42.870    608.840    659.602    -50.762    535.545    659.662    535.545    535.545    535.545
 42.970    626.000    655.670    -29.670    535.215    655.731    535.215    535.215    535.215
 43.070    672.764    639.430     33.334    534.888    639.484    534.888    534.888    534.888
 43.170    572.000    617.576    -45.576    534.562    617.620    534.562    534.562    534.562
 43.270    577.000    596.197    -19.197    534.239    596.229    534.239    534.239    534.239
 43.370    561.000    578.595    -17.595    533.918    578.618    533.918    533.918    533.918
 43.470    545.000    565.711    -20.711    533.600    565.726    533.600    533.600    533.600
 43.570    570.000    557.066     12.934    533.283    557.076    533.283    533.283    533.283
 43.670    582.000    551.585     30.415    532.969    551.592    532.969    532.969    532.969
 43.770    553.000    548.165      4.835    532.657    548.170    532.657    532.657    532.657
 43.870    558.000    545.966     12.034    532.347    545.970    532.347    532.347    532.347
 43.970    519.000    544.453    -25.453    532.040    544.456    532.040    532.040    532.040
 44.070    531.597    543.328    -11.732    531.734    543.331    531.734    531.734    531.734
 44.170    557.000    542.440     14.560    531.431    542.442    531.431    531.431    531.431
 44.270    551.603    541.708      9.895    531.130    541.710    531.130    531.130    531.130
 44.370    513.314    541.092    -27.778    530.832    541.093    530.832    530.832    530.832
 44.470    515.000    540.564    -25.564    530.535    540.565    530.535    530.535    530.535
 44.570    492.000    540.108    -48.108    530.241    540.109    530.241    530.241    530.241
 44.670    561.000    539.712     21.288    529.950    539.713    529.950    529.950    529.950
 44.770    540.268    539.366      0.901    529.660    539.367    529.660    529.660    529.660
 44.870    537.000    539.064     -2.064    529.373    539.065    529.373    529.373    529.373
 44.970    549.000    538.801     10.199    529.088    538.801    529.088    529.088    529.088
 45.070    531.000    538.572     -7.572    528.805    538.572    528.805    528.805    528.805
 45.170    531.000    538.375     -7.375    528.524    538.376    528.524    528.524    528.524
 45.270    559.000    538.209     20.791    528.246    538.210    528.246    528.246    528.246
 45.370    523.000    538.073    -15.073    527.970    538.073    527.970    527.970    527.970
 45.470    489.099    537.965    -48.866    527.697    537.965    527.697    527.697    527.697
 45.570    517.000    537.885    -20.885    527.425    537.885    527.425    527.425    527.425
 45.670    534.916    537.835     -2.919    527.156    537.835    527.156    527.156    527.156
 45.770    559.000    537.815     21.185    526.890    537.815    526.890    526.890    526.890
 45.870    554.000    537.827     16.173    526.625    537.827    526.625    526.625    526.625
 45.970    552.243    537.873     14.370    526.363    537.872    526.363    526.363    526.363
 46.070    539.000    537.955      1.045    526.103    537.955    526.103    526.103    526.103
 46.170    511.475    538.078    -26.603    525.846    538.077    525.846    525.846    525.846
 46.270    558.000    538.245     19.755    525.591    538.244    525.591    525.591    525.591
 46.370    522.000    538.463    -16.463    525.338    538.462    525.338    525.338    525.338
 46.470    535.000    538.738     -3.738    525.087    538.737    525.087    525.087    525.087
 46.570    536.000    539.080     -3.080    524.839    539.078    524.839    524.839    524.839
 46.670    533.000    539.501     -6.501    524.593    539.500    524.593    524.593    524.593
 46.770    531.000    540.020     -9.020    524.349    540.018    524.349    524.349    524.349
 46.870    540.000    540.666     -0.666    524.108    540.663    524.108    524.108    524.108
 46.970    582.037    541.488     40.549    523.869    541.485    523.869    523.869    523.869
 47.070    572.000    542.582     29.418    523.632    542.578    523.632    523.632    523.632
 47.170    551.177    544.119      7.058    523.398    544.115    523.398    523.398    523.398
 47.270    547.000    546.395      0.605    523.166    546.390    523.166    523.166    523.166
 47.370    551.000    549.862      1.138    522.936    549.854    522.936    522.936    522.936
 47.470    605.864    555.106     50.758    522.708    555.094    522.708    522.708    522.708
 47.570    583.000    562.728     20.272    522.483    562.711    522.483    522.483    522.483
 47.670    592.000    573.098     18.902    522.260    573.074    522.260    522.260    522.260
 47.770    634.452    586.007     48.445    522.040    585.973    522.040    522.040    522.040
 47.870    621.000    600.255     20.745    521.822    600.212    521.822    521.822    521.822
 47.970    588.294    613.300    -25.006    521.606    613.249    521.606    521.606    521.606
 48.070    624.000    621.540      2.460    521.392    621.484    521.392    521.392    521.392
 48.170    660.746    622.206     38.540    521.181    622.152    521.181    521.181    521.181
 48.270    597.521    615.667    -18.146    520.972    615.620    520.972    520.972    520.972
 48.370    615.000    605.089      9.911    520.765    605.051    520.765    520.765    520.765
 48.470    589.540    594.014     -4.474    520.561    593.985    520.561    520.561    520.561
 48.570    541.000    584.814    -43.814    520.359    584.793    520.359    520.359    520.359
 48.670    602.000    578.583     23.417    520.159    578.568    520.159    520.159    520.159
 48.770    532.208    575.518    -43.310    519.962    575.507    519.962    519.962    519.962
 48.870    567.000    575.334     -8.334    519.767    575.326    519.767    519.767    519.767
 48.970    586.000    577.615      8.385    519.574    577.608    519.574    519.574    519.574
 49.070    583.000    582.082      0.918    519.383    582.076    519.383    519.383    519.383
 49.170    578.000    588.796    -10.796    519.195    588.790    519.195    519.195    519.195
 49.270    621.000    598.409     22.591    519.009    598.402    519.009    519.009    519.009
 49.370    602.000    612.633    -10.633    518.826    612.624    518.826    518.826    518.826
 49.470    617.000    635.111    -18.111    518.644    635.098    518.644    518.644    518.644
 49.570    671.000    672.657     -1.657    518.465    672.637    518.465    518.465    518.465
 49.670    776.310    736.389     39.921    518.288    736.355    518.288    518.288    518.288
 49.770    815.000    841.555    -26.555    518.114    841.501    518.114    518.114    518.114
 49.870    969.000   1004.467    -35.467    517.941   1004.385    517.941    517.941    517.941
 49.970   1122.000   1235.594   -113.594    517.771   1235.482    517.771    517.771    517.771
 50.070   1527.000   1529.742     -2.742    517.604   1529.605    517.604    517.604    517.604
 50.170   1827.000   1855.757    -28.757    517.438   1855.614    517.438    517.438    517.438
 50.270   2113.000   2149.667    -36.667    517.275   2149.552    517.275    517.275    517.275
 50.370   2384.000   2323.685     60.315    517.114   2323.638    517.114    517.114    517.114
 50.470   2351.000   2310.522     40.478    516.955   2310.565    516.955    516.955    516.955
 50.570   2110.000   2116.806     -6.806    516.798   2116.919    516.798    516.798    516.798
 50.670   1851.000   1816.872     34.128    516.644   1817.015    516.644    516.644    516.644
 50.770   1464.000   1496.975    -32.975    516.492   1497.116    516.492    516.492    516.492
 50.870   1111.000   1216.906   -105.906    516.342   1217.026    516.342    516.342    516.342
 50.970    998.293   1003.996     -5.704    516.195   1004.091    516.195    516.195    516.195
 51.070    810.796    860.401    -49.605    516.049    860.472    516.049    516.049    516.049
 51.170    734.000    773.179    -39.179    515.906    773.235    515.906    515.906    515.906
 51.270    663.000    723.659    -60.659    515.765    723.707    515.765    515.765    515.765
 51.370    717.215    694.194     23.021    515.626    694.237    515.626    515.626    515.626
 51.470    673.702    672.324      1.378    515.490    672.362    515.490    515.490    515.490
 51.570    653.231    652.287      0.944    515.355    652.319    515.355    515.355    515.355
 51.670    666.000    633.264     32.736    515.223    633.290    515.223    515.223    515.223
 51.770    586.753    616.306    -29.553    515.093    616.326    515.093    515.093    515.093
 51.870    615.000    602.423     12.577    514.965    602.437    514.965    514.965    514.965
 51.970    638.650    592.006     46.644    514.840    592.016    514.840    514.840    514.840
 52.070    624.477    584.866     39.611    514.716    584.873    514.716    514.716    514.716
 52.170    593.000    580.481     12.519    514.595    580.486    514.595    514.595    514.595
 52.270    532.482    578.271    -45.789    514.475    578.275    514.475    514.475    514.475
 52.370    565.404    577.798    -12.393    514.358    577.801    514.358    514.358    514.358
 52.470    542.000    578.880    -36.880    514.243    578.882    514.243    514.243    514.243
 52.570    613.000    581.670     31.330    514.131    581.672    514.131    514.131    514.131
 52.670    605.033    586.778     18.256    514.020    586.779    514.020    514.020    514.020
 52.770    598.651    595.467      3.185    513.911    595.468    513.911    513.911    513.911
 52.870    638.000    609.917     28.083    513.805    609.918    513.805    513.805    513.805
 52.970    659.000    633.393     25.607    513.700    633.393    513.700    513.700    513.700
 53.070    715.935    670.087     45.848    513.598    670.086    513.598    513.598    513.598
 53.170    705.000    724.352    -19.352    513.498    724.350    513.498    513.498    513.498
 53.270    820.000    799.204     20.796    513.400    799.202    513.400    513.400    513.400
 53.370    898.993    894.258      4.735    513.304    894.256    513.304    513.304    513.304
 53.470   1039.678   1003.405     36.273    513.210   1003.404    513.210    513.210    513.210
 53.570   1151.241   1112.510     38.732    513.118   1112.513    513.118    513.118    513.118
 53.670   1223.000   1198.431     24.569    513.028   1198.441    513.028    513.028    513.028
 53.770   1234.000   1234.666     -0.666    512.940   1234.686    512.940    512.940    512.940
 53.870   1194.000   1207.538    -13.538    512.854   1207.567    512.854    512.854    512.854
 53.970   1065.000   1127.880    -62.880    512.770   1127.915    512.770    512.770    512.770
 54.070    999.314   1021.397    -22.083    512.688   1021.431    512.688    512.688    512.688
 54.170    906.000    912.102     -6.102    512.609    912.133    512.609    512.609    512.609
 54.270    836.604    815.384     21.220    512.531    815.409    512.531    512.531    512.531
 54.370    764.000    738.365     25.635    512.455    738.385    512.455    512.455    512.455
 54.470    741.000    682.149     58.851    512.381    682.163    512.381    512.381    512.381
 54.570    640.000    644.077     -4.077    512.309    644.087    512.309    512.309    512.309
 54.670    579.126    619.899    -40.773    512.239    619.906    512.239    512.239    512.239
 54.770    633.000    605.357     27.643    512.171    605.362    512.171    512.171    512.171
 54.870    639.000    597.046     41.954    512.105    597.049    512.105    512.105    512.105
 54.970    548.012    592.637    -44.625    512.041    592.639    512.041    512.041    512.041
 55.070    593.000    590.727      2.273    511.979    590.729    511.979    511.979    511.979
 55.170    646.000    590.561     55.439    511.919    590.563    511.919    511.919    511.919
 55.270    612.000    591.783     20.217    511.860    591.785    511.860    511.860    511.860
 55.370    610.000    594.271     15.729    511.804    594.272    511.804    511.804    511.804
 55.470    646.000    598.051     47.949    511.749    598.052    511.749    511.749    511.749
 55.570    638.680    603.277     35.404    511.697    603.278    511.697    511.697    511.697
 55.670    560.426    610.277    -49.852    511.646    610.278    511.646    511.646    511.646
 55.770    672.294    619.676     52.618    511.597    619.676    511.597    511.597    511.597
 55.870    612.000    632.640    -20.640    511.550    632.639    511.550    511.550    511.550
 55.970    643.000    651.293     -8.293    511.504    651.291    511.504    511.504    511.504
 56.070    641.189    679.292    -38.103    511.461    679.286    511.461    511.461    511.461
 56.170    770.461    722.455     48.006    511.419    722.445    511.419    511.419    511.419
 56.270    732.000    789.133    -57.133    511.379    789.115    511.379    511.379    511.379
 56.370    784.000    889.803   -105.803    511.341    889.776    511.341    511.341    511.341
 56.470    946.000   1035.365    -89.365    511.305   1035.327    511.305    511.305    511.305
 56.570   1213.611   1233.862    -20.251    511.270   1233.814    511.270    511.270    511.270
 56.670   1537.511   1485.941     51.571    511.238   1485.889    511.238    511.238    511.238
 56.770   1862.430   1779.730     82.700    511.207   1779.685    511.207    511.207    511.207
 56.870   2034.000   2085.875    -51.875    511.177   2085.855    511.177    511.177    511.177
 56.970   2396.255   2354.674     41.580    511.150   2354.701    511.150    511.150    511.150
 57.070   2603.000   2522.773     80.227    511.124   2522.866    511.124    511.124    511.124
 57.170   2523.911   2539.182    -15.272    511.100   2539.344    511.100    511.100    511.100
 57.270   2408.000   2398.515      9.485    511.078   2398.723    511.078    511.078    511.078
 57.370   2203.000   2145.457     57.543    511.057   2145.678    511.057    511.057    511.057
 57.470   1808.000   1844.100    -36.100    511.038   1844.307    511.038    511.038    511.038
 57.570   1452.000   1547.925    -95.925    511.020   1548.100    511.020    511.020    511.020
 57.670   1294.000   1290.063      3.937    511.005   1290.200    511.005    511.005    511.005
 57.770   1017.971   1085.426    -67.455    510.991   1085.527    510.991    510.991    510.991
 57.870    995.280    935.656     59.624    510.978    935.725    510.978    510.978    510.978
 57.970    857.000    834.372     22.628    510.967    834.416    510.967    510.967    510.967
 58.070    839.000    772.004     66.996    510.958    772.029    510.958    510.958    510.958
 58.170    775.942    739.434     36.508    510.950    739.444    510.950    510.950    510.950
 58.270    714.391    729.972    -15.581    510.944    729.970    510.944    510.944    510.944
 58.370    718.000    739.754    -21.754    510.940    739.741    510.940    510.940    510.940
 58.470    818.314    767.029     51.285    510.937    767.006    510.937    510.937    510.937
 58.570    828.000    810.873     17.127    510.935    810.841    510.935    510.935    510.935
 58.670    877.000    869.727      7.273    510.936    869.689    510.936    510.936    510.936
 58.770    922.084    940.000    -17.916    510.937    939.960    510.937    510.937    510.937
 58.870   1032.316   1015.291     17.025    510.940   1015.255    510.940    510.940    510.940
 58.970   1075.116   1087.442    -12.326    510.945   1087.415    510.945    510.945    510.945
 59.070   1129.440   1149.463    -20.024    510.951   1149.448    510.951    510.951    510.951
 59.170   1201.000   1196.751      4.249    510.959   1196.749    510.959    510.959    510.959
 59.270   1299.000   1225.013     73.987    510.968   1225.024    510.968    510.968    510.968
 59.370   1260.000   1230.512     29.488    510.978   1230.532    510.978    510.978    510.978
 59.470   1295.000   1215.142     79.858    510.990   1215.160    510.990    510.990    510.990
 59.570   1242.000   1188.965     53.035    511.003   1188.968    511.003    511.003    511.003
 59.670   1197.000   1165.301     31.699    511.018   1165.277    511.018    511.018    511.018
 59.770   1163.736   1154.713      9.023    511.034   1154.653    511.034    511.034    511.034
 59.870   1181.000   1163.668     17.332    511.052   1163.568    511.052    511.052    511.052
 59.970   1182.000   1196.172    -14.172    511.071   1196.026    511.071    511.071    511.071
 60.070   1230.000   1253.923    -23.923    511.091   1253.732    511.091    511.091    511.091
 60.170   1367.106   1333.422     33.684    511.113   1333.188    511.113    511.113    511.113
 60.270   1459.000   1422.740     36.260    511.135   1422.476    511.135    511.135    511.135
 60.370   1513.228   1500.794     12.434    511.160   1500.518    511.160    511.160    511.160
 60.470   1526.000   1541.447    -15.447    511.185   1541.184    511.185    511.185    511.185
 60.570   1517.347   1524.492     -7.145    511.212   1524.265    511.212    511.212    511.212
 60.670   1546.000   1447.794     98.206    511.240   1447.614    511.240    511.240    511.240
 60.770   1382.000   1328.166     53.834    511.269   1328.033    511.269    511.269    511.269
 60.870   1194.000   1190.171      3.829    511.300   1190.078    511.300    511.300    511.300
 60.970   1050.225   1055.199     -4.975    511.332   1055.135    511.332    511.332    511.332
 61.070    901.000    937.473    -36.473    511.365    937.428    511.365    511.365    511.365
 61.170    843.000    844.392     -1.392    511.399    844.358    511.399    511.399    511.399
 61.270    725.059    778.227    -53.168    511.435    778.197    511.435    511.435    511.435
 61.370    746.932    738.170      8.762    511.471    738.139    511.471    511.471    511.471
 61.470    764.127    722.365     41.762    511.509    722.328    511.509    511.509    511.509
 61.570    683.740    729.430    -45.690    511.548    729.382    511.548    511.548    511.548
 61.670    784.087    759.110     24.977    511.588    759.047    511.588    511.588    511.588
 61.770    842.000    811.922     30.078    511.629    811.839    511.629    511.629    511.629
 61.870    867.496    887.958    -20.462    511.672    887.853    511.672    511.672    511.672
 61.970   1043.593    985.224     58.369    511.715    985.095    511.715    511.715    511.715
 62.070   1083.556   1097.913    -14.357    511.759   1097.763    511.759    511.759    511.759
 62.170   1152.000   1214.927    -62.927    511.805   1214.763    511.805    511.805    511.805
 62.270   1266.000   1319.129    -53.129    511.852   1318.963    511.852    511.852    511.852
 62.370   1300.000   1389.082    -89.082    511.899   1388.931    511.899    511.899    511.899
 62.470   1300.000   1406.009   -106.009    511.948   1405.886    511.948    511.948    511.948
 62.570   1306.000   1364.227    -58.227    511.998   1364.137    511.998    511.998    511.998
 62.670   1178.000   1275.190    -97.190    512.048   1275.130    512.048    512.048    512.048
 62.770   1125.000   1159.935    -34.935    512.100   1159.897    512.100    512.100    512.100
 62.870    983.000   1038.751    -55.751    512.153   1038.729    512.153    512.153    512.153
 62.970    936.000    926.229      9.771    512.206    926.217    512.206    512.206    512.206
 63.070    795.055    830.783    -35.728    512.261    830.775    512.261    512.261    512.261
 63.170    768.775    755.677     13.099    512.316    755.671    512.316    512.316    512.316
 63.270    662.325    700.415    -38.090    512.373    700.408    512.373    512.373    512.373
 63.370    688.637    662.243     26.394    512.430    662.236    512.430    512.430    512.430
 63.470    661.039    637.551     23.488    512.488    637.542    512.488    512.488    512.488
 63.570    627.000    622.942      4.058    512.547    622.932    512.547    512.547    512.547
 63.670    588.612    615.880    -27.268    512.607    615.868    512.607    512.607    512.607
 63.770    625.000    614.940     10.060    512.668    614.925    512.668    512.668    512.668
 63.870    646.000    619.795     26.205    512.729    619.777    512.729    512.729    512.729
 63.970    687.000    631.043     55.957    512.791    631.018    512.791    512.791    512.791
 64.070    637.989    649.901    -11.912    512.855    649.868    512.855    512.855    512.855
 64.170    716.369    677.806     38.563    512.918    677.763    512.918    512.918    512.918
 64.270    768.219    715.888     52.332    512.983    715.830    512.983    512.983    512.983
 64.370    721.000    764.357    -43.357    513.049    764.283    513.049    513.049    513.049
 64.470    780.191    821.869    -41.679    513.115    821.778    513.115    513.115    513.115
 64.570    863.842    884.903    -21.061    513.182    884.794    513.182    513.182    513.182
 64.670    979.000    947.272     31.728    513.249    947.149    513.249    513.249    513.249
 64.770   1039.000   1000.281     38.719    513.317   1000.151    513.317    513.317    513.317
 64.870   1061.000   1034.565     26.435    513.386   1034.437    513.386    513.386    513.386
 64.970   1139.000   1043.767     95.233    513.456   1043.652    513.456    513.456    513.456
 65.070   1100.391   1027.453     72.938    513.526   1027.359    513.526    513.526    513.526
 65.170   1022.000    990.739     31.261    513.597    990.671    513.597    513.597    513.597
 65.270   1012.746    941.685     71.062    513.668    941.642    513.668    513.668    513.668
 65.370    896.914    888.496      8.418    513.741    888.476    513.741    513.741    513.741
 65.470    833.978    837.440     -3.461    513.813    837.438    513.813    513.813    513.813
 65.570    759.346    791.955    -32.609    513.886    791.968    513.886    513.886    513.886
 65.670    724.000    752.964    -28.964    513.960    752.986    513.960    513.960    513.960
 65.770    671.000    719.917    -48.917    514.035    719.942    514.035    514.035    514.035
 65.870    714.688    691.977     22.712    514.109    692.002    514.109    514.109    514.109
 65.970    653.000    668.640    -15.640    514.185    668.662    514.185    514.185    514.185
 66.070    635.506    649.661    -14.155    514.261    649.678    514.261    514.261    514.261
 66.170    624.741    634.806    -10.065    514.337    634.819    514.337    514.337    514.337
 66.270    626.914    623.775      3.139    514.414    623.783    514.414    514.414    514.414
 66.370    605.000    616.221    -11.221    514.491    616.226    514.491    514.491    514.491
 66.470    616.000    611.800      4.200    514.569    611.802    514.569    514.569    514.569
 66.570    642.414    610.202     32.211    514.647    610.203    514.647    514.647    514.647
 66.670    662.133    611.214     50.919    514.725    611.215    514.725    514.725    514.725
 66.770    626.000    614.806     11.194    514.804    614.807    514.804    514.804    514.804
 66.870    656.000    621.261     34.739    514.884    621.262    514.884    514.884    514.884
 66.970    575.425    631.348    -55.923    514.963    631.350    514.963    514.963    514.963
 67.070    658.000    646.538     11.462    515.043    646.539    515.043    515.043    515.043
 67.170    669.000    669.244     -0.244    515.123    669.245    515.123    515.123    515.123
 67.270    681.000    703.037    -22.037    515.204    703.036    515.204    515.204    515.204
 67.370    769.733    752.711     17.022    515.285    752.709    515.285    515.285    515.285
 67.470    730.000    824.059    -94.059    515.366    824.055    515.366    515.366    515.366
 67.570    913.000    923.199    -10.199    515.448    923.193    515.448    515.448    515.448
 67.670   1021.000   1055.367    -34.367    515.529   1055.362    515.529    515.529    515.529
 67.770   1280.722   1223.269     57.453    515.611   1223.268    515.611    515.611    515.611
 67.870   1390.522   1425.178    -34.655    515.693   1425.188    515.693    515.693    515.693
 67.970   1624.000   1653.076    -29.076    515.776   1653.106    515.776    515.776    515.776
 68.070   1796.645   1891.023    -94.378    515.858   1891.083    515.858    515.858    515.858
 68.170   2109.000   2114.136     -5.136    515.941   2114.238    515.941    515.941    515.941
 68.270   2263.000   2289.798    -26.798    516.024   2289.954    516.024    516.024    516.024
 68.370   2309.000   2384.406    -75.406    516.107   2384.620    516.107    516.107    516.107
 68.470   2277.000   2376.471    -99.471    516.190   2376.737    516.190    516.190    516.190
 68.570   2200.000   2268.020    -68.020    516.273   2268.317    516.273    516.273    516.273
 68.670   2107.000   2083.342     23.658    516.357   2083.646    516.357    516.357    516.357
 68.770   1888.201   1856.521     31.680    516.440   1856.809    516.440    516.440    516.440
 68.870   1558.000   1619.180    -61.180    516.524   1619.435    516.524    516.524    516.524
 68.970   1450.000   1394.819     55.181    516.607   1395.035    516.607    516.607    516.607
 69.070   1124.000   1198.099    -74.099    516.691   1198.273    516.691    516.691    516.691
 69.170   1002.682   1035.978    -33.295    516.775   1036.113    516.775    516.775    516.775
 69.270    935.000    909.392     25.608    516.858    909.493    516.858    516.858    516.858
 69.370    841.450    815.136     26.314    516.942    815.209    516.942    516.942    516.942
 69.470    796.212    747.740     48.471    517.026    747.793    517.026    517.026    517.026
 69.570    746.906    701.065     45.842    517.109    701.102    517.109    517.109    517.109
 69.670    638.000    669.415    -31.415    517.193    669.441    517.193    517.193    517.193
 69.770    630.000    648.135    -18.135    517.276    648.154    517.276    517.276    517.276
 69.870    639.000    633.771      5.229    517.360    633.784    517.360    517.360    517.360
 69.970    659.824    623.952     35.873    517.443    623.962    517.443    517.443    517.443
 70.070    584.000    617.160    -33.160    517.526    617.168    517.526    517.526    517.526
 70.170    613.000    612.478      0.522    517.609    612.483    517.609    517.609    517.609
 70.270    582.611    609.381    -26.770    517.692    609.384    517.692    517.692    517.692
 70.370    667.005    607.598     59.407    517.775    607.600    517.775    517.775    517.775
 70.470    592.000    607.028    -15.028    517.857    607.029    517.857    517.857    517.857
 70.570    616.000    607.708      8.292    517.940    607.707    517.940    517.940    517.940
 70.670    589.471    609.827    -20.356    518.022    609.824    518.022    518.022    518.022
 70.770    564.784    613.779    -48.995    518.104    613.774    518.104    518.104    518.104
 70.870    610.759    620.253     -9.495    518.186    620.246    518.186    518.186    518.186
 70.970    671.000    630.360     40.640    518.267    630.349    518.267    518.267    518.267
 71.070    594.825    645.762    -50.937    518.348    645.746    518.348    518.348    518.348
 71.170    693.000    668.787     24.213    518.429    668.764    518.429    518.429    518.429
 71.270    734.721    702.443     32.278    518.510    702.411    518.510    518.510    518.510
 71.370    794.000    750.272     43.728    518.590    750.227    518.590    518.590    518.590
 71.470    832.342    815.962     16.380    518.670    815.900    518.670    518.670    518.670
 71.570    907.000    902.690      4.310    518.750    902.607    518.750    518.750    518.750
 71.670    960.000   1012.241    -52.241    518.829   1012.133    518.829    518.829    518.829
 71.770   1105.017   1144.002    -38.984    518.908   1143.866    518.908    518.908    518.908
 71.870   1273.000   1293.991    -20.991    518.987   1293.827    518.987    518.987    518.987
 71.970   1466.058   1454.006     12.052    519.065   1453.817    519.065    519.065    519.065
 72.070   1626.000   1610.973     15.027    519.143   1610.766    519.143    519.143    519.143
 72.170   1729.020   1746.907    -17.887    519.220   1746.693    519.220    519.220    519.220
 72.270   1765.000   1840.839    -75.839    519.297   1840.633    519.297    519.297    519.297
 72.370   1898.000   1874.494     23.506    519.374   1874.312    519.374    519.374    519.374
 72.470   1841.000   1840.381      0.619    519.450   1840.236    519.450    519.450    519.450
 72.570   1752.876   1745.930      6.947    519.525   1745.825    519.525    519.525    519.525
 72.670   1580.503   1609.379    -28.876    519.600   1609.312    519.600    519.600    519.600
 72.770   1476.000   1451.685     24.315    519.675   1451.647    519.675    519.675    519.675
 72.870   1366.000   1290.833     75.167    519.749   1290.817    519.749    519.749    519.749
 72.970   1217.550   1139.896     77.654    519.822   1139.894    519.822    519.822    519.822
 73.070    995.796   1007.068    -11.272    519.895   1007.074    519.895    519.895    519.895
 73.170    954.000    896.323     57.677    519.968    896.332    519.968    519.968    519.968
 73.270    846.000    808.273     37.727    520.039    808.282    520.039    520.039    520.039
 73.370    844.000    741.149    102.851    520.111    741.156    520.111    520.111    520.111
 73.470    695.671    691.796      3.875    520.181    691.802    520.181    520.181    520.181
 73.570    705.000    656.560     48.440    520.251    656.564    520.251    520.251    520.251
 73.670    684.000    631.932     52.068    520.320    631.935    520.320    520.320    520.320
 73.770    637.000    614.943     22.057    520.389    614.945    520.389    520.389    520.389
 73.870    648.000    603.303     44.697    520.457    603.306    520.457    520.457    520.457
 73.970    641.850    595.388     46.462    520.524    595.392    520.524    520.524    520.524
 74.070    658.000    590.114     67.886    520.591    590.120    520.591    520.591    520.591
 74.170    564.000    586.790    -22.790    520.657    586.800    520.657    520.657    520.657
 74.270    624.000    584.976     39.024    520.722    584.989    520.722    520.722    520.722
 74.370    622.000    584.362     37.638    520.787    584.379    520.787    520.787    520.787
 74.470    623.000    584.681     38.319    520.850    584.704    520.850    520.850    520.850
 74.570    644.000    585.653     58.347    520.913    585.681    520.913    520.913    520.913
 74.670    622.000    586.943     35.057    520.976    586.977    520.976    520.976    520.976
 74.770    645.000    588.152     56.848    521.037    588.191    521.037    521.037    521.037
 74.870    629.000    588.839     40.161    521.098    588.881    521.098    521.098    521.098
 74.970    737.000    588.619    148.381    521.157    588.664    521.157    521.157    521.157
 75.070    599.166    587.305     11.861    521.216    587.349    521.216    521.216    521.216
 75.170    689.000    584.999    104.001    521.274    585.041    521.274    521.274    521.274
 75.270    573.149    582.064     -8.914    521.332    582.101    521.332    521.332    521.332
 75.370    519.548    578.995    -59.447    521.388    579.027    521.388    521.388    521.388
 75.470    639.000    576.320     62.680    521.444    576.345    521.444    521.444    521.444
 75.570    629.000    574.547     54.453    521.498    574.565    521.498    521.498    521.498
 75.670    583.000    574.163      8.837    521.552    574.174    521.552    521.552    521.552
 75.770    579.000    575.637      3.363    521.605    575.642    521.605    521.605    521.605
 75.870    649.000    579.415     69.585    521.657    579.413    521.657    521.657    521.657
 75.970    623.000    585.889     37.111    521.708    585.880    521.708    521.708    521.708
 76.070    618.000    595.354     22.646    521.758    595.338    521.758    521.758    521.758
 76.170    656.000    607.935     48.065    521.807    607.912    521.807    521.807    521.807
 76.270    683.484    623.508     59.975    521.855    623.476    521.855    521.855    521.855
 76.370    682.000    641.615     40.385    521.902    641.575    521.902    521.902    521.902
 76.470    646.000    661.390    -15.390    521.948    661.342    521.948    521.948    521.948
 76.570    674.000    681.495     -7.495    521.993    681.440    521.993    521.993    521.993
 76.670    731.000    700.103     30.897    522.037    700.043    522.037    522.037    522.037
 76.770    713.000    714.996     -1.996    522.080    714.934    522.080    522.080    522.080
 76.870    724.000    723.930      0.070    522.121    723.867    522.121    522.121    522.121
 76.970    772.000    725.282     46.718    522.162    725.223    522.162    522.162    522.162
 77.070    714.000    718.725     -4.725    522.202    718.671    522.202    522.202    522.202
 77.170    745.000    705.371     39.629    522.241    705.324    522.241    522.241    522.241
 77.270    657.000    687.285    -30.285    522.278    687.246    522.278    522.278    522.278
 77.370    619.412    666.747    -47.335    522.315    666.714    522.315    522.315    522.315
 77.470    648.000    645.743      2.257    522.350    645.717    522.350    522.350    522.350
 77.570    657.910    625.772     32.137    522.384    625.753    522.384    522.384    522.384
 77.670    575.000    607.842    -32.842    522.417    607.827    522.417    522.417    522.417
 77.770    582.831    592.501     -9.670    522.449    592.490    522.449    522.449    522.449
 77.870    541.012    579.925    -38.913    522.480    579.917    522.480    522.480    522.480
 77.970    559.597    570.005    -10.408    522.509    569.999    522.509    522.509    522.509
 78.070    559.000    562.444     -3.444    522.537    562.439    522.537    522.537    522.537
 78.170    506.519    556.848    -50.329    522.564    556.845    522.564    522.564    522.564
 78.270    573.000    552.805     20.195    522.590    552.802    522.590    522.590    522.590
 78.370    521.000    549.934    -28.934    522.615    549.931    522.615    522.615    522.615
 78.470    555.000    547.914      7.086    522.638    547.912    522.638    522.638    522.638
 78.570    560.000    546.500     13.500    522.660    546.498    522.660    522.660    522.660
 78.670    595.282    545.511     49.771    522.681    545.510    522.681    522.681    522.681
 78.770    500.747    544.827    -44.081    522.701    544.826    522.701    522.701    522.701
 78.870    553.000    544.370      8.630    522.719    544.369    522.719    522.719    522.719
 78.970    583.181    544.097     39.084    522.736    544.096    522.736    522.736    522.736
 79.070    572.000    543.987     28.013    522.752    543.986    522.752    522.752    522.752
 79.170    535.000    544.038     -9.038    522.766    544.037    522.766    522.766    522.766
 79.270    518.000    544.261    -26.261    522.779    544.260    522.779    522.779    522.779
 79.370    571.000    544.677     26.323    522.791    544.675    522.791    522.791    522.791
 79.470    526.000    545.317    -19.317    522.801    545.315    522.801    522.801    522.801
 79.570    561.592    546.222     15.370    522.810    546.220    522.810    522.810    522.810
 79.670    534.113    547.443    -13.330    522.818    547.441    522.818    522.818    522.818
 79.770    510.438    549.045    -38.607    522.824    549.043    522.824    522.824    522.824
 79.870    535.000    551.111    -16.111    522.829    551.108    522.829    522.829    522.829
 79.970    563.000    553.747      9.253    522.833    553.743    522.833    522.833    522.833
 80.070    499.391    557.090    -57.698    522.835    557.085    522.835    522.835    522.835
 80.170    577.000    561.307     15.693    522.835    561.302    522.835    522.835    522.835
 80.270    608.249    566.600     41.649    522.835    566.595    522.835    522.835    522.835
 80.370    609.000    573.201     35.799    522.832    573.196    522.832    522.832    522.832
 80.470    636.035    581.370     54.665    522.829    581.366    522.829    522.829    522.829
 80.570    633.457    591.386     42.070    522.824    591.384    522.824    522.824    522.824
 80.670    612.031    603.517      8.513    522.817    603.518    522.817    522.817    522.817
 80.770    588.000    617.950    -29.950    522.809    617.954    522.809    522.809    522.809
 80.870    650.000    634.707     15.293    522.800    634.714    522.800    522.800    522.800
 80.970    649.436    653.554     -4.118    522.789    653.567    522.789    522.789    522.789
 81.070    653.000    673.950    -20.950    522.776    673.968    522.776    522.776    522.776
 81.170    646.394    695.029    -48.635    522.762    695.053    522.762    522.762    522.762
 81.270    671.122    715.680    -44.558    522.747    715.711    522.747    522.747    522.747
 81.370    709.000    734.698    -25.698    522.730    734.735    522.730    522.730    522.730
 81.470    763.137    750.964     12.173    522.711    751.008    522.711    522.711    522.711
 81.570    740.000    763.571    -23.571    522.691    763.620    522.691    522.691    522.691
 81.670    754.000    771.889    -17.889    522.669    771.944    522.669    522.669    522.669
 81.770    776.000    775.626      0.374    522.646    775.686    522.646    522.646    522.646
 81.870    801.000    774.833     26.167    522.621    774.897    522.621    522.621    522.621
 81.970    797.470    769.798     27.672    522.595    769.866    522.595    522.595    522.595
 82.070    781.447    760.933     20.513    522.567    761.003    522.567    522.567    522.567
 82.170    713.000    748.782    -35.782    522.537    748.853    522.537    522.537    522.537
 82.270    779.000    734.083     44.917    522.506    734.154    522.506    522.506    522.506
 82.370    674.000    717.733    -43.733    522.474    717.802    522.474    522.474    522.474
 82.470    641.338    700.608    -59.271    522.439    700.674    522.439    522.439    522.439
 82.570    669.000    683.393    -14.393    522.403    683.456    522.403    522.403    522.403
 82.670    656.000    666.543    -10.543    522.366    666.601    522.366    522.366    522.366
 82.770    608.000    650.374    -42.374    522.327    650.427    522.327    522.327    522.327
 82.870    578.295    635.188    -56.893    522.286    635.235    522.286    522.286    522.286
 82.970    602.000    621.314    -19.314    522.243    621.354    522.243    522.243    522.243
 83.070    602.000    609.083     -7.083    522.199    609.116    522.199    522.199    522.199
 83.170    582.000    598.766    -16.766    522.153    598.792    522.153    522.153    522.153
 83.270    581.663    590.544     -8.881    522.106    590.561    522.106    522.106    522.106
 83.370    551.000    584.497    -33.497    522.057    584.507    522.057    522.057    522.057
 83.470    579.000    580.614     -1.614    522.006    580.616    522.006    522.006    522.006
 83.570    546.000    578.796    -32.796    521.953    578.790    521.953    521.953    521.953
 83.670    583.000    578.852      4.148    521.899    578.838    521.899    521.899    521.899
 83.770    597.000    580.507     16.493    521.843    580.485    521.843    521.843    521.843
 83.870    585.000    583.391      1.609    521.786    583.363    521.786    521.786    521.786
 83.970    558.000    587.052    -29.052    521.726    587.017    521.726    521.726    521.726
 84.070    601.000    590.954     10.046    521.665    590.913    521.665    521.665    521.665
 84.170    556.000    594.499    -38.499    521.603    594.454    521.603    521.603    521.603
 84.270    580.000    597.079    -17.079    521.538    597.032    521.538    521.538    521.538
 84.370    591.000    598.167     -7.167    521.472    598.118    521.472    521.472    521.472
 84.470    562.000    597.441    -35.441    521.404    597.393    521.404    521.404    521.404
 84.570    556.000    594.874    -38.874    521.335    594.830    521.335    521.335    521.335
 84.670    546.000    590.725    -44.725    521.263    590.684    521.263    521.263    521.263
 84.770    592.000    585.431      6.569    521.190    585.395    521.190    521.190    521.190
 84.870    614.075    579.486     34.589    521.115    579.455    521.115    521.115    521.115
 84.970    582.796    573.345      9.451    521.039    573.319    521.039    521.039    521.039
 85.070    570.318    567.375      2.943    520.960    567.354    520.960    520.960    520.960
 85.170    548.000    561.825    -13.825    520.880    561.807    520.880    520.880    520.880
 85.270    553.000    556.921     -3.921    520.798    556.906    520.798    520.798    520.798
 85.370    503.205    552.782    -49.577    520.714    552.770    520.714    520.714    520.714
 85.470    611.000    549.410     61.590    520.629    549.400    520.629    520.629    520.629
 85.570    544.970    546.777     -1.807    520.542    546.768    520.542    520.542    520.542
 85.670    579.271    544.823     34.448    520.453    544.815    520.453    520.453    520.453
 85.770    537.000    543.471     -6.471    520.362    543.464    520.362    520.362    520.362
 85.870    526.000    542.649    -16.649    520.269    542.642    520.269    520.269    520.269
 85.970    594.000    542.295     51.705    520.175    542.288    520.175    520.175    520.175
 86.070    585.000    542.374     42.626    520.079    542.366    520.079    520.079    520.079
 86.170    540.528    542.879     -2.350    519.981    542.869    519.981    519.981    519.981
 86.270    510.075    543.834    -33.759    519.881    543.823    519.881    519.881    519.881
 86.370    575.000    545.298     29.702    519.779    545.284    519.779    519.779    519.779
 86.470    548.011    547.355      0.656    519.676    547.339    519.676    519.676    519.676
 86.570    538.749    550.117    -11.368    519.570    550.097    519.570    519.570    519.570
 86.670    576.000    553.707     22.293    519.463    553.683    519.463    519.463    519.463
 86.770    563.000    558.247      4.753    519.355    558.216    519.355    519.355    519.355
 86.870    565.000    563.841      1.159    519.244    563.804    519.244    519.244    519.244
 86.970    566.597    570.557     -3.960    519.131    570.512    519.131    519.131    519.131
 87.070    610.000    578.401     31.599    519.017    578.347    519.017    519.017    519.017
 87.170    612.000    587.290     24.710    518.901    587.226    518.901    518.901    518.901
 87.270    603.578    597.031      6.547    518.783    596.956    518.783    518.783    518.783
 87.370    575.059    607.302    -32.243    518.663    607.216    518.663    518.663    518.663
 87.470    632.000    617.643     14.357    518.542    617.546    518.542    518.542    518.542
 87.570    607.000    627.452    -20.452    518.418    627.346    518.418    518.418    518.418
 87.670    674.999    636.019     38.980    518.293    635.906    518.293    518.293    518.293
 87.770    654.000    642.599     11.401    518.166    642.482    518.166    518.166    518.166
 87.870    647.000    646.554      0.446    518.037    646.438    518.037    518.037    518.037
 87.970    686.000    647.527     38.473    517.906    647.415    517.906    517.906    517.906
 88.070    646.000    645.548      0.452    517.774    645.444    517.774    517.774    517.774
 88.170    624.162    641.024    -16.862    517.640    640.930    517.640    517.640    517.640
 88.270    615.000    634.619    -19.619    517.503    634.537    517.503    517.503    517.503
 88.370    657.925    627.105     30.820    517.365    627.037    517.365    517.365    517.365
 88.470    628.000    619.255      8.745    517.226    619.200    517.226    517.226    517.226
 88.570    622.000    611.775     10.225    517.084    611.732    517.084    517.084    517.084
 88.670    558.000    605.263    -47.263    516.940    605.233    516.940    516.940    516.940
 88.770    589.215    600.185    -10.969    516.795    600.166    516.795    516.795    516.795
 88.870    603.000    596.848      6.152    516.648    596.839    516.648    516.648    516.648
 88.970    610.000    595.396     14.604    516.499    595.397    516.499    516.499    516.499
 89.070    602.840    595.808      7.032    516.348    595.818    516.348    516.348    516.348
 89.170    568.000    597.906    -29.906    516.196    597.924    516.196    516.196    516.196
 89.270    634.000    601.369     32.631    516.041    601.396    516.041    516.041    516.041
 89.370    582.293    605.751    -23.458    515.885    605.786    515.885    515.885    515.885
 89.470    629.000    610.496     18.504    515.727    610.538    515.727    515.727    515.727
 89.570    604.000    614.968    -10.968    515.567    615.018    515.567    515.567    515.567
 89.670    670.359    618.504     51.855    515.405    618.560    515.405    515.405    515.405
 89.770    585.000    620.498    -35.498    515.242    620.558    515.242    515.242    515.242
 89.870    546.000    620.513    -74.513    515.077    620.576    515.077    515.077    515.077
 89.970    584.425    618.388    -33.963    514.910    618.452    514.910    514.910    514.910
 90.070    583.000    614.264    -31.264    514.741    614.326    514.741    514.741    514.741
 90.170    623.000    608.518     14.482    514.570    608.577    514.570    514.570    514.570
 90.270    619.000    601.651     17.349    514.398    601.705    514.398    514.398    514.398
 90.370    603.000    594.178      8.822    514.224    594.226    514.224    514.224    514.224
 90.470    622.000    586.561     35.439    514.048    586.603    514.048    514.048    514.048
 90.570    594.000    579.180     14.820    513.870    579.216    513.870    513.870    513.870
 90.670    547.091    572.324    -25.233    513.690    572.354    513.690    513.690    513.690
 90.770    547.000    566.192    -19.192    513.509    566.216    513.509    513.509    513.509
 90.870    483.000    560.902    -77.902    513.326    560.921    513.326    513.326    513.326
 90.970    571.077    556.502     14.575    513.141    556.517    513.141    513.141    513.141
 91.070    543.000    552.984     -9.984    512.954    552.995    512.954    512.954    512.954
 91.170    535.836    550.300    -14.464    512.766    550.307    512.766    512.766    512.766
 91.270    518.155    548.380    -30.225    512.576    548.385    512.576    512.576    512.576
 91.370    526.000    547.150    -21.150    512.384    547.153    512.384    512.384    512.384
 91.470    508.000    546.542    -38.542    512.190    546.543    512.190    512.190    512.190
 91.570    538.000    546.509     -8.509    511.995    546.508    511.995    511.995    511.995
 91.670    566.000    547.031     18.969    511.798    547.029    511.798    511.798    511.798
 91.770    538.000    548.121    -10.121    511.599    548.117    511.599    511.599    511.599
 91.870    581.063    549.825     31.238    511.399    549.820    511.399    511.399    511.399
 91.970    577.009    552.227     24.781    511.196    552.220    511.196    511.196    511.196
 92.070    536.000    555.440    -19.440    510.992    555.431    510.992    510.992    510.992
 92.170    534.000    559.603    -25.603    510.787    559.591    510.787    510.787    510.787
 92.270    522.000    564.873    -42.873    510.580    564.858    510.580    510.580    510.580
 92.370    587.000    571.411     15.589    510.371    571.392    510.371    510.371    510.371
 92.470    572.000    579.371     -7.371    510.160    579.348    510.160    510.160    510.160
 92.570    503.000    588.882    -85.882    509.948    588.854    509.948    509.948    509.948
 92.670    544.000    600.033    -56.033    509.734    599.999    509.734    509.734    509.734
 92.770    626.000    612.853     13.147    509.518    612.813    509.518    509.518    509.518
 92.870    624.000    627.301     -3.301    509.301    627.254    509.301    509.301    509.301
 92.970    615.000    643.245    -28.245    509.082    643.192    509.082    509.082    509.082
 93.070    633.000    660.453    -27.453    508.861    660.393    508.861    508.861    508.861
 93.170    675.764    678.581     -2.818    508.639    678.514    508.639    508.639    508.639
 93.270    735.000    697.177     37.823    508.415    697.103    508.415    508.415    508.415
 93.370    655.000    715.707    -60.707    508.190    715.629    508.190    508.190    508.190
 93.470    709.000    733.630    -24.630    507.963    733.548    507.963    507.963    507.963
 93.570    788.000    750.500     37.500    507.735    750.416    507.735    507.735    507.735
 93.670    770.000    766.060      3.940    507.504    765.975    507.504    507.504    507.504
 93.770    743.000    780.374    -37.374    507.273    780.289    507.273    507.273    507.273
 93.870    836.000    793.655     42.345    507.039    793.571    507.039    507.039    507.039
 93.970    839.585    806.209     33.376    506.805    806.126    506.805    506.805    506.805
 94.070    838.000    818.302     19.698    506.568    818.221    506.568    506.568    506.568
 94.170    836.000    830.078      5.922    506.331    829.999    506.331    506.331    506.331
 94.270    793.000    841.571    -48.571    506.091    841.495    506.091    506.091    506.091
 94.370    870.660    852.775     17.885    505.850    852.701    505.850    505.850    505.850
 94.470    836.000    863.720    -27.720    505.608    863.649    505.608    505.608    505.608
 94.570    905.902    874.480     31.422    505.364    874.412    505.364    505.364    505.364
 94.670    840.000    885.096    -45.096    505.119    885.031    505.119    505.119    505.119
 94.770    897.000    895.442      1.558    504.872    895.380    504.872    504.872    504.872
 94.870    917.000    905.113     11.887    504.624    905.056    504.624    504.624    504.624
 94.970    946.000    913.378     32.622    504.374    913.326    504.374    504.374    504.374
 95.070    953.656    919.222     34.434    504.123    919.177    504.123    504.123    504.123
 95.170    916.000    921.484     -5.484    503.870    921.446    503.870    503.870    503.870
 95.270    948.174    919.097     29.077    503.617    919.067    503.617    503.617    503.617
 95.370    928.000    911.377     16.623    503.361    911.355    503.361    503.361    503.361
 95.470    966.917    898.262     68.655    503.105    898.248    503.105    503.105    503.105
 95.570    899.000    880.381     18.619    502.847    880.373    502.847    502.847    502.847
 95.670    879.000    858.935     20.065    502.587    858.933    502.587    502.587    502.587
 95.770    857.000    835.464     21.536    502.327    835.465    502.327    502.327    502.327
 95.870    873.635    811.622     62.013    502.065    811.625    502.065    502.065    502.065
 95.970    760.000    789.023    -29.023    501.801    789.026    501.801    501.801    501.801
 96.070    776.000    769.169      6.831    501.537    769.171    501.537    501.537    501.537
 96.170    815.751    753.413     62.338    501.271    753.412    501.271    501.271    501.271
 96.270    719.000    742.955    -23.955    501.004    742.950    501.004    501.004    501.004
 96.370    723.000    738.831    -15.831    500.735    738.821    500.735    500.735    500.735
 96.470    728.000    741.910    -13.910    500.465    741.893    500.465    500.465    500.465
 96.570    754.000    752.884      1.116    500.195    752.860    500.195    500.195    500.195
 96.670    775.000    772.255      2.745    499.923    772.222    499.923    499.923    499.923
 96.770    839.790    800.310     39.481    499.649    800.268    499.649    499.649    499.649
 96.870    844.000    837.088      6.912    499.375    837.037    499.375    499.375    499.375
 96.970    951.990    882.344     69.647    499.099    882.283    499.099    499.099    499.099
 97.070    907.000    935.491    -28.491    498.822    935.421    498.822    498.822    498.822
 97.170   1036.000    995.550     40.450    498.545    995.472    498.545    498.545    498.545
 97.270   1066.000   1061.101      4.899    498.266   1061.016    498.266    498.266    498.266
 97.370   1154.000   1130.233     23.767    497.986   1130.144    497.986    497.986    497.986
 97.470   1169.816   1200.524    -30.708    497.704   1200.432    497.704    497.704    497.704
 97.570   1275.000   1269.034      5.966    497.422   1268.942    497.422    497.422    497.422
 97.670   1397.000   1332.371     64.629    497.139   1332.284    497.139    497.139    497.139
 97.770   1452.000   1386.868     65.132    496.855   1386.790    496.855    496.855    496.855
 97.870   1476.415   1428.924     47.491    496.570   1428.858    496.570    496.570    496.570
 97.970   1488.000   1455.517     32.483    496.283   1455.467    496.283    496.283    496.283
 98.070   1494.000   1464.764     29.236    495.996   1464.733    495.996    495.996    495.996
 98.170   1492.000   1456.318     35.682    495.708   1456.306    495.708    495.708    495.708
 98.270   1376.593   1431.409    -54.816    495.419   1431.414    495.419    495.419    495.419
 98.370   1312.000   1392.536    -80.536    495.129   1392.557    495.129    495.129    495.129
 98.470   1422.427   1342.975     79.452    494.838   1343.008    494.838    494.838    494.838
 98.570   1285.189   1286.292     -1.103    494.546   1286.334    494.546    494.546    494.546
 98.670   1292.974   1226.000     66.974    494.254   1226.046    494.254    494.254    494.254
 98.770   1188.000   1165.340     22.660    493.960   1165.388    493.960    493.960    493.960
 98.870   1072.000   1107.171    -35.171    493.666   1107.218    493.666    493.666    493.666
 98.970   1087.000   1053.977     33.023    493.371   1054.020    493.371    493.371    493.371
 99.070   1029.000   1007.885     21.115    493.075   1007.922    493.075    493.075    493.075
 99.170    986.000    970.557     15.443    492.779    970.587    492.779    492.779    492.779
 99.270    922.000    943.351    -21.351    492.481    943.374    492.481    492.481    492.481
 99.370    985.233    927.318     57.915    492.183    927.333    492.183    492.183    492.183
 99.470    922.000    923.213     -1.213    491.885    923.222    491.885    491.885    491.885
 99.570    920.731    931.513    -10.782    491.585    931.515    491.585    491.585    491.585
 99.670    933.000    952.421    -19.421    491.285    952.417    491.285    491.285    491.285
 99.770   1019.000    985.873     33.127    490.985    985.864    490.985    490.985    490.985
 99.870   1074.738   1031.526     43.212    490.684   1031.515    490.684    490.684    490.684
 99.970   1014.899   1088.742    -73.843    490.382   1088.729    490.382    490.382    490.382
100.070   1181.000   1156.544     24.456    490.080   1156.534    490.080    490.080    490.080
100.170   1258.969   1233.581     25.389    489.777   1233.575    489.777    489.777    489.777
100.270   1394.000   1318.068     75.932    489.473   1318.070    489.473    489.473    489.473
100.370   1362.538   1407.757    -45.219    489.170   1407.769    489.170    489.170    489.170
100.470   1439.143   1499.927    -60.785    488.865   1499.954    488.865    488.865    488.865
100.570   1661.124   1591.492     69.632    488.560   1591.536    488.560    488.560    488.560
100.670   1670.000   1679.125     -9.125    488.255   1679.190    488.255    488.255    488.255
100.770   1857.000   1759.588     97.412    487.950   1759.676    487.950    487.950    487.950
100.870   1896.367   1830.047     66.319    487.644   1830.159    487.644    487.644    487.644
100.970   1954.000   1888.304     65.696    487.338   1888.439    487.338    487.338    487.338
101.070   1953.000   1932.823     20.177    487.031   1932.981    487.031    487.031    487.031
101.170   1981.486   1962.584     18.902    486.724   1962.762    486.724    486.724    486.724
101.270   2051.856   1976.869     74.987    486.417   1977.064    486.417    486.417    486.417
101.370   2003.000   1975.175     27.825    486.110   1975.385    486.110    486.110    486.110
101.470   2017.000   1957.352     59.648    485.803   1957.573    485.803    485.803    485.803
101.570   1857.580   1923.912    -66.332    485.495   1924.139    485.495    485.495    485.495
101.670   1845.000   1876.322    -31.322    485.187   1876.551    485.187    485.187    485.187
101.770   1815.000   1817.094     -2.094    484.879   1817.320    484.879    484.879    484.879
101.870   1670.539   1749.561    -79.022    484.571   1749.781    484.571    484.571    484.571
101.970   1725.000   1677.442     47.558    484.263   1677.651    484.263    484.263    484.263
102.070   1607.000   1604.361      2.639    483.955   1604.558    483.955    483.955    483.955
102.170   1556.000   1533.476     22.524    483.647   1533.660    483.647    483.647    483.647
102.270   1446.000   1467.263    -21.263    483.338   1467.432    483.338    483.338    483.338
102.370   1482.401   1407.425     74.976    483.030   1407.580    483.030    483.030    483.030
102.470   1418.971   1354.894     64.078    482.722   1355.035    482.722    482.722    482.722
102.570   1254.380   1309.865    -55.485    482.414   1309.994    482.414    482.414    482.414
102.670   1233.583   1271.862    -38.278    482.106   1271.980    482.106    482.106    482.106
102.770   1177.000   1239.816    -62.816    481.799   1239.926    481.799    481.799    481.799
102.870   1182.773   1212.189    -29.416    481.491   1212.293    481.491    481.491    481.491
102.970   1169.668   1187.133    -17.466    481.184   1187.233    481.184    481.184    481.184
103.070   1093.000   1162.720    -69.720    480.877   1162.817    480.877    480.877    480.877
103.170   1173.553   1137.192     36.361    480.570   1137.287    480.570    480.570    480.570
103.270   1129.000   1109.251     19.749    480.264   1109.346    480.264    480.264    480.264
103.370   1016.821   1078.202    -61.381    479.958   1078.296    479.958    479.958    479.958
103.470    981.565   1043.943    -62.378    479.652   1044.035    479.652    479.652    479.652
103.570   1001.241   1006.887     -5.645    479.347   1006.977    479.347    479.347    479.347
103.670    986.000    967.787     18.213    479.042    967.874    479.042    479.042    479.042
103.770    873.906    927.560    -53.653    478.738    927.642    478.738    478.738    478.738
103.870    889.053    887.141      1.911    478.434    887.218    478.434    478.434    478.434
103.970    891.000    847.410     43.590    478.130    847.482    478.130    478.130    478.130
104.070    837.000    809.137     27.863    477.828    809.202    477.828    477.828    477.828
104.170    781.000    772.963      8.037    477.525    773.021    477.525    477.525    477.525
104.270    779.000    739.386     39.614    477.224    739.438    477.224    477.224    477.224
104.370    697.000    708.761    -11.761    476.923    708.807    476.923    476.923    476.923
104.470    627.358    681.300    -53.942    476.623    681.339    476.623    476.623    476.623
104.570    639.649    657.080    -17.432    476.323    657.114    476.323    476.323    476.323
104.670    634.000    636.066     -2.066    476.025    636.094    476.025    476.025    476.025
104.770    656.000    618.124     37.876    475.727    618.147    475.727    475.727    475.727
104.870    608.000    603.050      4.950    475.430    603.069    475.430    475.430    475.430
104.970    629.386    590.593     38.793    475.134    590.609    475.134    475.134    475.134
105.070    523.697    580.481    -56.785    474.839    580.493    474.839    474.839    474.839
105.170    568.792    572.438     -3.646    474.544    572.447    474.544    474.544    474.544
105.270    566.000    566.204     -0.204    474.251    566.210    474.251    474.251    474.251
105.370    556.000    561.543     -5.543    473.959    561.547    473.959    473.959    473.959
105.470    518.906    558.257    -39.351    473.668    558.258    473.668    473.668    473.668
105.570    563.330    556.186      7.144    473.377    556.186    473.377    473.377    473.377
105.670    554.000    555.211     -1.211    473.088    555.208    473.088    473.088    473.088
105.770    577.000    555.249     21.751    472.801    555.245    472.801    472.801    472.801
105.870    556.327    556.254      0.072    472.514    556.248    472.514    472.514    472.514
105.970    595.000    558.208     36.792    472.229    558.199    472.229    472.229    472.229
106.070    542.194    561.116    -18.922    471.945    561.104    471.945    471.945    471.945
106.170    535.909    565.000    -29.091    471.662    564.985    471.662    471.662    471.662
106.270    527.773    569.890    -42.117    471.380    569.873    471.380    471.380    471.380
106.370    574.369    575.818     -1.449    471.101    575.799    471.101    471.101    471.101
106.470    607.775    582.808     24.967    470.822    582.785    470.822    470.822    470.822
106.570    583.000    590.861     -7.861    470.545    590.835    470.545    470.545    470.545
106.670    599.000    599.953     -0.953    470.269    599.923    470.269    470.269    470.269
106.770    654.788    610.017     44.771    469.995    609.985    469.995    469.995    469.995
106.870    561.907    620.946    -59.038    469.723    620.910    469.723    469.723    469.723
106.970    662.022    632.574     29.448    469.452    632.535    469.452    469.452    469.452
107.070    667.000    644.684     22.316    469.183    644.642    469.183    469.183    469.183
107.170    674.000    657.054     16.946    468.916    657.010    468.916    468.916    468.916
107.270    710.322    669.355     40.967    468.650    669.309    468.650    468.650    468.650
107.370    670.000    681.234    -11.234    468.387    681.186    468.387    468.387    468.387
107.470    691.615    692.309     -0.694    468.125    692.261    468.125    468.125    468.125
107.570    714.762    702.198     12.564    467.865    702.150    467.865    467.865    467.865
107.670    718.732    710.549      8.183    467.607    710.502    467.607    467.607    467.607
107.770    704.533    717.095    -12.561    467.351    717.050    467.351    467.351    467.351
107.870    718.000    721.696     -3.696    467.097    721.653    467.097    467.097    467.097
107.970    713.000    724.374    -11.374    466.845    724.335    466.845    466.845    466.845
108.070    676.000    725.317    -49.317    466.595    725.283    466.595    466.595    466.595
108.170    715.000    724.850     -9.850    466.347    724.819    466.347    466.347    466.347
108.270    709.992    723.380    -13.388    466.101    723.353    466.101    466.101    466.101
108.370    687.000    721.342    -34.342    465.858    721.319    465.858    465.858    465.858
108.470    700.000    719.145    -19.145    465.617    719.127    465.617    465.617    465.617
108.570    704.000    717.137    -13.137    465.379    717.123    465.379    465.379    465.379
108.670    746.565    715.579     30.987    465.142    715.568    465.142    465.142    465.142
108.770    677.000    714.632    -37.632    464.909    714.625    464.909    464.909    464.909
108.870    701.000    714.356    -13.356    464.677    714.352    464.677    464.677    464.677
108.970    685.000    714.704    -29.704    464.448    714.704    464.448    464.448    464.448
109.070    738.000    715.527     22.473    464.222    715.530    464.222    464.222    464.222
109.170    694.017    716.584    -22.567    463.999    716.590    463.999    463.999    463.999
109.270    668.725    717.553    -48.828    463.778    717.562    463.778    463.778    463.778
109.370    707.947    718.059    -10.112    463.559    718.071    463.559    463.559    463.559
109.470    664.008    717.710    -53.702    463.344    717.725    463.344    463.344    463.344
109.570    734.353    716.144     18.209    463.131    716.161    463.131    463.131    463.131
109.670    688.000    713.079    -25.079    462.921    713.098    462.921    462.921    462.921
109.770    709.000    708.356      0.644    462.715    708.377    462.715    462.715    462.715
109.870    692.000    701.956     -9.956    462.511    701.978    462.511    462.511    462.511
109.970    690.000    693.999     -3.999    462.310    694.022    462.310    462.310    462.310
110.070    703.000    684.714     18.286    462.112    684.737    462.112    462.112    462.112
110.170    700.000    674.400     25.600    461.917    674.422    461.917    461.917    461.917
110.270    669.000    663.383      5.617    461.725    663.405    461.725    461.725    461.725
110.370    665.801    651.993     13.807    461.537    652.014    461.537    461.537    461.537
110.470    635.000    640.538     -5.538    461.352    640.557    461.352    461.352    461.352
110.570    640.000    629.292     10.708    461.170    629.310    461.170    461.170    461.170
110.670    623.909    618.495      5.414    460.992    618.511    460.992    460.992    460.992
110.770    666.029    608.343     57.686    460.817    608.357    460.817    460.817    460.817
110.870    610.000    598.991     11.009    460.645    599.002    460.645    460.645    460.645
110.970    598.000    590.553      7.447    460.477    590.562    460.477    460.477    460.477
111.070    594.589    583.104     11.486    460.313    583.111    460.313    460.313    460.313
111.170    605.000    576.680     28.320    460.152    576.685    460.152    460.152    460.152
111.270    526.425    571.287    -44.862    459.995    571.291    459.995    459.995    459.995
111.370    561.000    566.903     -5.903    459.842    566.904    459.842    459.842    459.842
111.470    567.000    563.480      3.520    459.692    563.480    459.692    459.692    459.692
111.570    583.000    560.958     22.042    459.546    560.957    459.546    459.546    459.546
111.670    637.000    559.263     77.737    459.404    559.260    459.404    459.404    459.404
111.770    592.000    558.315     33.685    459.267    558.311    459.267    459.267    459.267
111.870    612.000    558.033     53.967    459.133    558.027    459.133    459.133    459.133
111.970    560.000    558.333      1.667    459.003    558.326    459.003    459.003    459.003
112.070    601.865    559.145     42.720    458.877    559.137    458.877    458.877    458.877
112.170    589.000    560.392     28.608    458.756    560.384    458.756    458.756    458.756
112.270    565.000    562.034      2.966    458.639    562.024    458.639    458.639    458.639
112.370    572.365    564.013      8.352    458.526    564.003    458.526    458.526    458.526
112.470    584.466    566.292     18.174    458.417    566.282    458.417    458.417    458.417
112.570    548.000    568.847    -20.847    458.313    568.836    458.313    458.313    458.313
112.670    540.000    571.667    -31.667    458.214    571.656    458.214    458.214    458.214
112.770    562.000    574.756    -12.756    458.118    574.745    458.118    458.118    458.118
112.870    530.508    578.132    -47.625    458.028    578.120    458.028    458.028    458.028
112.970    572.000    581.827     -9.827    457.942    581.814    457.942    457.942    457.942
113.070    591.000    585.885      5.115    457.861    585.872    457.861    457.861    457.861
113.170    576.597    590.370    -13.772    457.785    590.356    457.785    457.785    457.785
113.270    573.000    595.360    -22.360    457.713    595.346    457.713    457.713    457.713
113.370    593.000    600.959     -7.959    457.646    600.945    457.646    457.646    457.646
113.470    632.373    607.298     25.075    457.585    607.282    457.585    457.585    457.585
113.570    653.000    614.543     38.457    457.528    614.526    457.528    457.528    457.528
113.670    657.000    622.906     34.094    457.477    622.887    457.477    457.477    457.477
113.770    675.519    632.655     42.864    457.430    632.634    457.430    457.430    457.430
113.870    707.000    644.129     62.871    457.389    644.105    457.389    457.389    457.389
113.970    686.000    657.752     28.248    457.353    657.725    457.353    457.353    457.353
114.070    705.000    674.049     30.951    457.322    674.018    457.322    457.322    457.322
114.170    731.817    693.669     38.148    457.297    693.632    457.297    457.297    457.297
114.270    716.236    717.395     -1.159    457.277    717.352    457.277    457.277    457.277
114.370    730.000    746.168    -16.168    457.263    746.117    457.263    457.263    457.263
114.470    791.580    781.101     10.480    457.254    781.039    457.254    457.254    457.254
114.570    774.000    823.485    -49.485    457.251    823.410    457.251    457.251    457.251
114.670    933.228    874.800     58.427    457.254    874.711    457.254    457.254    457.254
114.770    968.297    936.706     31.591    457.263    936.599    457.263    457.263    457.263
114.870   1054.825   1011.030     43.796    457.277   1010.901    457.277    457.277    457.277
114.970   1129.000   1099.732     29.268    457.297   1099.580    457.297    457.297    457.297
115.070   1198.001   1204.868     -6.867    457.323   1204.688    457.323    457.323    457.323
115.170   1324.002   1328.522     -4.520    457.356   1328.311    457.356    457.356    457.356
115.270   1556.000   1472.732     83.268    457.394   1472.486    457.394    457.394    457.394
115.370   1595.484   1639.389    -43.905    457.439   1639.106    457.439    457.439    457.439
115.470   1858.000   1830.135     27.865    457.490   1829.811    457.490    457.490    457.490
115.570   2210.000   2046.235    163.765    457.547   2045.868    457.547    457.547    457.547
115.670   2379.246   2288.453     90.794    457.610   2288.041    457.610    457.610    457.610
115.770   2721.000   2556.924    164.076    457.680   2556.468    457.680    457.680    457.680
115.870   2727.607   2851.034   -123.427    457.757   2850.534    457.757    457.757    457.757
115.970   3202.000   3169.307     32.693    457.840   3168.766    457.840    457.840    457.840
116.070   3493.488   3509.320    -15.831    457.930   3508.740    457.930    457.930    457.930
116.170   3959.000   3867.632     91.368    458.026   3867.020    458.026    458.026    458.026
116.270   4294.036   4239.750     54.286    458.130   4239.112    458.130    458.130    458.130
116.370   4789.000   4620.108    168.892    458.240   4619.454    458.240    458.240    458.240
116.470   5096.000   5002.095     93.905    458.357   5001.434    458.357    458.357    458.357
116.570   5443.000   5378.100     64.900    458.481   5377.445    458.481    458.481    458.481
116.670   5789.000   5739.617     49.383    458.612   5738.981    458.612    458.612    458.612
116.770   6010.000   6077.414    -67.414    458.751   6076.812    458.751    458.751    458.751
116.870   6367.135   6381.806    -14.671    458.897   6381.253    458.897    458.897    458.897
116.970   6739.000   6643.067     95.933    459.050   6642.579    459.050    459.050    459.050
117.070   7016.989   6852.001    164.988    459.210   6851.593    459.210    459.210    459.210
117.170   6951.910   7000.650    -48.740    459.378   7000.332    459.378    459.378    459.378
117.270   7085.000   7083.048      1.952    459.553   7082.830    459.553    459.553    459.553
117.370   7039.000   7095.890    -56.890    459.736   7095.775    459.736    459.736    459.736
117.470   6980.000   7038.925    -58.925    459.927   7038.912    459.927    459.927    459.927
117.570   6836.000   6914.988    -78.988    460.126   6915.072    460.126    460.126    460.126
117.670   6813.000   6729.639     83.361    460.332   6729.811    460.332    460.332    460.332
117.770   6286.000   6490.527   -204.527    460.546   6490.774    460.546    460.546    460.546
117.870   6150.000   6206.626    -56.626    460.768   6206.936    460.768    460.768    460.768
117.970   6048.732   5887.490    161.241    460.999   5887.847    460.999    460.999    460.999
118.070   5321.000   5542.761   -221.761    461.237   5543.152    461.237    461.237    461.237
118.170   5038.000   5181.635   -143.635    461.484   5182.046    461.484    461.484    461.484
118.270   4789.000   4812.551    -23.551    461.739   4812.969    461.739    461.739    461.739
118.370   4464.000   4443.080     20.920    462.002   4443.495    462.002    462.002    462.002
118.470   3975.976   4079.797   -103.821    462.274   4080.200    462.274    462.274    462.274
118.570   3575.000   3728.227   -153.227    462.554   3728.610    462.554    462.554    462.554
118.670   3423.176   3392.834     30.343    462.843   3393.191    462.843    462.843    462.843
118.770   3046.000   3077.038    -31.038    463.141   3077.365    463.141    463.141    463.141
118.870   2715.000   2783.274    -68.274    463.447   2783.568    463.447    463.447    463.447
118.970   2559.000   2513.070     45.930    463.762   2513.329    463.762    463.762    463.762
119.070   2170.245   2267.143    -96.898    464.086   2267.368    464.086    464.086    464.086
119.170   2013.000   2045.516    -32.516    464.420   2045.707    464.420    464.420    464.420
119.270   1761.000   1847.632    -86.632    464.762   1847.792    464.762    464.762    464.762
119.370   1606.497   1672.472    -65.975    465.113   1672.603    465.113    465.113    465.113
119.470   1414.000   1518.664   -104.664    465.474   1518.769    465.474    465.474    465.474
119.570   1424.739   1384.590     40.149    465.844   1384.673    465.844    465.844    465.844
119.670   1316.000   1268.483     47.517    466.224   1268.546    466.224    466.224    466.224
119.770   1245.107   1168.507     76.599    466.613   1168.554    466.613    466.613    466.613
119.870   1076.000   1082.836     -6.836    467.012   1082.869    467.012    467.012    467.012
119.970    998.000   1009.705    -11.705    467.420   1009.728    467.420    467.420    467.420
120.070    891.346    947.461    -56.115    467.838    947.475    467.838    467.838    467.838
120.170    893.000    894.587     -1.587    468.266    894.596    468.266    468.266    468.266
120.270    796.000    849.724    -53.724    468.704    849.728    468.704    468.704    468.704
120.370    766.000    811.672    -45.672    469.152    811.673    469.152    469.152    469.152
120.470    794.000    779.391     14.609    469.610    779.391    469.610    469.610    469.610
120.570    735.000    751.995    -16.995    470.078    751.993    470.078    470.078    470.078
120.670    753.000    728.731     24.269    470.557    728.730    470.557    470.557    470.557
120.770    761.585    708.974     52.612    471.046    708.973    471.046    471.046    471.046
120.870    724.662    692.204     32.458    471.545    692.203    471.545    471.545    471.545
120.970    682.000    677.993      4.007    472.055    677.994    472.055    472.055    472.055
121.070    670.000    665.993      4.007    472.576    665.995    472.576    472.576    472.576
121.170    605.000    655.916    -50.916    473.107    655.919    473.107    473.107    473.107
121.270    643.000    647.530     -4.530    473.649    647.533    473.649    473.649    473.649
121.370    630.599    640.640    -10.042    474.202    640.645    474.202    474.202    474.202
121.470    590.572    635.090    -44.518    474.766    635.096    474.766    474.766    474.766
121.570    625.000    630.745     -5.745    475.341    630.752    475.341    475.341    475.341
121.670    577.522    627.492    -49.971    475.928    627.501    475.928    475.928    475.928
121.770    644.000    625.235     18.765    476.525    625.245    476.525    476.525    476.525
121.870    601.399    623.884    -22.485    477.134    623.896    477.134    477.134    477.134
121.970    618.000    623.359     -5.359    477.755    623.373    477.755    477.755    477.755
122.070    660.000    623.585     36.415    478.387    623.600    478.387    478.387    478.387
122.170    574.000    624.484    -50.484    479.030    624.501    479.030    479.030    479.030
122.270    586.000    625.982    -39.982    479.685    626.002    479.685    479.685    479.685
122.370    647.000    628.002     18.998    480.353    628.023    480.353    480.353    480.353
122.470    671.823    630.459     41.363    481.032    630.483    481.032    481.032    481.032
122.570    643.329    633.270     10.059    481.723    633.296    481.723    481.723    481.723
122.670    649.000    636.340     12.660    482.426    636.370    482.426    482.426    482.426
122.770    638.000    639.574     -1.574    483.141    639.606    483.141    483.141    483.141
122.870    605.000    642.866    -37.866    483.869    642.901    483.869    483.869    483.869
122.970    680.000    646.108     33.892    484.609    646.146    484.609    484.609    484.609
123.070    639.000    649.187    -10.187    485.362    649.228    485.362    485.362    485.362
123.170    656.659    651.990      4.669    486.127    652.034    486.127    486.127    486.127
123.270    637.196    654.404    -17.208    486.905    654.450    486.905    486.905    486.905
123.370    702.094    656.325     45.769    487.696    656.373    487.696    487.696    487.696
123.470    663.000    657.659      5.341    488.499    657.710    488.499    488.499    488.499
123.570    646.000    658.334    -12.334    489.316    658.387    489.316    489.316    489.316
123.670    672.000    658.298     13.702    490.145    658.353    490.145    490.145    490.145
123.770    670.000    657.528     12.472    490.988    657.583    490.988    490.988    490.988
123.870    690.000    656.025     33.975    491.844    656.080    491.844    491.844    491.844
123.970    600.903    653.818    -52.915    492.714    653.874    492.714    492.714    492.714
124.070    656.000    650.957      5.043    493.597    651.012    493.597    493.597    493.597
124.170    612.000    647.509    -35.509    494.493    647.563    494.493    494.493    494.493
124.270    657.000    643.549     13.451    495.403    643.602    495.403    495.403    495.403
124.370    642.184    639.161      3.023    496.328    639.212    496.328    496.328    496.328
124.470    654.000    634.431     19.569    497.265    634.480    497.265    497.265    497.265
124.570    632.000    629.444      2.556    498.217    629.490    498.217    498.217    498.217
124.670    637.000    624.283     12.717    499.183    624.327    499.183    499.183    499.183
124.770    614.000    619.027     -5.027    500.164    619.068    500.164    500.164    500.164
124.870    653.000    613.752     39.248    501.158    613.790    501.158    501.158    501.158
124.970    622.000    608.525     13.475    502.167    608.561    502.167    502.167    502.167
