neutron_powder_diffraction_0080
R_wp: 4.643
Temperature (K): 794.037
Counts: 83509.00
Wavelength (Ã…): 2.52098
COMMENTS
Test file for demonstrating the .xyy file format in Reel1.0
END OF HEADER
   tth       Y_obs     Y_calc      Y_res    Background    Phase_1_Nuc    Phase_1_Mag    Phase_2_Nuc    Phase_2_Mag
  9.970    640.000    584.643     55.357    583.542    584.643    583.542    583.542    583.542
 10.070    633.572    585.359     48.213    584.169    585.358    584.169    584.169    584.169
 10.170    645.000    586.074     58.926    584.783    586.074    584.783    584.783    584.783
 10.270    663.000    586.792     76.208    585.385    586.791    585.385    585.385    585.385
 10.370    560.006    587.516    -27.510    585.974    587.515    585.974    585.974    585.974
 10.470    596.596    588.252      8.345    586.551    588.251    586.551    586.551    586.551
 10.570    640.000    589.001     50.999    587.116    589.000    587.116    587.116    587.116
 10.670    600.837    589.770     11.067    587.668    589.769    587.668    587.668    587.668
 10.770    535.426    590.575    -55.150    588.209    590.574    588.209    588.209    588.209
 10.870    610.000    591.472     18.528    588.737    591.470    588.737    588.737    588.737
 10.970    650.697    592.481     58.216    589.254    592.480    589.254    589.254    589.254
 11.070    624.000    593.477     30.523    589.759    593.475    589.759    589.759    589.759
 11.170    543.501    594.577    -51.077    590.252    594.575    590.252    590.252    590.252
 11.270    592.000    595.843     -3.843    590.733    595.841    590.733    590.733    590.733
 11.370    614.582    597.357     17.225    591.203    597.354    591.203    591.203    591.203
 11.470    642.270    599.283     42.987    591.661    599.279    591.661    591.661    591.661
 11.570    626.000    602.009     23.991    592.108    602.003    592.108    592.108    592.108
 11.670    646.000    606.458     39.542    592.544    606.451    592.544    592.544    592.544
 11.770    649.000    614.553     34.447    592.969    614.541    592.969    592.969    592.969
 11.870    700.000    629.327     70.673    593.382    629.307    593.382    593.382    593.382
 11.970    717.000    653.745     63.255    593.785    653.713    593.785    593.785    593.785
 12.070    721.000    687.564     33.436    594.176    687.513    594.176    594.176    594.176
 12.170    685.946    722.603    -36.657    594.557    722.533    594.557    594.557    594.557
 12.270    729.000    740.407    -11.407    594.927    740.327    594.927    594.927    594.927
 12.370    760.934    727.386     33.547    595.287    727.314    595.287    595.287    595.287
 12.470    654.000    694.541    -40.541    595.636    694.487    595.636    595.636    595.636
 12.570    643.000    660.670    -17.670    595.974    660.635    595.974    595.974    595.974
 12.670    613.331    635.448    -22.117    596.302    635.427    596.302    596.302    596.302
 12.770    595.000    620.065    -25.065    596.620    620.052    596.620    596.620    596.620
 12.870    666.818    611.847     54.971    596.928    611.839    596.928    596.928    596.928
 12.970    587.000    607.685    -20.685    597.226    607.680    597.226    597.226    597.226
 13.070    597.000    605.487     -8.487    597.513    605.483    597.513    597.513    597.513
 13.170    619.642    604.200     15.442    597.791    604.196    597.791    597.791    597.791
 13.270    659.308    603.381     55.927    598.059    603.379    598.059    598.059    598.059
 13.370    548.000    602.845    -54.845    598.317    602.843    598.317    598.317    598.317
 13.470    643.240    602.468     40.772    598.565    602.466    598.565    598.565    598.565
 13.570    560.023    602.213    -42.190    598.804    602.211    598.804    598.804    598.804
 13.670    584.000    602.047    -18.047    599.033    602.046    599.033    599.033    599.033
 13.770    571.627    601.947    -30.320    599.253    601.946    599.253    599.253    599.253
 13.870    649.000    601.895     47.105    599.463    601.894    599.463    599.463    599.463
 13.970    600.115    601.882     -1.767    599.664    601.881    599.664    599.664    599.664
 14.070    615.000    601.891     13.109    599.857    601.890    599.857    599.857    599.857
 14.170    633.782    601.919     31.863    600.039    601.918    600.039    600.039    600.039
 14.270    553.795    601.960    -48.166    600.213    601.960    600.213    600.213    600.213
 14.370    555.000    602.012    -47.012    600.378    602.011    600.378    600.378    600.378
 14.470    607.000    602.070      4.930    600.535    602.069    600.535    600.535    600.535
 14.570    639.593    602.132     37.461    600.682    602.131    600.682    600.682    600.682
 14.670    549.469    602.196    -52.726    600.821    602.195    600.821    600.821    600.821
 14.770    642.931    602.261     40.670    600.951    602.260    600.951    600.951    600.951
 14.870    580.000    602.325    -22.325    601.072    602.324    601.072    601.072    601.072
 14.970    572.000    602.392    -30.392    601.185    602.392    601.185    601.185    601.185
 15.070    556.495    602.508    -46.013    601.290    602.508    601.290    601.290    601.290
 15.170    564.206    602.592    -38.385    601.386    602.591    601.386    601.386    601.386
 15.270    569.000    602.649    -33.649    601.475    602.648    601.475    601.475    601.475
 15.370    606.000    602.698      3.302    601.555    602.697    601.555    601.555    601.555
 15.470    565.000    602.742    -37.742    601.627    602.742    601.627    601.627    601.627
 15.570    569.000    602.781    -33.781    601.691    602.781    601.691    601.691    601.691
 15.670    576.000    602.815    -26.815    601.747    602.815    601.747    601.747    601.747
 15.770    641.048    602.844     38.204    601.795    602.843    601.795    601.795    601.795
 15.870    565.000    602.872    -37.872    601.835    602.871    601.835    601.835    601.835
 15.970    595.000    602.898     -7.898    601.868    602.897    601.868    601.868    601.868
 16.070    612.064    602.918      9.146    601.893    602.918    601.893    601.893    601.893
 16.170    545.000    602.924    -57.924    601.911    602.924    601.911    601.911    601.911
 16.270    577.756    602.928    -25.172    601.921    602.928    601.921    601.921    601.921
 16.370    580.000    602.972    -22.972    601.924    602.972    601.924    601.924    601.924
 16.470    597.000    602.976     -5.976    601.920    602.976    601.920    601.920    601.920
 16.570    624.981    602.959     22.022    601.908    602.959    601.908    601.908    601.908
 16.670    592.000    602.934    -10.934    601.889    602.934    601.889    601.889    601.889
 16.770    574.164    602.903    -28.740    601.863    602.903    601.863    601.863    601.863
 16.870    562.146    602.866    -40.720    601.830    602.866    601.830    601.830    601.830
 16.970    606.000    602.826      3.174    601.790    602.826    601.790    601.790    601.790
 17.070    578.330    602.806    -24.476    601.743    602.806    601.743    601.743    601.743
 17.170    573.000    602.765    -29.765    601.690    602.765    601.690    601.690    601.690
 17.270    614.000    602.705     11.295    601.629    602.705    601.629    601.629    601.629
 17.370    629.008    602.638     26.369    601.562    602.638    601.562    601.562    601.562
 17.470    619.000    602.565     16.435    601.489    602.565    601.489    601.489    601.489
 17.570    606.000    602.486      3.514    601.409    602.486    601.409    601.409    601.409
 17.670    571.000    602.402    -31.402    601.322    602.401    601.322    601.322    601.322
 17.770    599.000    602.312     -3.312    601.229    602.312    601.229    601.229    601.229
 17.870    571.000    602.233    -31.233    601.130    602.233    601.130    601.130    601.130
 17.970    583.000    602.149    -19.149    601.024    602.149    601.024    601.024    601.024
 18.070    577.627    602.073    -24.446    600.913    602.073    600.913    600.913    600.913
 18.170    553.000    601.971    -48.971    600.795    601.971    600.795    600.795    600.795
 18.270    566.332    601.858    -35.526    600.671    601.858    600.671    600.671    600.671
 18.370    609.483    601.755      7.728    600.541    601.755    600.541    600.541    600.541
 18.470    594.000    601.634     -7.634    600.405    601.634    600.405    600.405    600.405
 18.570    622.000    601.563     20.437    600.264    601.562    600.264    600.264    600.264
 18.670    554.000    601.442    -47.442    600.116    601.442    600.116    600.116    600.116
 18.770    579.000    601.322    -22.322    599.963    601.322    599.963    599.963    599.963
 18.870    585.220    601.174    -15.954    599.805    601.174    599.805    599.805    599.805
 18.970    580.000    601.021    -21.021    599.640    601.021    599.640    599.640    599.640
 19.070    574.000    600.884    -26.884    599.471    600.884    599.471    599.471    599.471
 19.170    547.906    600.747    -52.841    599.295    600.747    599.295    599.295    599.295
 19.270    573.000    600.584    -27.584    599.115    600.584    599.115    599.115    599.115
 19.370    551.000    600.412    -49.412    598.929    600.412    598.929    598.929    598.929
 19.470    609.000    600.234      8.766    598.738    600.234    598.738    598.738    598.738
 19.570    570.425    600.051    -29.626    598.541    600.051    598.541    598.541    598.541
 19.670    585.000    599.870    -14.870    598.340    599.870    598.340    598.340    598.340
 19.770    560.000    599.682    -39.682    598.133    599.682    598.133    598.133    598.133
 19.870    581.006    599.490    -18.484    597.922    599.490    597.922    597.922    597.922
 19.970    593.000    599.294     -6.294    597.705    599.294    597.705    597.705    597.705
 20.070    594.093    599.093     -5.000    597.484    599.093    597.484    597.484    597.484
 20.170    573.000    598.887    -25.887    597.258    598.887    597.258    597.258    597.258
 20.270    560.000    598.675    -38.675    597.027    598.675    597.027    597.027    597.027
 20.370    570.000    598.460    -28.460    596.791    598.460    596.791    596.791    596.791
 20.470    590.000    598.240     -8.240    596.551    598.240    596.551    596.551    596.551
 20.570    546.000    598.016    -52.016    596.306    598.016    596.306    596.306    596.306
 20.670    601.000    597.791      3.209    596.056    597.791    596.056    596.056    596.056
 20.770    558.000    597.561    -39.561    595.803    597.561    595.803    595.803    595.803
 20.870    547.741    597.329    -49.588    595.544    597.329    595.544    595.544    595.544
 20.970    556.566    597.093    -40.527    595.282    597.093    595.282    595.282    595.282
 21.070    603.000    596.853      6.147    595.015    596.853    595.015    595.015    595.015
 21.170    562.000    596.610    -34.610    594.744    596.610    594.744    594.744    594.744
 21.270    599.000    596.365      2.635    594.469    596.366    594.469    594.469    594.469
 21.370    544.000    596.118    -52.118    594.189    596.118    594.189    594.189    594.189
 21.470    600.000    595.869      4.131    593.906    595.869    593.906    593.906    593.906
 21.570    617.000    595.618     21.382    593.618    595.618    593.618    593.618    593.618
 21.670    599.903    595.365      4.538    593.327    595.365    593.327    593.327    593.327
 21.770    580.000    595.111    -15.111    593.032    595.111    593.032    593.032    593.032
 21.870    584.000    594.855    -10.855    592.733    594.856    592.733    592.733    592.733
 21.970    594.000    594.600     -0.600    592.430    594.600    592.430    592.430    592.430
 22.070    652.097    594.344     57.754    592.123    594.344    592.123    592.123    592.123
 22.170    632.000    594.089     37.911    591.813    594.089    591.813    591.813    591.813
 22.270    635.108    593.836     41.272    591.500    593.836    591.500    591.500    591.500
 22.370    608.000    593.584     14.416    591.182    593.584    591.182    591.182    591.182
 22.470    579.000    593.334    -14.334    590.861    593.334    590.861    590.861    590.861
 22.570    547.000    593.088    -46.088    590.537    593.088    590.537    590.537    590.537
 22.670    585.585    592.846     -7.260    590.209    592.846    590.209    590.209    590.209
 22.770    553.000    592.610    -39.610    589.879    592.610    589.879    589.879    589.879
 22.870    578.000    592.382    -14.382    589.544    592.382    589.544    589.544    589.544
 22.970    592.000    592.165     -0.165    589.207    592.165    589.207    589.207    589.207
 23.070    545.000    591.959    -46.959    588.866    591.960    588.866    588.866    588.866
 23.170    592.000    591.770      0.230    588.522    591.770    588.522    588.522    588.522
 23.270    607.000    591.600     15.400    588.175    591.601    588.175    588.175    588.175
 23.370    571.617    591.457    -19.841    587.826    591.458    587.826    587.826    587.826
 23.470    595.000    591.349      3.651    587.473    591.350    587.473    587.473    587.473
 23.570    625.000    591.284     33.716    587.117    591.285    587.117    587.117    587.117
 23.670    613.000    591.278     21.722    586.758    591.280    586.758    586.758    586.758
 23.770    630.254    591.352     38.903    586.397    591.353    586.397    586.397    586.397
 23.870    568.000    591.536    -23.536    586.033    591.538    586.033    586.033    586.033
 23.970    622.139    591.882     30.257    585.666    591.884    585.666    585.666    585.666
 24.070    641.497    592.489     49.008    585.296    592.492    585.296    585.296    585.296
 24.170    588.927    593.571     -4.644    584.924    593.575    584.924    584.924    584.924
 24.270    631.243    595.641     35.602    584.549    595.647    584.549    584.549    584.549
 24.370    659.000    599.747     59.253    584.172    599.757    584.172    584.172    584.172
 24.470    660.000    607.578     52.422    583.792    607.593    583.792    583.792    583.792
 24.570    619.000    620.964     -1.964    583.410    620.989    583.410    583.410    583.410
 24.670    657.000    640.373     16.627    583.025    640.412    583.025    583.025    583.025
 24.770    673.539    662.425     11.114    582.638    662.481    582.638    582.638    582.638
 24.870    698.000    677.984     20.016    582.249    678.051    582.249    582.249    582.249
 24.970    706.000    677.123     28.877    581.858    677.190    581.858    581.858    581.858
 25.070    664.000    660.290      3.710    581.464    660.345    581.464    581.464    581.464
 25.170    674.000    637.641     36.359    581.068    637.680    581.068    581.068    581.068
 25.270    647.000    617.967     29.033    580.670    617.992    580.670    580.670    580.670
 25.370    649.000    604.357     44.643    580.270    604.372    580.270    580.270    580.270
 25.470    548.974    596.216    -47.241    579.868    596.225    579.868    579.868    579.868
 25.570    623.000    591.696     31.304    579.464    591.702    579.464    579.464    579.464
 25.670    567.318    589.149    -21.831    579.059    589.153    579.059    579.059    579.059
 25.770    672.000    587.568     84.432    578.651    587.571    578.651    578.651    578.651
 25.870    594.000    586.465      7.535    578.241    586.467    578.241    578.241    578.241
 25.970    626.000    585.634     40.366    577.830    585.636    577.830    577.830    577.830
 26.070    600.000    584.984     15.016    577.417    584.985    577.417    577.417    577.417
 26.170    605.000    584.471     20.529    577.002    584.472    577.002    577.002    577.002
 26.270    602.000    584.071     17.929    576.586    584.072    576.586    576.586    576.586
 26.370    588.000    583.771      4.229    576.168    583.771    576.168    576.168    576.168
 26.470    619.000    583.565     35.435    575.748    583.565    575.748    575.748    575.748
 26.570    639.000    583.454     55.546    575.327    583.454    575.327    575.327    575.327
 26.670    626.011    583.444     42.566    574.904    583.444    574.904    574.904    574.904
 26.770    640.000    583.548     56.452    574.480    583.548    574.480    574.480    574.480
 26.870    606.000    583.784     22.216    574.055    583.783    574.055    574.055    574.055
 26.970    633.000    584.179     48.821    573.628    584.178    573.628    573.628    573.628
 27.070    621.000    584.773     36.227    573.200    584.772    573.200    573.200    573.200
 27.170    639.276    585.622     53.654    572.771    585.621    572.771    572.771    572.771
 27.270    605.000    586.808     18.192    572.340    586.806    572.340    572.340    572.340
 27.370    638.000    588.457     49.543    571.908    588.455    571.908    571.908    571.908
 27.470    642.000    590.793     51.207    571.475    590.790    571.475    571.475    571.475
 27.570    647.714    594.306     53.408    571.041    594.301    571.041    571.041    571.041
 27.670    701.000    600.209    100.791    570.606    600.202    570.606    570.606    570.606
 27.770    687.000    611.391     75.609    570.169    611.380    570.169    570.169    570.169
 27.870    620.196    633.561    -13.365    569.732    633.542    569.732    569.732    569.732
 27.970    678.393    674.939      3.454    569.294    674.906    569.294    569.294    569.294
 28.070    750.121    741.894      8.227    568.854    741.843    568.854    568.854    568.854
 28.170    777.520    829.754    -52.234    568.414    829.686    568.414    568.414    568.414
 28.270    902.000    912.763    -10.763    567.973    912.689    567.973    567.973    567.973
 28.370    945.000    947.262     -2.262    567.532    947.199    567.532    567.532    567.532
 28.470    910.285    912.432     -2.147    567.089    912.387    567.089    567.089    567.089
 28.570    830.786    844.458    -13.672    566.646    844.426    566.646    566.646    566.646
 28.670    789.829    792.034     -2.205    566.202    792.009    566.202    566.202    566.202
 28.770    797.000    778.874     18.126    565.757    778.852    565.757    565.757    565.757
 28.870    764.136    801.859    -37.723    565.312    801.839    565.312    565.312    565.312
 28.970    825.000    836.352    -11.352    564.866    836.339    564.866    564.866    564.866
 29.070    888.000    846.361     41.639    564.420    846.360    564.420    564.420    564.420
 29.170    887.000    812.530     74.470    563.973    812.537    563.973    563.973    563.973
 29.270    821.000    752.240     68.760    563.525    752.248    563.525    563.525    563.525
 29.370    751.226    692.326     58.900    563.077    692.332    563.077    563.077    563.077
 29.470    663.000    646.586     16.414    562.629    646.589    562.629    562.629    562.629
 29.570    655.000    617.039     37.961    562.180    617.040    562.180    562.180    562.180
 29.670    616.514    599.936     16.578    561.731    599.936    561.731    561.731    561.731
 29.770    697.000    590.426    106.574    561.282    590.424    561.282    561.282    561.282
 29.870    681.000    584.914     96.086    560.832    584.912    560.832    560.832    560.832
 29.970    599.475    581.419     18.056    560.382    581.417    560.382    560.382    560.382
 30.070    541.183    579.047    -37.864    559.932    579.044    559.932    559.932    559.932
 30.170    623.000    577.455     45.545    559.481    577.452    559.481    559.481    559.481
 30.270    641.000    576.590     64.410    559.031    576.586    559.031    559.031    559.031
 30.370    654.000    576.645     77.355    558.580    576.641    558.580    558.580    558.580
 30.470    595.775    578.134     17.642    558.129    578.127    558.129    558.129    558.129
 30.570    587.992    581.928      6.063    557.678    581.918    557.678    557.678    557.678
 30.670    642.000    589.062     52.938    557.228    589.045    557.228    557.228    557.228
 30.770    566.988    600.108    -33.120    556.777    600.083    556.777    556.777    556.777
 30.870    683.000    614.145     68.855    556.326    614.110    556.326    556.326    556.326
 30.970    667.000    627.423     39.577    555.875    627.380    555.875    555.875    555.875
 31.070    656.000    633.234     22.766    555.424    633.188    555.424    555.424    555.424
 31.170    673.885    627.248     46.638    554.974    627.208    554.974    554.974    554.974
 31.270    671.000    613.194     57.806    554.523    613.165    554.523    554.523    554.523
 31.370    625.000    597.783     27.217    554.073    597.763    554.073    554.073    554.073
 31.470    619.466    585.060     34.406    553.623    585.048    553.623    553.623    553.623
 31.570    642.000    576.166     65.834    553.173    576.158    553.173    553.173    553.173
 31.670    618.000    570.610     47.390    552.724    570.604    552.724    552.724    552.724
 31.770    630.000    567.347     62.653    552.275    567.343    552.275    552.275    552.275
 31.870    601.000    565.433     35.567    551.826    565.430    551.826    551.826    551.826
 31.970    580.000    564.256     15.744    551.377    564.253    551.377    551.377    551.377
 32.070    545.000    563.497    -18.497    550.929    563.495    550.929    550.929    550.929
 32.170    602.000    563.014     38.986    550.481    563.012    550.481    550.481    550.481
 32.270    617.302    562.746     54.555    550.034    562.745    550.034    550.034    550.034
 32.370    573.000    562.677     10.323    549.587    562.675    549.587    549.587    549.587
 32.470    575.000    562.807     12.193    549.141    562.805    549.141    549.141    549.141
 32.570    590.904    563.152     27.752    548.695    563.150    548.695    548.695    548.695
 32.670    568.912    563.742      5.170    548.250    563.740    548.250    548.250    548.250
 32.770    620.000    564.624     55.376    547.805    564.622    547.805    547.805    547.805
 32.870    572.000    565.867      6.133    547.361    565.866    547.361    547.361    547.361
 32.970    559.000    567.574     -8.574    546.917    567.571    546.917    546.917    546.917
 33.070    556.000    569.900    -13.900    546.474    569.897    546.474    546.474    546.474
 33.170    559.000    573.118    -14.118    546.032    573.115    546.032    546.032    546.032
 33.270    595.000    577.758     17.242    545.591    577.754    545.591    545.591    545.591
 33.370    595.000    584.917     10.083    545.150    584.913    545.150    545.150    545.150
 33.470    615.293    596.796     18.497    544.710    596.789    544.710    544.710    544.710
 33.570    663.000    617.301     45.699    544.271    617.291    544.271    544.271    544.271
 33.670    615.000    652.155    -37.155    543.832    652.140    543.832    543.832    543.832
 33.770    692.653    707.577    -14.924    543.394    707.554    543.394    543.394    543.394
 33.870    816.470    786.845     29.625    542.958    786.812    542.958    542.958    542.958
 33.970    864.000    884.688    -20.688    542.522    884.644    542.522    542.522    542.522
 34.070    932.000    980.050    -48.050    542.087    980.002    542.087    542.087    542.087
 34.170   1079.000   1034.717     44.283    541.653   1034.676    541.653    541.653    541.653
 34.270   1051.476   1018.140     33.336    541.219   1018.115    541.219    541.219    541.219
 34.370    921.000    940.664    -19.664    540.787    940.655    540.787    540.787    540.787
 34.470    827.000    840.173    -13.173    540.356    840.173    540.356    540.356    540.356
 34.570    679.000    748.004    -69.004    539.926    748.007    539.926    539.926    539.926
 34.670    653.850    677.823    -23.973    539.496    677.826    539.496    539.496    539.496
 34.770    627.667    630.644     -2.977    539.068    630.646    539.068    539.068    539.068
 34.870    604.393    601.488      2.905    538.641    601.488    538.641    538.641    538.641
 34.970    553.000    584.116    -31.116    538.215    584.116    538.215    538.215    538.215
 35.070    564.000    573.536     -9.536    537.790    573.536    537.790    537.790    537.790
 35.170    598.000    566.613     31.387    537.366    566.613    537.366    537.366    537.366
 35.270    552.357    561.669     -9.312    536.943    561.669    536.943    536.943    536.943
 35.370    509.000    557.882    -48.882    536.522    557.881    536.522    536.522    536.522
 35.470    570.000    554.845     15.155    536.102    554.844    536.102    536.102    536.102
 35.570    553.000    552.340      0.660    535.683    552.340    535.683    535.683    535.683
 35.670    539.000    550.232    -11.232    535.265    550.231    535.265    535.265    535.265
 35.770    520.000    548.429    -28.429    534.848    548.428    534.848    534.848    534.848
 35.870    468.000    546.865    -78.865    534.433    546.864    534.433    534.433    534.433
 35.970    563.000    545.491     17.509    534.019    545.491    534.019    534.019    534.019
 36.070    531.000    544.273    -13.273    533.606    544.273    533.606    533.606    533.606
 36.170    564.727    543.182     21.545    533.195    543.182    533.195    533.195    533.195
 36.270    566.025    542.197     23.827    532.784    542.197    532.784    532.784    532.784
 36.370    564.326    541.303     23.023    532.376    541.303    532.376    532.376    532.376
 36.470    483.000    540.488    -57.488    531.968    540.488    531.968    531.968    531.968
 36.570    508.000    539.743    -31.743    531.562    539.743    531.562    531.562    531.562
 36.670    555.000    539.063     15.937    531.158    539.064    531.158    531.158    531.158
 36.770    563.388    538.447     24.941    530.755    538.447    530.755    530.755    530.755
 36.870    485.000    537.898    -52.898    530.353    537.898    530.353    530.353    530.353
 36.970    542.000    537.430      4.570    529.953    537.430    529.953    529.953    529.953
 37.070    528.000    537.081     -9.081    529.554    537.081    529.554    529.554    529.554
 37.170    474.000    536.935    -62.935    529.157    536.936    529.157    529.157    529.157
 37.270    497.000    537.150    -40.150    528.761    537.151    528.761    528.761    528.761
 37.370    521.000    537.959    -16.959    528.367    537.961    528.367    528.367    528.367
 37.470    527.000    539.610    -12.610    527.975    539.612    527.975    527.975    527.975
 37.570    465.000    542.207    -77.207    527.584    542.210    527.584    527.584    527.584
 37.670    553.000    545.487      7.513    527.194    545.490    527.194    527.194    527.194
 37.770    565.000    548.565     16.435    526.806    548.570    526.806    526.806    526.806
 37.870    558.312    549.988      8.323    526.420    549.996    526.420    526.420    526.420
 37.970    514.130    548.817    -34.687    526.035    548.826    526.035    526.035    526.035
 38.070    514.000    545.694    -31.694    525.652    545.704    525.652    525.652    525.652
 38.170    556.000    541.901     14.099    525.271    541.912    525.271    525.271    525.271
 38.270    515.000    538.309    -23.309    524.891    538.319    524.891    524.891    524.891
 38.370    499.000    535.319    -36.319    524.513    535.328    524.513    524.513    524.513
 38.470    532.008    533.042     -1.034    524.137    533.049    524.137    524.137    524.137
 38.570    508.623    531.389    -22.766    523.763    531.394    523.763    523.763    523.763
 38.670    520.000    530.192    -10.192    523.390    530.196    523.390    523.390    523.390
 38.770    471.000    529.298    -58.298    523.019    529.301    523.019    523.019    523.019
 38.870    503.000    528.596    -25.596    522.649    528.597    522.649    522.649    522.649
 38.970    518.000    528.012    -10.012    522.282    528.013    522.282    522.282    522.282
 39.070    490.000    527.503    -37.503    521.916    527.504    521.916    521.916    521.916
 39.170    532.000    527.043      4.957    521.552    527.043    521.552    521.552    521.552
 39.270    504.000    526.615    -22.615    521.189    526.616    521.189    521.189    521.189
 39.370    510.227    526.213    -15.986    520.829    526.214    520.829    520.829    520.829
 39.470    476.588    525.831    -49.242    520.470    525.831    520.470    520.470    520.470
 39.570    527.000    525.466      1.534    520.113    525.466    520.113    520.113    520.113
 39.670    524.000    525.116     -1.116    519.758    525.117    519.758    519.758    519.758
 39.770    512.000    524.781    -12.781    519.405    524.782    519.405    519.405    519.405
 39.870    476.458    524.460    -48.002    519.054    524.460    519.054    519.054    519.054
 39.970    473.000    524.152    -51.152    518.705    524.153    518.705    518.705    518.705
 40.070    526.000    523.858      2.142    518.357    523.859    518.357    518.357    518.357
 40.170    524.000    523.578      0.422    518.012    523.578    518.012    518.012    518.012
 40.270    525.000    523.312      1.688    517.668    523.313    517.668    517.668    517.668
 40.370    512.694    523.062    -10.368    517.326    523.063    517.326    517.326    517.326
 40.470    572.555    522.829     49.726    516.987    522.830    516.987    516.987    516.987
 40.570    549.000    522.614     26.386    516.649    522.615    516.649    516.649    516.649
 40.670    518.000    522.420     -4.420    516.313    522.421    516.313    516.313    516.313
 40.770    504.000    522.250    -18.250    515.979    522.251    515.979    515.979    515.979
 40.870    498.000    522.106    -24.106    515.647    522.107    515.647    515.647    515.647
 40.970    515.000    521.994     -6.994    515.317    521.995    515.317    515.317    515.317
 41.070    536.000    521.918     14.082    514.989    521.919    514.989    514.989    514.989
 41.170    503.840    521.887    -18.047    514.663    521.888    514.663    514.663    514.663
 41.270    526.000    521.909      4.091    514.339    521.910    514.339    514.339    514.339
 41.370    487.000    521.997    -34.997    514.017    521.999    514.017    514.017    514.017
 41.470    563.642    522.168     41.474    513.697    522.170    513.697    513.697    513.697
 41.570    453.000    522.447    -69.447    513.379    522.449    513.379    513.379    513.379
 41.670    543.371    522.871     20.499    513.063    522.874    513.063    513.063    513.063
 41.770    513.000    523.510    -10.510    512.750    523.513    512.750    512.750    512.750
 41.870    536.000    524.494     11.506    512.438    524.498    512.438    512.438    512.438
 41.970    511.000    526.078    -15.078    512.128    526.082    512.128    512.128    512.128
 42.070    530.000    528.729      1.271    511.820    528.735    511.820    511.820    511.820
 42.170    554.902    533.212     21.691    511.515    533.220    511.515    511.515    511.515
 42.270    531.543    540.583     -9.039    511.211    540.594    511.211    511.211    511.211
 42.370    546.000    551.977     -5.977    510.910    551.995    510.910    510.910    510.910
 42.470    535.000    568.122    -33.122    510.611    568.147    510.611    510.611    510.611
 42.570    564.000    588.597    -24.597    510.313    588.633    510.313    510.313    510.313
 42.670    622.000    610.907     11.093    510.018    610.955    510.018    510.018    510.018
 42.770    546.000    629.574    -83.574    509.725    629.632    509.725    509.725    509.725
 42.870    687.742    637.084     50.659    509.434    637.148    509.434    509.434    509.434
 42.970    595.000    629.410    -34.410    509.146    629.473    509.146    509.146    509.146
 43.070    545.000    610.460    -65.460    508.859    610.515    508.859    508.859    508.859
 43.170    572.000    587.731    -15.731    508.575    587.774    508.575    508.575    508.575
 43.270    585.000    566.753     18.247    508.292    566.785    508.292    508.292    508.292
 43.370    572.000    550.077     21.923    508.012    550.100    508.012    508.012    508.012
 43.470    500.000    538.155    -38.155    507.734    538.170    507.734    507.734    507.734
 43.570    538.325    530.277      8.048    507.458    530.288    507.458    507.458    507.458
 43.670    482.000    525.313    -43.313    507.185    525.320    507.185    507.185    507.185
 43.770    499.000    522.201    -23.201    506.913    522.206    506.913    506.913    506.913
 43.870    499.977    520.172    -20.195    506.644    520.176    506.644    506.644    506.644
 43.970    501.000    518.753    -17.753    506.376    518.756    506.376    506.376    506.376
 44.070    511.000    517.686     -6.686    506.111    517.688    506.111    506.111    506.111
 44.170    539.000    516.838     22.162    505.849    516.841    505.849    505.849    505.849
 44.270    523.000    516.142      6.858    505.588    516.144    505.588    505.588    505.588
 44.370    512.010    515.557     -3.547    505.329    515.559    505.329    505.329    505.329
 44.470    557.364    515.061     42.303    505.073    515.063    505.073    505.073    505.073
 44.570    534.000    514.636     19.364    504.819    514.638    504.819    504.819    504.819
 44.670    468.450    514.271    -45.820    504.567    514.272    504.567    504.567    504.567
 44.770    525.000    513.956     11.044    504.318    513.957    504.318    504.318    504.318
 44.870    488.361    513.685    -25.324    504.070    513.685    504.070    504.070    504.070
 44.970    477.395    513.452    -36.058    503.825    513.453    503.825    503.825    503.825
 45.070    530.000    513.255     16.745    503.582    513.255    503.582    503.582    503.582
 45.170    545.749    513.090     32.659    503.341    513.090    503.341    503.341    503.341
 45.270    494.466    512.955    -18.490    503.102    512.956    503.102    503.102    503.102
 45.370    561.162    512.851     48.311    502.866    512.851    502.866    502.866    502.866
 45.470    535.000    512.775     22.225    502.632    512.775    502.632    502.632    502.632
 45.570    471.000    512.728    -41.728    502.400    512.728    502.400    502.400    502.400
 45.670    508.000    512.710     -4.710    502.170    512.710    502.170    502.170    502.170
 45.770    515.469    512.724      2.745    501.942    512.724    501.942    501.942    501.942
 45.870    535.713    512.769     22.944    501.717    512.769    501.717    501.717    501.717
 45.970    510.570    512.849     -2.279    501.494    512.849    501.494    501.494    501.494
 46.070    517.000    512.967      4.033    501.273    512.966    501.273    501.273    501.273
 46.170    500.000    513.126    -13.126    501.054    513.125    501.054    501.054    501.054
 46.270    495.689    513.331    -17.642    500.838    513.330    500.838    500.838    500.838
 46.370    484.493    513.588    -29.095    500.624    513.587    500.624    500.624    500.624
 46.470    512.000    513.906     -1.906    500.412    513.905    500.412    500.412    500.412
 46.570    510.000    514.294     -4.294    500.202    514.293    500.202    500.202    500.202
 46.670    490.157    514.767    -24.610    499.994    514.766    499.994    499.994    499.994
 46.770    559.000    515.346     43.654    499.789    515.345    499.789    499.789    499.789
 46.870    497.000    516.066    -19.066    499.586    516.064    499.586    499.586    499.586
 46.970    542.070    516.990     25.080    499.385    516.988    499.385    499.385    499.385
 47.070    508.000    518.233    -10.233    499.187    518.229    499.187    499.187    499.187
 47.170    517.000    520.001     -3.001    498.990    519.997    498.990    498.990    498.990
 47.270    502.000    522.636    -20.636    498.796    522.630    498.796    498.796    498.796
 47.370    515.982    526.634    -10.653    498.604    526.626    498.604    498.604    498.604
 47.470    534.000    532.598      1.402    498.414    532.586    498.414    498.414    498.414
 47.570    496.000    541.084    -45.084    498.227    541.065    498.227    498.227    498.227
 47.670    504.698    552.327    -47.630    498.041    552.301    498.041    498.041    498.041
 47.770    570.000    565.890      4.110    497.858    565.855    497.858    497.858    497.858
 47.870    620.000    580.242     39.758    497.678    580.197    497.678    497.678    497.678
 47.970    618.976    592.436     26.540    497.499    592.384    497.499    497.499    497.499
 48.070    615.000    598.690     16.310    497.322    598.636    497.322    497.322    497.322
 48.170    615.000    596.837     18.163    497.148    596.786    497.148    497.148    497.148
 48.270    603.785    588.375     15.410    496.976    588.332    496.976    496.976    496.976
 48.370    582.072    576.996      5.077    496.806    576.962    496.806    496.806    496.806
 48.470    561.000    565.985     -4.985    496.639    565.961    496.639    496.639    496.639
 48.570    558.000    557.270      0.730    496.473    557.253    496.473    496.473    496.473
 48.670    599.000    551.609     47.391    496.310    551.597    496.310    496.310    496.310
 48.770    573.000    549.008     23.992    496.149    549.000    496.149    496.149    496.149
 48.870    532.000    549.105    -17.105    495.990    549.099    495.990    495.990    495.990
 48.970    553.285    551.484      1.800    495.834    551.479    495.834    495.834    495.834
 49.070    502.000    555.907    -53.907    495.679    555.902    495.679    495.679    495.679
 49.170    551.000    562.496    -11.496    495.527    562.492    495.527    495.527    495.527
 49.270    533.000    572.005    -39.005    495.377    572.000    495.377    495.377    495.377
 49.370    537.636    586.350    -48.714    495.229    586.344    495.229    495.229    495.229
 49.470    590.000    609.610    -19.610    495.083    609.601    495.083    495.083    495.083
 49.570    671.901    649.412     22.489    494.939    649.397    494.939    494.939    494.939
 49.670    687.042    718.083    -31.041    494.798    718.056    494.798    494.798    494.798
 49.770    778.000    832.132    -54.132    494.659    832.087    494.659    494.659    494.659
 49.870    968.498   1008.278    -39.780    494.522   1008.210    494.522    494.522    494.522
 49.970   1203.469   1255.261    -51.791    494.387   1255.167    494.387    494.387    494.387
 50.070   1584.000   1562.991     21.009    494.254   1562.880    494.254    494.254    494.254
 50.170   1869.029   1892.293    -23.265    494.123   1892.183    494.123    494.123    494.123
 50.270   2232.000   2169.953     62.047    493.995   2169.877    493.995    493.995    493.995
 50.370   2228.403   2304.224    -75.821    493.868   2304.220    493.868    493.868    493.868
 50.470   2346.726   2239.825    106.901    493.744   2239.909    493.744    493.744    493.744
 50.570   2002.000   2006.543     -4.543    493.622   2006.691    493.622    493.622    493.622
 50.670   1629.000   1690.571    -61.571    493.502   1690.743    493.502    493.502    493.502
 50.770   1281.000   1374.812    -93.812    493.384   1374.974    493.384    493.384    493.384
 50.870   1022.000   1110.979    -88.979    493.268   1111.114    493.268    493.268    493.268
 50.970    944.512    918.817     25.695    493.154    918.922    493.154    493.154    493.154
 51.070    736.000    794.693    -58.693    493.043    794.773    493.043    493.043    493.043
 51.170    704.000    722.353    -18.353    492.933    722.416    492.933    492.933    492.933
 51.270    668.000    682.210    -14.210    492.826    682.263    492.826    492.826    492.826
 51.370    573.000    657.448    -84.448    492.721    657.495    492.721    492.721    492.721
 51.470    599.000    637.506    -38.506    492.617    637.546    492.617    492.617    492.617
 51.570    619.000    618.623      0.377    492.516    618.656    492.516    492.516    492.516
 51.670    596.409    601.018     -4.609    492.417    601.044    492.417    492.417    492.417
 51.770    576.000    585.822     -9.822    492.320    585.842    492.320    492.320    492.320
 51.870    592.421    573.786     18.636    492.225    573.800    492.225    492.225    492.225
 51.970    582.000    565.064     16.936    492.132    565.074    492.132    492.132    492.132
 52.070    631.000    559.351     71.649    492.041    559.359    492.041    492.041    492.041
 52.170    582.340    556.125     26.214    491.952    556.132    491.952    491.952    491.952
 52.270    532.633    554.882    -22.249    491.865    554.887    491.865    491.865    491.865
 52.370    504.717    555.298    -50.581    491.780    555.303    491.780    491.780    491.780
 52.470    613.000    557.333     55.667    491.697    557.337    491.697    491.697    491.697
 52.570    585.000    561.317     23.683    491.616    561.321    491.616    491.616    491.616
 52.670    583.000    568.102     14.898    491.537    568.106    491.537    491.537    491.537
 52.770    580.000    579.270      0.730    491.461    579.273    491.461    491.461    491.461
 52.870    556.827    597.345    -40.518    491.386    597.348    491.386    491.386    491.386
 52.970    663.000    625.837     37.163    491.313    625.839    491.313    491.313    491.313
 53.070    669.811    668.872      0.939    491.242    668.874    491.242    491.242    491.242
 53.170    738.543    730.208      8.335    491.173    730.211    491.173    491.173    491.173
 53.270    756.000    811.623    -55.623    491.106    811.628    491.106    491.106    491.106
 53.370    912.328    910.856      1.473    491.040    910.864    491.040    491.040    491.040
 53.470    976.000   1019.354    -43.354    490.977   1019.369    490.977    490.977    490.977
 53.570   1061.794   1120.339    -58.546    490.916   1120.365    490.916    490.916    490.916
 53.670   1107.559   1189.748    -82.189    490.856   1189.786    490.856    490.856    490.856
 53.770   1282.094   1205.030     77.065    490.799   1205.079    490.799    490.799    490.799
 53.870   1214.279   1160.358     53.921    490.743   1160.412    490.743    490.743    490.743
 53.970   1043.537   1071.793    -28.256    490.690   1071.846    490.690    490.690    490.690
 54.070    909.385    964.775    -55.391    490.638    964.822    490.638    490.638    490.638
 54.170    904.457    860.275     44.182    490.588    860.313    490.588    490.588    490.588
 54.270    787.000    770.595     16.405    490.540    770.624    490.540    490.540    490.540
 54.370    706.000    700.674      5.326    490.494    700.695    490.494    490.494    490.494
 54.470    690.000    650.362     39.638    490.449    650.377    490.449    490.449    490.449
 54.570    613.000    616.593     -3.593    490.407    616.604    490.407    490.407    490.407
 54.670    645.764    595.237     50.527    490.366    595.245    490.366    490.366    490.366
 54.770    576.000    582.402     -6.402    490.327    582.409    490.327    490.327    490.327
 54.870    587.000    575.079     11.921    490.290    575.084    490.290    490.290    490.290
 54.970    612.000    571.251     40.749    490.255    571.255    490.255    490.255    490.255
 55.070    583.994    569.720     14.275    490.222    569.724    490.222    490.222    490.222
 55.170    593.000    569.850     23.150    490.190    569.854    490.190    490.190    490.190
 55.270    591.000    571.350     19.650    490.160    571.354    490.160    490.160    490.160
 55.370    608.000    574.135     33.865    490.132    574.139    490.132    490.132    490.132
 55.470    579.645    578.264      1.381    490.106    578.268    490.106    490.106    490.106
 55.570    584.000    583.933      0.067    490.081    583.937    490.081    490.081    490.081
 55.670    630.000    591.545     38.455    490.058    591.548    490.058    490.058    490.058
 55.770    593.000    601.863     -8.863    490.037    601.867    490.037    490.037    490.037
 55.870    647.465    616.311     31.154    490.017    616.314    490.017    490.017    490.017
 55.970    626.406    637.428    -11.021    490.000    637.430    490.000    490.000    490.000
 56.070    700.000    669.478     30.522    489.984    669.478    489.984    489.984    489.984
 56.170    746.000    719.013     26.987    489.969    719.011    489.969    489.969    489.969
 56.270    786.000    795.028     -9.028    489.956    795.021    489.956    489.956    489.956
 56.370    916.714    908.176      8.537    489.945    908.164    489.945    489.945    489.945
 56.470   1013.000   1068.585    -55.585    489.936   1068.568    489.936    489.936    489.936
 56.570   1208.000   1282.204    -74.204    489.928   1282.186    489.928    489.928    489.928
 56.670   1436.000   1546.162   -110.162    489.922   1546.149    489.922    489.922    489.922
 56.770   1841.659   1843.858     -2.199    489.918   1843.862    489.918    489.918    489.918
 56.870   2128.663   2140.331    -11.668    489.915   2140.368    489.915    489.915    489.915
 56.970   2454.000   2380.941     73.059    489.913   2381.029    489.913    489.913    489.913
 57.070   2615.000   2503.088    111.912    489.914   2503.242    489.914    489.914    489.914
 57.170   2506.000   2468.025     37.975    489.916   2468.242    489.916    489.916    489.916
 57.270   2277.000   2288.512    -11.512    489.919   2288.766    489.919    489.919    489.919
 57.370   1991.605   2018.458    -26.854    489.924   2018.716    489.924    489.924    489.924
 57.470   1642.000   1719.059    -77.059    489.930   1719.294    489.930    489.930    489.930
 57.570   1506.478   1436.417     70.061    489.938   1436.612    489.938    489.938    489.938
 57.670   1147.000   1197.068    -50.068    489.948   1197.220    489.948    489.948    489.948
 57.770    964.989   1011.275    -46.286    489.959   1011.387    489.959    489.959    489.959
 57.870    825.000    877.926    -52.926    489.972    878.004    489.972    489.972    489.972
 57.970    832.000    789.551     42.449    489.986    789.602    489.986    489.986    489.986
 58.070    743.167    736.725      6.442    490.001    736.756    490.001    490.001    490.001
 58.170    660.110    711.164    -51.053    490.018    711.179    490.018    490.018    490.018
 58.270    748.000    707.174     40.826    490.037    707.177    490.037    490.037    490.037
 58.370    705.000    721.686    -16.686    490.057    721.679    490.057    490.057    490.057
 58.470    770.000    753.350     16.650    490.078    753.334    490.078    490.078    490.078
 58.570    815.108    801.196     13.912    490.101    801.172    490.101    490.101    490.101
 58.670    938.000    863.187     74.813    490.125    863.158    490.125    490.125    490.125
 58.770    879.549    934.979    -55.430    490.150    934.950    490.150    490.150    490.150
 58.870   1007.214   1009.662     -2.448    490.177   1009.637    490.177    490.177    490.177
 58.970   1160.501   1079.438     81.063    490.206   1079.423    490.206    490.206    490.206
 59.070   1180.000   1138.058     41.942    490.235   1138.056    490.235    490.235    490.235
 59.170   1257.000   1180.825     76.175    490.266   1180.835    490.266    490.266    490.266
 59.270   1304.000   1203.143    100.857    490.299   1203.166    490.299    490.299    490.299
 59.370   1226.166   1202.669     23.497    490.332   1202.698    490.332    490.332    490.332
 59.470   1220.000   1183.926     36.074    490.367   1183.952    490.367    490.367    490.367
 59.570   1216.000   1158.187     57.813    490.403   1158.196    490.403    490.403    490.403
 59.670   1200.000   1137.904     62.096    490.441   1137.887    490.441    490.441    490.441
 59.770   1108.186   1132.345    -24.159    490.480   1132.292    490.480    490.480    490.480
 59.870   1192.000   1147.559     44.441    490.520   1147.465    490.520    490.520    490.520
 59.970   1217.035   1187.562     29.472    490.561   1187.424    490.561    490.561    490.561
 60.070   1303.000   1253.016     49.984    490.603   1252.834    490.603    490.603    490.603
 60.170   1423.000   1337.925     85.075    490.647   1337.703    490.647    490.647    490.647
 60.270   1529.000   1427.207    101.793    490.692   1426.957    490.692    490.692    490.692
 60.370   1585.699   1497.145     88.554    490.738   1496.888    490.738    490.738    490.738
 60.470   1448.395   1521.541    -73.146    490.785   1521.303    490.785    490.785    490.785
 60.570   1488.000   1484.727      3.273    490.834   1484.530    490.834    490.834    490.834
 60.670   1432.000   1391.620     40.380    490.883   1391.472    490.883    490.883    490.883
 60.770   1303.938   1263.245     40.693    490.934   1263.143    490.934    490.934    490.934
 60.870   1163.467   1123.968     39.499    490.986   1123.903    490.986    490.986    490.986
 60.970   1023.000    993.011     29.989    491.039    992.970    491.039    491.039    491.039
 61.070    886.000    882.356      3.644    491.093    882.330    491.093    491.093    491.093
 61.170    779.000    797.637    -18.637    491.148    797.618    491.148    491.148    491.148
 61.270    723.000    739.939    -16.939    491.205    739.921    491.205    491.205    491.205
 61.370    670.000    707.884    -37.884    491.262    707.861    491.262    491.262    491.262
 61.470    732.000    699.553     32.447    491.320    699.523    491.320    491.320    491.320
 61.570    755.000    713.775     41.225    491.380    713.733    491.380    491.380    491.380
 61.670    748.000    750.441     -2.441    491.440    750.384    491.440    491.440    491.440
 61.770    826.320    809.871     16.449    491.501    809.795    491.501    491.501    491.501
 61.870    878.419    891.455    -13.036    491.564    891.359    491.564    491.564    491.564
 61.970    996.000    992.001      3.999    491.627    991.883    491.627    491.627    491.627
 62.070   1062.000   1104.130    -42.130    491.691   1103.994    491.691    491.691    491.691
 62.170   1158.846   1215.034    -56.188    491.757   1214.889    491.757    491.757    491.757
 62.270   1346.161   1306.394     39.768    491.823   1306.251    491.823    491.823    491.823
 62.370   1349.000   1357.729     -8.729    491.890   1357.605    491.890    491.890    491.890
 62.470   1288.000   1354.786    -66.786    491.958   1354.691    491.958    491.958    491.958
 62.570   1269.117   1297.962    -28.844    492.027   1297.899    492.027    492.027    492.027
 62.670   1184.000   1201.982    -17.982    492.097   1201.947    492.097    492.097    492.097
 62.770   1074.000   1087.219    -13.219    492.168   1087.204    492.168    492.168    492.168
 62.870    893.000    971.534    -78.534    492.239    971.531    492.239    492.239    492.239
 62.970    775.000    867.099    -92.099    492.312    867.102    492.312    492.312    492.312
 63.070    745.000    780.444    -35.444    492.385    780.449    492.385    492.385    492.385
 63.170    738.417    713.549     24.868    492.459    713.552    492.459    492.459    492.459
 63.270    623.174    665.206    -42.032    492.534    665.207    492.534    492.534    492.534
 63.370    624.000    632.458     -8.458    492.609    632.455    492.609    492.609    492.609
 63.470    611.916    611.859      0.057    492.686    611.854    492.686    492.686    492.686
 63.570    637.452    600.393     37.059    492.763    600.385    492.763    492.763    492.763
 63.670    643.672    595.971     47.701    492.841    595.961    492.841    492.841    492.841
 63.770    585.000    597.599    -12.599    492.920    597.585    492.920    492.920    492.920
 63.870    622.000    605.300     16.700    492.999    605.281    492.999    492.999    492.999
 63.970    651.000    619.895     31.105    493.079    619.869    493.079    493.079    493.079
 64.070    582.010    642.667    -60.657    493.160    642.632    493.160    493.160    493.160
 64.170    701.579    674.912     26.667    493.241    674.866    493.241    493.241    493.241
 64.270    739.666    717.392     22.274    493.323    717.332    493.323    493.323    493.323
 64.370    736.000    769.729    -33.729    493.406    769.654    493.406    493.406    493.406
 64.470    889.000    829.777     59.223    493.489    829.686    493.489    493.489    493.489
 64.570    876.000    893.056    -17.056    493.573    892.953    493.573    493.573    493.573
 64.670    956.000    952.485      3.515    493.658    952.375    493.658    493.658    493.658
 64.770   1005.000    999.123      5.877    493.743    999.013    493.743    493.743    493.743
 64.870   1034.000   1024.654      9.346    493.829   1024.553    493.829    493.829    493.829
 64.970   1093.949   1024.800     69.149    493.915   1024.716    493.915    493.915    493.915
 65.070   1006.743   1001.063      5.680    494.002   1001.000    494.002    494.002    494.002
 65.170    952.000    959.610     -7.610    494.089    959.570    494.089    494.089    494.089
 65.270    898.972    908.667     -9.695    494.177    908.647    494.177    494.177    494.177
 65.370    913.473    855.858     57.615    494.266    855.857    494.266    494.266    494.266
 65.470    806.872    806.441      0.431    494.354    806.453    494.354    494.354    494.354
 65.570    810.978    762.836     48.142    494.444    762.859    494.444    494.444    494.444
 65.670    741.511    725.334     16.178    494.534    725.362    494.534    494.534    494.534
 65.770    689.329    693.295     -3.966    494.624    693.325    494.624    494.624    494.624
 65.870    619.000    666.202    -47.202    494.714    666.230    494.714    494.714    494.714
 65.970    642.000    643.849     -1.849    494.806    643.872    494.806    494.806    494.806
 66.070    612.000    626.050    -14.050    494.897    626.068    494.897    494.897    494.897
 66.170    589.967    612.489    -22.522    494.989    612.503    494.989    494.989    494.989
 66.270    598.000    602.759     -4.759    495.081    602.769    495.081    495.081    495.081
 66.370    592.000    596.439     -4.439    495.174    596.445    495.174    495.174    495.174
 66.470    574.000    593.148    -19.148    495.267    593.153    495.267    495.267    495.267
 66.570    582.000    592.589    -10.589    495.360    592.593    495.360    495.360    495.360
 66.670    606.000    594.604     11.396    495.454    594.608    495.454    495.454    495.454
 66.770    565.000    599.274    -34.274    495.547    599.279    495.547    495.547    495.547
 66.870    615.000    607.058      7.942    495.642    607.063    495.642    495.642    495.642
 66.970    646.000    618.978     27.022    495.736    618.985    495.736    495.736    495.736
 67.070    623.000    636.850    -13.850    495.831    636.857    495.831    495.831    495.831
 67.170    684.808    663.514     21.294    495.926    663.522    495.926    495.926    495.926
 67.270    715.000    703.004     11.996    496.021    703.013    496.021    496.021    496.021
 67.370    704.000    760.519    -56.519    496.116    760.529    496.116    496.116    496.116
 67.470    895.651    842.031     53.620    496.212    842.043    496.212    496.212    496.212
 67.570   1006.738    953.414     53.323    496.308    953.430    496.308    496.308    496.308
 67.670   1057.610   1099.065    -41.455    496.403   1099.089    496.403    496.403    496.403
 67.770   1215.000   1280.153    -65.153    496.500   1280.190    496.500    496.500    496.500
 67.870   1529.699   1492.764     36.935    496.596   1492.820    496.596    496.596    496.596
 67.970   1668.288   1726.171    -57.882    496.692   1726.255    496.692    496.692    496.692
 68.070   1979.000   1961.380     17.620    496.789   1961.503    496.789    496.789    496.789
 68.170   2178.815   2170.484      8.332    496.885   2170.654    496.885    496.885    496.885
 68.270   2313.000   2319.117     -6.117    496.982   2319.342    496.982    496.982    496.982
 68.370   2269.546   2375.787   -106.241    497.078   2376.066    497.078    497.078    497.078
 68.470   2265.000   2326.703    -61.703    497.175   2327.025    497.175    497.175    497.175
 68.570   2126.712   2184.046    -57.335    497.272   2184.391    497.272    497.272    497.272
 68.670   1992.997   1978.537     14.461    497.369   1978.878    497.369    497.369    497.369
 68.770   1777.000   1744.652     32.348    497.466   1744.968    497.466    497.466    497.466
 68.870   1576.000   1510.853     65.147    497.562   1511.130    497.562    497.562    497.562
 68.970   1272.000   1296.758    -24.758    497.659   1296.989    497.659    497.659    497.659
 69.070   1135.856   1113.640     22.215    497.756   1113.826    497.756    497.756    497.756
 69.170    904.194    965.847    -61.653    497.853    965.990    497.853    497.853    497.853
 69.270    866.000    852.509     13.491    497.949    852.617    497.949    497.949    497.949
 69.370    794.000    769.397     24.603    498.046    769.476    498.046    498.046    498.046
 69.470    709.547    710.686     -1.139    498.142    710.743    498.142    498.142    498.142
 69.570    665.000    670.360     -5.360    498.239    670.401    498.239    498.239    498.239
 69.670    621.380    643.119    -21.739    498.335    643.149    498.335    498.335    498.335
 69.770    636.000    624.792     11.208    498.431    624.814    498.431    498.431    498.431
 69.870    631.000    612.372     18.628    498.527    612.389    498.527    498.527    498.527
 69.970    628.000    603.853     24.147    498.623    603.866    498.623    498.623    498.623
 70.070    593.000    597.974     -4.974    498.718    597.984    498.718    498.718    498.718
 70.170    584.000    593.989     -9.989    498.814    593.997    498.814    498.814    498.814
 70.270    578.000    591.488    -13.488    498.909    591.495    498.909    498.909    498.909
 70.370    642.000    590.279     51.721    499.004    590.283    499.004    499.004    499.004
 70.470    609.000    590.326     18.674    499.099    590.329    499.099    499.099    499.099
 70.570    597.000    591.743      5.257    499.193    591.744    499.193    499.193    499.193
 70.670    635.309    594.822     40.487    499.288    594.821    499.288    499.288    499.288
 70.770    601.000    600.103      0.897    499.382    600.100    499.382    499.382    499.382
 70.870    600.000    608.481     -8.481    499.475    608.475    499.475    499.475    499.475
 70.970    637.000    621.325     15.675    499.569    621.314    499.569    499.569    499.569
 71.070    610.000    640.595    -30.595    499.662    640.578    499.662    499.662    499.662
 71.170    659.107    668.901     -9.794    499.755    668.876    499.755    499.755    499.755
 71.270    697.529    709.437    -11.908    499.847    709.402    499.847    499.847    499.847
 71.370    736.000    765.720    -29.720    499.939    765.671    499.939    499.939    499.939
 71.470    849.091    841.093      7.998    500.031    841.027    500.031    500.031    500.031
 71.570   1000.519    937.983     62.536    500.122    937.898    500.122    500.122    500.122
 71.670   1004.000   1057.008    -53.008    500.213   1056.900    500.213    500.213    500.213
 71.770   1169.000   1196.019    -27.019    500.303   1195.891    500.303    500.303    500.303
 71.870   1282.000   1349.227    -67.227    500.393   1349.080    500.393    500.393    500.393
 71.970   1483.000   1506.452    -23.452    500.483   1506.292    500.483    500.483    500.483
 72.070   1654.000   1652.745      1.255    500.572   1652.581    500.572    500.572    500.572
 72.170   1784.000   1769.184     14.816    500.661   1769.030    500.661    500.661    500.661
 72.270   1798.348   1836.352    -38.004    500.749   1836.219    500.749    500.749    500.749
 72.370   1775.628   1840.888    -65.260    500.836   1840.787    500.836    500.836    500.836
 72.470   1778.000   1781.721     -3.721    500.924   1781.654    500.924    500.924    500.924
 72.570   1730.000   1670.651     59.349    501.010   1670.614    501.010    501.010    501.010
 72.670   1574.000   1526.690     47.310    501.096   1526.676    501.096    501.096    501.096
 72.770   1343.179   1369.167    -25.989    501.182   1369.169    501.182    501.182    501.182
 72.870   1295.000   1213.715     81.285    501.267   1213.726    501.267    501.267    501.267
 72.970   1026.793   1071.187    -44.393    501.351   1071.202    501.351    501.351    501.351
 73.070   1008.000    947.953     60.047    501.435    947.969    501.435    501.435    501.435
 73.170    826.770    846.627    -19.857    501.518    846.641    501.518    501.518    501.518
 73.270    755.000    766.936    -11.936    501.601    766.948    501.601    501.601    501.601
 73.370    808.000    706.671    101.329    501.683    706.681    501.683    501.683    501.683
 73.470    712.000    662.596     49.404    501.764    662.603    501.764    501.764    501.764
 73.570    689.000    631.212     57.788    501.845    631.218    501.845    501.845    501.845
 73.670    659.000    609.292     49.708    501.925    609.297    501.925    501.925    501.925
 73.770    696.000    594.173    101.827    502.004    594.177    502.004    502.004    502.004
 73.870    642.543    583.841     58.702    502.082    583.846    502.082    502.082    502.082
 73.970    607.000    576.883     30.117    502.160    576.890    502.160    502.160    502.160
 74.070    614.000    572.361     41.639    502.237    572.371    502.237    502.237    502.237
 74.170    631.000    569.670     61.330    502.314    569.683    502.314    502.314    502.314
 74.270    600.616    568.406     32.211    502.389    568.423    502.389    502.389    502.389
 74.370    536.291    568.263    -31.972    502.464    568.286    502.464    502.464    502.464
 74.470    518.126    568.955    -50.830    502.538    568.983    502.538    502.538    502.538
 74.570    549.985    570.165    -20.180    502.612    570.199    502.612    502.612    502.612
 74.670    640.000    571.514     68.486    502.684    571.553    502.684    502.684    502.684
 74.770    623.000    572.565     50.435    502.756    572.609    502.756    502.756    502.756
 74.870    642.000    572.880     69.120    502.827    572.927    502.827    502.827    502.827
 74.970    657.000    572.142     84.858    502.897    572.190    502.897    502.897    502.897
 75.070    523.848    570.294    -46.446    502.966    570.340    502.966    502.966    502.966
 75.170    605.602    567.578     38.024    503.034    567.620    503.034    503.034    503.034
 75.270    608.456    564.449     44.007    503.102    564.486    503.102    503.102    503.102
 75.370    672.000    561.444    110.556    503.169    561.475    503.169    503.169    503.169
 75.470    579.000    559.099     19.901    503.234    559.123    503.234    503.234    503.234
 75.570    644.000    557.923     86.077    503.299    557.941    503.299    503.299    503.299
 75.670    578.000    558.405     19.595    503.363    558.415    503.363    503.363    503.363
 75.770    609.000    561.006     47.994    503.426    561.010    503.426    503.426    503.426
 75.870    580.000    566.152     13.848    503.488    566.149    503.488    503.488    503.488
 75.970    549.664    574.190    -24.525    503.549    574.180    503.549    503.549    503.549
 76.070    606.000    585.332     20.668    503.609    585.315    503.609    503.609    503.609
 76.170    606.574    599.582      6.992    503.668    599.558    503.668    503.668    503.668
 76.270    566.917    616.654    -49.737    503.726    616.622    503.726    503.726    503.726
 76.370    634.000    635.892     -1.892    503.783    635.851    503.783    503.783    503.783
 76.470    678.364    656.203     22.161    503.839    656.155    503.839    503.839    503.839
 76.570    693.000    676.006     16.994    503.894    675.952    503.894    503.894    503.894
 76.670    699.101    693.250      5.851    503.948    693.192    503.948    503.948    503.948
 76.770    715.000    705.620      9.380    504.001    705.560    504.001    504.001    504.001
 76.870    719.000    711.063      7.937    504.052    711.005    504.052    504.052    504.052
 76.970    661.652    708.524    -46.872    504.103    708.471    504.103    504.103    504.103
 77.070    669.571    698.413    -28.842    504.153    698.366    504.153    504.153    504.153
 77.170    648.479    682.400    -33.921    504.201    682.360    504.201    504.201    504.201
 77.270    627.534    662.733    -35.199    504.249    662.700    504.249    504.249    504.249
 77.370    656.000    641.587     14.413    504.295    641.562    504.295    504.295    504.295
 77.470    641.815    620.728     21.088    504.340    620.708    504.340    504.340    504.340
 77.570    545.829    601.415    -55.586    504.384    601.400    504.384    504.384    504.384
 77.670    599.047    584.434     14.614    504.427    584.423    504.427    504.427    504.427
 77.770    540.996    570.156    -29.160    504.469    570.148    504.469    504.469    504.469
 77.870    550.000    558.623     -8.623    504.510    558.617    504.510    504.510    504.510
 77.970    534.000    549.636    -15.636    504.549    549.632    504.549    504.549    504.549
 78.070    535.000    542.847     -7.847    504.587    542.844    504.587    504.587    504.587
 78.170    512.000    537.861    -25.861    504.624    537.859    504.624    504.624    504.624
 78.270    562.000    534.272     27.728    504.660    534.271    504.660    504.660    504.660
 78.370    583.776    531.726     52.051    504.694    531.724    504.694    504.694    504.694
 78.470    472.784    529.932    -57.148    504.728    529.931    504.728    504.728    504.728
 78.570    499.000    528.673    -29.673    504.760    528.672    504.760    504.760    504.760
 78.670    543.000    527.793     15.207    504.790    527.792    504.790    504.790    504.790
 78.770    526.884    527.189     -0.305    504.820    527.188    504.820    504.820    504.820
 78.870    516.000    526.798    -10.798    504.848    526.797    504.848    504.848    504.848
 78.970    547.000    526.586     20.414    504.875    526.585    504.875    504.875    504.875
 79.070    488.000    526.539    -38.539    504.901    526.539    504.901    504.901    504.901
 79.170    509.000    526.661    -17.661    504.925    526.660    504.925    504.925    504.925
 79.270    548.000    526.965     21.035    504.948    526.964    504.948    504.948    504.948
 79.370    507.000    527.476    -20.476    504.970    527.475    504.970    504.970    504.970
 79.470    507.000    528.228    -21.228    504.990    528.227    504.990    504.990    504.990
 79.570    504.958    529.265    -24.308    505.009    529.264    505.009    505.009    505.009
 79.670    570.835    530.644     40.190    505.027    530.642    505.027    505.027    505.027
 79.770    492.057    532.437    -40.381    505.043    532.435    505.043    505.043    505.043
 79.870    540.704    534.740      5.964    505.058    534.738    505.058    505.058    505.058
 79.970    555.995    537.677     18.318    505.072    537.674    505.072    505.072    505.072
 80.070    573.000    541.405     31.595    505.084    541.402    505.084    505.084    505.084
 80.170    593.700    546.119     47.580    505.095    546.116    505.095    505.095    505.095
 80.270    517.000    552.049    -35.049    505.104    552.046    505.104    505.104    505.104
 80.370    546.000    559.457    -13.457    505.112    559.455    505.112    505.112    505.112
 80.470    569.000    568.635      0.365    505.119    568.633    505.119    505.119    505.119
 80.570    545.000    579.878    -34.878    505.124    579.879    505.124    505.124    505.124
 80.670    550.107    593.437    -43.330    505.127    593.441    505.127    505.127    505.127
 80.770    558.600    609.432    -50.832    505.129    609.439    505.129    505.129    505.129
 80.870    653.000    627.764     25.236    505.130    627.775    505.130    505.130    505.130
 80.970    582.000    648.039    -66.039    505.129    648.056    505.129    505.129    505.129
 81.070    629.000    669.534    -40.534    505.127    669.557    505.127    505.127    505.127
 81.170    646.000    691.217    -45.217    505.124    691.247    505.124    505.124    505.124
 81.270    754.030    711.874     42.156    505.118    711.911    505.118    505.118    505.118
 81.370    669.000    730.290    -61.290    505.112    730.334    505.112    505.112    505.112
 81.470    684.841    745.417    -60.576    505.104    745.468    505.104    505.104    505.104
 81.570    737.000    756.460    -19.460    505.094    756.518    505.094    505.094    505.094
 81.670    715.877    762.928    -47.051    505.083    762.993    505.083    505.083    505.083
 81.770    734.000    764.673    -30.673    505.070    764.743    505.070    505.070    505.070
 81.870    730.000    761.843    -31.843    505.056    761.917    505.056    505.056    505.056
 81.970    799.000    754.774     44.226    505.040    754.851    505.040    505.040    505.040
 82.070    736.000    743.944     -7.944    505.022    744.022    505.022    505.022    505.022
 82.170    775.000    730.028     44.972    505.004    730.106    505.004    505.004    505.004
 82.270    667.000    713.924    -46.924    504.983    714.001    504.983    504.983    504.983
 82.370    704.000    696.612      7.388    504.961    696.685    504.961    504.961    504.961
 82.470    738.545    678.930     59.616    504.937    679.000    504.937    504.937    504.937
 82.570    694.000    661.457     32.543    504.912    661.523    504.912    504.912    504.912
 82.670    691.414    644.557     46.858    504.885    644.617    504.885    504.885    504.885
 82.770    632.000    628.509      3.491    504.857    628.563    504.857    504.857    504.857
 82.870    625.000    613.622     11.378    504.827    613.669    504.827    504.827    504.827
 82.970    602.768    600.237      2.531    504.795    600.276    504.795    504.795    504.795
 83.070    577.249    588.667    -11.419    504.762    588.699    504.762    504.762    504.762
 83.170    572.000    579.151     -7.151    504.727    579.175    504.727    504.727    504.727
 83.270    570.000    571.829     -1.829    504.691    571.844    504.691    504.691    504.691
 83.370    571.843    566.742      5.102    504.653    566.748    504.653    504.653    504.653
 83.470    600.516    563.839     36.677    504.613    563.838    504.613    504.613    504.613
 83.570    569.000    562.979      6.021    504.572    562.970    504.572    504.572    504.572
 83.670    540.858    563.926    -23.069    504.529    563.909    504.529    504.529    504.529
 83.770    570.000    566.350      3.650    504.484    566.325    504.484    504.484    504.484
 83.870    550.000    569.828    -19.828    504.438    569.797    504.438    504.438    504.438
 83.970    572.728    573.851     -1.123    504.390    573.813    504.390    504.390    504.390
 84.070    592.000    577.829     14.171    504.340    577.787    504.340    504.340    504.340
 84.170    634.072    581.130     52.942    504.289    581.084    504.289    504.289    504.289
 84.270    586.000    583.144      2.856    504.236    583.097    504.236    504.236    504.236
 84.370    594.292    583.402     10.891    504.181    583.355    504.181    504.181    504.181
 84.470    567.995    581.668    -13.673    504.124    581.623    504.124    504.124    504.124
 84.570    583.472    578.149      5.323    504.066    578.108    504.066    504.066    504.066
 84.670    560.000    573.207    -13.207    504.007    573.170    504.007    504.007    504.007
 84.770    513.038    567.329    -54.291    503.945    567.297    503.945    503.945    503.945
 84.870    542.250    561.016    -18.766    503.882    560.988    503.882    503.882    503.882
 84.970    608.000    554.700     53.300    503.817    554.676    503.817    503.817    503.817
 85.070    556.000    548.718      7.282    503.751    548.699    503.751    503.751    503.751
 85.170    525.000    543.312    -18.312    503.682    543.297    503.682    503.682    503.682
 85.270    555.341    538.629     16.712    503.612    538.616    503.612    503.612    503.612
 85.370    557.736    534.735     23.001    503.541    534.724    503.541    503.541    503.541
 85.470    536.000    531.630      4.370    503.467    531.621    503.467    503.467    503.467
 85.570    568.079    529.271     38.808    503.392    529.263    503.392    503.392    503.392
 85.670    524.000    527.585     -3.585    503.315    527.577    503.315    503.315    503.315
 85.770    549.000    526.491     22.509    503.236    526.484    503.236    503.236    503.236
 85.870    476.984    525.923    -48.939    503.156    525.916    503.156    503.156    503.156
 85.970    529.000    525.827      3.173    503.074    525.819    503.074    503.074    503.074
 86.070    518.000    526.179     -8.179    502.990    526.170    502.990    502.990    502.990
 86.170    526.000    526.986     -0.986    502.904    526.975    502.904    502.904    502.904
 86.270    518.000    528.286    -10.286    502.817    528.274    502.817    502.817    502.817
 86.370    527.000    530.150     -3.150    502.728    530.136    502.728    502.728    502.728
 86.470    564.000    532.673     31.327    502.637    532.655    502.637    502.637    502.637
 86.570    522.000    535.967    -13.967    502.545    535.944    502.545    502.545    502.545
 86.670    542.000    540.147      1.853    502.450    540.120    502.450    502.450    502.450
 86.770    547.000    545.324      1.676    502.354    545.290    502.354    502.354    502.354
 86.870    558.000    551.576      6.424    502.256    551.535    502.256    502.256    502.256
 86.970    539.000    558.935    -19.935    502.157    558.885    502.157    502.157    502.157
 87.070    524.361    567.357    -42.996    502.055    567.298    502.055    502.055    502.055
 87.170    550.945    576.700    -25.756    501.952    576.631    501.952    501.952    501.952
 87.270    609.000    586.705     22.295    501.847    586.625    501.847    501.847    501.847
 87.370    649.000    596.976     52.024    501.741    596.887    501.741    501.741    501.741
 87.470    590.000    606.981    -16.981    501.632    606.883    501.632    501.632    501.632
 87.570    610.000    616.059     -6.059    501.522    615.954    501.522    501.522    501.522
 87.670    629.319    623.481      5.837    501.410    623.372    501.410    501.410    501.410
 87.770    662.000    628.554     33.446    501.297    628.444    501.297    501.297    501.297
 87.870    687.296    630.791     56.505    501.181    630.683    501.181    501.181    501.181
 87.970    654.000    630.054     23.946    501.064    629.953    501.064    501.064    501.064
 88.070    599.931    626.602    -26.671    500.945    626.510    500.945    500.945    500.945
 88.170    668.000    621.003     46.997    500.824    620.922    500.824    500.824    500.824
 88.270    601.946    613.994    -12.048    500.702    613.925    500.702    500.702    500.702
 88.370    606.000    606.350     -0.350    500.578    606.294    500.578    500.578    500.578
 88.470    607.874    598.805      9.069    500.452    598.761    500.452    500.452    500.452
 88.570    616.000    592.002     23.998    500.324    591.971    500.324    500.324    500.324
 88.670    601.000    586.463     14.537    500.194    586.442    500.194    500.194    500.194
 88.770    527.433    582.558    -55.125    500.063    582.548    500.063    500.063    500.063
 88.870    542.000    580.498    -38.498    499.930    580.498    499.930    499.930    499.930
 88.970    570.000    580.328    -10.328    499.795    580.336    499.795    499.795    499.795
 89.070    566.000    581.931    -15.931    499.659    581.948    499.659    499.659    499.659
 89.170    531.979    585.044    -53.066    499.521    585.070    499.521    499.521    499.521
 89.270    612.000    589.270     22.730    499.381    589.304    499.381    499.381    499.381
 89.370    612.000    594.094     17.906    499.239    594.135    499.239    499.239    499.239
 89.470    639.517    598.905     40.612    499.095    598.954    499.095    499.095    499.095
 89.570    616.092    603.040     13.051    498.950    603.095    498.950    498.950    498.950
 89.670    624.728    605.851     18.877    498.803    605.911    498.803    498.803    498.803
 89.770    593.000    606.812    -13.812    498.654    606.876    498.654    498.654    498.654
 89.870    571.000    605.635    -34.635    498.504    605.701    498.504    498.504    498.504
 89.970    543.509    602.330    -58.822    498.352    602.396    498.352    498.352    498.352
 90.070    549.397    597.184    -47.787    498.198    597.247    498.198    498.198    498.198
 90.170    575.000    590.659    -15.659    498.042    590.718    498.042    498.042    498.042
 90.270    527.000    583.275    -56.275    497.885    583.329    497.885    497.885    497.885
 90.370    622.265    575.531     46.734    497.726    575.579    497.726    497.726    497.726
 90.470    593.536    567.850     25.687    497.565    567.891    497.565    497.565    497.565
 90.570    588.813    560.568     28.245    497.403    560.603    497.403    497.403    497.403
 90.670    549.000    553.932     -4.932    497.239    553.961    497.239    497.239    497.239
 90.770    525.000    548.100    -23.100    497.073    548.123    497.073    497.073    497.073
 90.870    552.389    543.155      9.234    496.905    543.174    496.905    496.905    496.905
 90.970    544.000    539.117      4.883    496.736    539.132    496.736    496.736    496.736
 91.070    573.414    535.958     37.456    496.565    535.969    496.565    496.565    496.565
 91.170    488.000    533.619    -45.619    496.393    533.626    496.393    496.393    496.393
 91.270    479.902    532.026    -52.124    496.218    532.031    496.218    496.218    496.218
 91.370    532.172    531.110      1.062    496.042    531.113    496.042    496.042    496.042
 91.470    500.040    530.813    -30.772    495.865    530.814    495.865    495.865    495.865
 91.570    545.000    531.103     13.897    495.686    531.102    495.686    495.686    495.686
 91.670    494.000    531.978    -37.978    495.505    531.976    495.505    495.505    495.505
 91.770    524.000    533.470     -9.470    495.322    533.467    495.322    495.322    495.322
 91.870    553.000    535.648     17.352    495.138    535.642    495.138    495.138    495.138
 91.970    529.000    538.609     -9.609    494.952    538.602    494.952    494.952    494.952
 92.070    549.000    542.483      6.517    494.765    542.474    494.765    494.765    494.765
 92.170    532.000    547.419    -15.419    494.576    547.406    494.576    494.576    494.576
 92.270    579.000    553.573     25.427    494.385    553.557    494.385    494.385    494.385
 92.370    551.000    561.102    -10.102    494.193    561.082    494.193    494.193    494.193
 92.470    567.000    570.143     -3.143    493.999    570.118    493.999    493.999    493.999
 92.570    556.000    580.798    -24.798    493.803    580.768    493.803    493.803    493.803
 92.670    567.000    593.119    -26.119    493.606    593.084    493.606    493.606    493.606
 92.770    608.000    607.091      0.909    493.408    607.050    493.408    493.408    493.408
 92.870    591.000    622.616    -31.616    493.208    622.569    493.208    493.208    493.208
 92.970    620.000    639.499    -19.499    493.006    639.446    493.006    493.006    493.006
 93.070    666.000    657.437      8.563    492.803    657.378    492.803    492.803    492.803
 93.170    699.000    676.016     22.984    492.598    675.951    492.598    492.598    492.598
 93.270    666.000    694.726    -28.726    492.391    694.657    492.391    492.391    492.391
 93.370    718.000    713.017      4.983    492.183    712.945    492.183    492.183    492.183
 93.470    676.000    730.390    -54.390    491.974    730.315    491.974    491.974    491.974
 93.570    792.000    746.504     45.496    491.763    746.429    491.763    491.763    491.763
 93.670    820.000    761.257     58.743    491.551    761.182    491.551    491.551    491.551
 93.770    734.723    774.772    -40.049    491.337    774.698    491.337    491.337    491.337
 93.870    826.155    787.307     38.848    491.121    787.234    491.121    491.121    491.121
 93.970    742.143    799.123    -56.980    490.905    799.052    490.905    490.905    490.905
 94.070    867.696    810.392     57.304    490.686    810.323    490.686    490.686    490.686
 94.170    790.000    821.169    -31.169    490.467    821.103    490.467    490.467    490.467
 94.270    779.491    831.464    -51.972    490.245    831.400    490.245    490.245    490.245
 94.370    838.000    841.351     -3.351    490.023    841.291    490.023    490.023    490.023
 94.470    827.000    850.925    -23.925    489.799    850.868    489.799    489.799    489.799
 94.570    892.000    860.302     31.698    489.573    860.248    489.573    489.573    489.573
 94.670    807.164    869.490    -62.327    489.346    869.440    489.346    489.346    489.346
 94.770    844.000    878.258    -34.258    489.118    878.211    489.118    489.118    489.118
 94.870    914.000    886.062     27.938    488.889    886.020    488.889    488.889    488.889
 94.970    851.605    892.053    -40.447    488.658    892.016    488.658    488.658    488.658
 95.070    935.000    895.169     39.831    488.425    895.138    488.425    488.425    488.425
 95.170    864.000    894.330    -30.330    488.192    894.307    488.192    488.192    488.192
 95.270    923.000    888.704     34.296    487.957    888.688    487.957    487.957    487.957
 95.370    915.000    877.968     37.032    487.721    877.959    487.721    487.721    487.721
 95.470    874.000    862.455     11.545    487.483    862.453    487.483    487.483    487.483
 95.570    780.000    843.107    -63.107    487.244    843.111    487.244    487.244    487.244
 95.670    803.997    821.288    -17.290    487.004    821.296    487.004    487.004    487.004
 95.770    888.000    798.554     89.446    486.763    798.564    486.763    486.763    486.763
 95.870    743.000    776.484    -33.484    486.520    776.496    486.520    486.520    486.520
 95.970    727.939    756.581    -28.642    486.276    756.591    486.276    486.276    486.276
 96.070    735.000    740.217     -5.217    486.031    740.225    486.031    486.031    486.031
 96.170    767.172    728.624     38.548    485.785    728.628    485.785    485.785    485.785
 96.270    700.000    722.874    -22.874    485.537    722.874    485.537    485.537    485.537
 96.370    736.000    723.878     12.122    485.289    723.871    485.289    485.289    485.289
 96.470    725.228    732.370     -7.142    485.039    732.356    485.039    485.039    485.039
 96.570    749.000    748.898      0.102    484.788    748.877    484.788    484.788    484.788
 96.670    764.000    773.805     -9.805    484.536    773.776    484.536    484.536    484.536
 96.770    789.143    807.203    -18.061    484.283    807.167    484.283    484.283    484.283
 96.870    766.000    848.939    -82.939    484.028    848.895    484.028    484.028    484.028
 96.970    961.419    898.548     62.872    483.773    898.497    483.773    483.773    483.773
 97.070    905.000    955.205    -50.205    483.517    955.148    483.517    483.517    483.517
 97.170    953.000   1017.676    -64.676    483.259   1017.615    483.259    483.259    483.259
 97.270   1090.000   1084.272      5.728    483.001   1084.208    483.001    483.001    483.001
 97.370   1184.908   1152.814     32.094    482.741   1152.750    482.741    482.741    482.741
 97.470   1275.000   1220.624     54.376    482.480   1220.563    482.480    482.480    482.480
 97.570   1302.606   1284.556     18.050    482.219   1284.501    482.219    482.219    482.219
 97.670   1349.237   1341.115      8.122    481.956   1341.071    481.956    481.956    481.956
 97.770   1397.000   1386.734     10.266    481.693   1386.703    481.693    481.693    481.693
 97.870   1379.000   1418.214    -39.214    481.428   1418.200    481.428    481.428    481.428
 97.970   1349.034   1433.280    -84.246    481.163   1433.284    481.163    481.163    481.163
 98.070   1451.000   1431.057     19.943    480.897   1431.079    480.897    480.897    480.897
 98.170   1320.719   1412.243    -91.524    480.630   1412.281    480.630    480.630    480.630
 98.270   1382.000   1378.898      3.102    480.362   1378.950    480.362    480.362    480.362
 98.370   1356.000   1334.003     21.997    480.093   1334.065    480.093    480.093    480.093
 98.470   1332.000   1280.964     51.036    479.823   1281.032    479.823    479.823    479.823
 98.570   1215.220   1223.224     -8.004    479.553   1223.296    479.553    479.553    479.553
 98.670   1211.636   1164.028     47.608    479.282   1164.100    479.282    479.282    479.282
 98.770   1126.000   1106.291     19.709    479.010   1106.359    479.010    479.010    479.010
 98.870   1031.000   1052.551    -21.551    478.737   1052.614    478.737    478.737    478.737
 98.970    962.843   1004.965    -42.123    478.464   1005.021    478.464    478.464    478.464
 99.070   1050.000    965.331     84.669    478.189    965.379    478.189    478.189    478.189
 99.170    883.000    935.078    -52.078    477.915    935.118    477.915    477.915    477.915
 99.270    879.000    915.453    -36.453    477.639    915.485    477.639    477.639    477.639
 99.370    898.000    907.324     -9.324    477.363    907.348    477.363    477.363    477.363
 99.470    918.942    911.261      7.681    477.086    911.279    477.086    477.086    477.086
 99.570    886.000    927.581    -41.581    476.809    927.594    476.809    476.809    476.809
 99.670    960.000    956.335      3.665    476.531    956.345    476.531    476.531    476.531
 99.770    938.386    997.303    -58.917    476.252    997.312    476.252    476.252    476.252
 99.870   1062.000   1049.975     12.025    475.973   1049.986    475.973    475.973    475.973
 99.970   1066.696   1113.519    -46.823    475.693   1113.535    475.693    475.693    475.693
100.070   1157.000   1186.760    -29.760    475.413   1186.782    475.413    475.413    475.413
100.170   1213.771   1268.116    -54.345    475.133   1268.149    475.133    475.133    475.133
100.270   1396.782   1355.548     41.234    474.852   1355.595    474.852    474.852    474.852
100.370   1421.312   1446.556    -25.244    474.570   1446.620    474.570    474.570    474.570
100.470   1662.000   1538.215    123.785    474.288   1538.300    474.288    474.288    474.288
100.570   1679.000   1627.308     51.692    474.006   1627.416    474.006    474.006    474.006
100.670   1708.000   1710.571     -2.571    473.724   1710.704    473.724    473.724    473.724
100.770   1823.000   1785.004     37.996    473.441   1785.162    473.441    473.441    473.441
100.870   1900.239   1848.143     52.096    473.157   1848.326    473.157    473.157    473.157
100.970   1882.901   1898.163    -15.262    472.874   1898.369    472.874    472.874    472.874
101.070   1923.495   1933.787    -10.292    472.590   1934.013    472.590    472.590    472.590
101.170   1878.000   1954.092    -76.092    472.306   1954.334    472.306    472.306    472.306
101.270   2016.371   1958.393     57.978    472.022   1958.649    472.022    472.022    472.022
101.370   1962.531   1946.341     16.190    471.737   1946.606    471.737    471.737    471.737
101.470   1986.000   1918.205     67.795    471.453   1918.476    471.453    471.453    471.453
101.570   1904.000   1875.195     28.805    471.168   1875.468    471.168    471.168    471.168
101.670   1893.202   1819.599     73.603    470.883   1819.869    470.883    470.883    470.883
101.770   1802.000   1754.615     47.385    470.598   1754.878    470.598    470.598    470.598
101.870   1646.841   1683.945    -37.104    470.313   1684.198    470.313    470.313    470.313
101.970   1602.000   1611.303     -9.303    470.028   1611.542    470.028    470.028    470.028
102.070   1538.000   1540.007     -2.007    469.744   1540.231    469.744    469.744    469.744
102.170   1475.000   1472.730      2.270    469.459   1472.938    469.459    469.459    469.459
102.270   1351.000   1411.381    -60.381    469.174   1411.573    469.174    469.174    469.174
102.370   1381.006   1357.093     23.913    468.889   1357.271    468.889    468.889    468.889
102.470   1304.000   1310.254     -6.254    468.604   1310.418    468.604    468.604    468.604
102.570   1278.362   1270.561      7.801    468.320   1270.713    468.320    468.320    468.320
102.670   1235.852   1237.103     -1.250    468.035   1237.245    468.035    468.035    468.035
102.770   1212.000   1208.462      3.538    467.751   1208.596    467.751    467.751    467.751
102.870   1192.883   1182.869     10.015    467.467   1182.998    467.467    467.467    467.467
102.970   1111.000   1158.393    -47.393    467.183   1158.518    467.183    467.183    467.183
103.070   1094.503   1133.274    -38.770    466.900   1133.396    466.900    466.900    466.900
103.170   1066.921   1106.075    -39.154    466.617   1106.196    466.617    466.617    466.617
103.270   1053.000   1075.916    -22.916    466.334   1076.034    466.334    466.334    466.334
103.370   1030.000   1042.542    -12.542    466.051   1042.658    466.051    466.051    466.051
103.470   1067.901   1006.246     61.655    465.769   1006.357    465.769    465.769    465.769
103.570    925.022    967.700    -42.678    465.488    967.807    465.488    465.488    465.488
103.670    872.490    927.781    -55.291    465.206    927.881    465.206    465.206    465.206
103.770    897.000    887.414      9.586    464.926    887.507    464.926    464.926    464.926
103.870    847.000    847.493     -0.493    464.646    847.579    464.646    464.646    464.646
103.970    862.000    808.812     53.188    464.366    808.891    464.366    464.366    464.366
104.070    756.000    772.038    -16.038    464.087    772.108    464.087    464.087    464.087
104.170    771.000    737.702     33.298    463.809    737.765    463.809    463.809    463.809
104.270    725.000    706.195     18.805    463.531    706.251    463.531    463.531    463.531
104.370    679.000    677.771      1.229    463.254    677.819    463.254    463.254    463.254
104.470    694.000    652.545     41.455    462.978    652.587    462.978    462.978    462.978
104.570    640.000    630.519      9.481    462.702    630.555    462.702    462.702    462.702
104.670    554.145    611.591    -57.446    462.427    611.621    462.427    462.427    462.427
104.770    582.559    595.584    -13.025    462.153    595.609    462.153    462.153    462.153
104.870    594.000    582.266     11.734    461.880    582.287    461.880    461.880    461.880
104.970    581.000    571.377      9.623    461.608    571.393    461.608    461.608    461.608
105.070    565.000    562.645      2.355    461.337    562.658    461.337    461.337    461.337
105.170    598.000    555.810     42.190    461.066    555.821    461.066    461.066    461.066
105.270    579.000    550.633     28.367    460.797    550.641    460.797    460.797    460.797
105.370    515.376    546.907    -31.531    460.528    546.912    460.528    460.528    460.528
105.470    514.000    544.461    -30.461    460.261    544.464    460.261    460.261    460.261
105.570    567.000    543.165     23.835    459.995    543.165    459.995    459.995    459.995
105.670    561.000    542.925     18.075    459.730    542.924    459.730    459.730    459.730
105.770    536.000    543.685     -7.685    459.466    543.681    459.466    459.466    459.466
105.870    522.000    545.416    -23.416    459.203    545.411    459.203    459.203    459.203
105.970    606.370    548.117     58.254    458.942    548.108    458.942    458.942    458.942
106.070    500.865    551.801    -50.937    458.682    551.791    458.682    458.682    458.682
106.170    549.006    556.498     -7.491    458.423    556.484    458.423    458.423    458.423
106.270    580.000    562.236     17.764    458.165    562.220    458.165    458.165    458.165
106.370    584.376    569.039     15.337    457.909    569.020    457.909    457.909    457.909
106.470    593.000    576.914     16.086    457.654    576.892    457.654    457.654    457.654
106.570    531.679    585.840    -54.160    457.401    585.815    457.401    457.401    457.401
106.670    579.000    595.761    -16.761    457.149    595.733    457.149    457.149    457.149
106.770    632.000    606.579     25.421    456.899    606.548    456.899    456.899    456.899
106.870    619.000    618.146      0.854    456.651    618.113    456.651    456.651    456.651
106.970    668.212    630.253     37.958    456.404    630.218    456.404    456.404    456.404
107.070    610.000    642.672    -32.672    456.158    642.634    456.158    456.158    456.158
107.170    685.000    655.118     29.882    455.915    655.079    455.915    455.915    455.915
107.270    701.168    667.241     33.926    455.673    667.201    455.673    455.673    455.673
107.370    739.000    678.669     60.332    455.433    678.628    455.433    455.433    455.433
107.470    685.000    689.018     -4.018    455.194    688.978    455.194    455.194    455.194
107.570    658.000    697.930    -39.930    454.958    697.891    454.958    454.958    454.958
107.670    733.691    705.113     28.578    454.724    705.077    454.724    454.724    454.724
107.770    695.837    710.396    -14.559    454.491    710.362    454.491    454.491    454.491
107.870    660.185    713.760    -53.575    454.260    713.729    454.260    454.260    454.260
107.970    664.447    715.355    -50.907    454.032    715.328    454.032    454.032    454.032
108.070    704.000    715.473    -11.473    453.805    715.450    453.805    453.805    453.805
108.170    686.000    714.503    -28.503    453.581    714.484    453.581    453.581    453.581
108.270    749.122    712.873     36.250    453.359    712.857    453.359    453.359    453.359
108.370    652.826    710.990    -58.164    453.139    710.979    453.139    453.139    453.139
108.470    750.602    709.210     41.393    452.921    709.202    452.921    452.921    452.921
108.570    696.144    707.802    -11.658    452.706    707.798    452.706    452.706    452.706
108.670    730.031    706.942     23.088    452.493    706.942    452.493    452.493    452.493
108.770    756.736    706.701     50.035    452.282    706.704    452.282    452.282    452.282
108.870    686.000    707.043    -21.043    452.073    707.050    452.073    452.073    452.073
108.970    706.495    707.832     -1.337    451.868    707.842    451.868    451.868    451.868
109.070    745.373    708.835     36.538    451.664    708.848    451.664    451.664    451.664
109.170    707.000    709.737     -2.737    451.463    709.754    451.463    451.463    451.463
109.270    701.000    710.167     -9.167    451.265    710.187    451.265    451.265    451.265
109.370    712.000    709.732      2.268    451.070    709.755    451.070    451.070    451.070
109.470    675.000    708.067    -33.067    450.877    708.092    450.877    450.877    450.877
109.570    750.922    704.881     46.041    450.687    704.908    450.687    450.687    450.687
109.670    743.000    700.006     42.994    450.499    700.035    450.499    450.499    450.499
109.770    654.000    693.420    -39.420    450.315    693.451    450.315    450.315    450.315
109.870    733.276    685.239     48.037    450.133    685.270    450.133    450.133    450.133
109.970    706.107    675.692     30.415    449.955    675.723    449.955    449.955    449.955
110.070    720.422    665.081     55.341    449.779    665.111    449.779    449.779    449.779
110.170    691.000    653.741     37.259    449.606    653.770    449.606    449.606    449.606
110.270    627.000    642.006    -15.006    449.437    642.034    449.437    449.437    449.437
110.370    619.000    630.193    -11.193    449.270    630.218    449.270    449.270    449.270
110.470    654.750    618.581     36.170    449.107    618.604    449.107    449.107    449.107
110.570    618.000    607.412     10.588    448.947    607.433    448.947    448.947    448.947
110.670    674.000    596.890     77.110    448.790    596.909    448.790    448.790    448.790
110.770    605.000    587.173     17.827    448.637    587.190    448.637    448.637    448.637
110.870    599.033    578.378     20.655    448.487    578.392    448.487    448.487    448.487
110.970    587.000    570.580     16.420    448.340    570.592    448.340    448.340    448.340
111.070    635.000    563.819     71.181    448.197    563.828    448.197    448.197    448.197
111.170    573.000    558.101     14.899    448.057    558.108    448.057    448.057    448.057
111.270    577.000    553.405     23.595    447.921    553.410    447.921    447.921    447.921
111.370    571.625    549.684     21.940    447.789    549.688    447.789    447.789    447.789
111.470    599.590    546.878     52.712    447.660    546.881    447.660    447.660    447.660
111.570    560.000    544.912     15.088    447.535    544.913    447.535    447.535    447.535
111.670    537.312    543.706     -6.394    447.414    543.705    447.414    447.414    447.414
111.770    557.000    543.175     13.825    447.297    543.173    447.297    447.297    447.297
111.870    576.000    543.240     32.760    447.183    543.237    447.183    447.183    447.183
111.970    586.000    543.822     42.178    447.074    543.818    447.074    447.074    447.074
112.070    563.000    544.852     18.148    446.968    544.847    446.968    446.968    446.968
112.170    522.385    546.265    -23.880    446.867    546.260    446.867    446.867    446.867
112.270    500.000    548.018    -48.018    446.769    548.012    446.769    446.769    446.769
112.370    528.000    550.068    -22.068    446.676    550.062    446.676    446.676    446.676
112.470    575.646    552.388     23.258    446.587    552.381    446.587    446.587    446.587
112.570    583.000    554.959     28.041    446.503    554.952    446.503    446.503    446.503
112.670    504.845    557.783    -52.937    446.422    557.775    446.422    446.422    446.422
112.770    554.000    560.886     -6.886    446.346    560.879    446.346    446.346    446.346
112.870    600.000    564.290     35.710    446.275    564.282    446.275    446.275    446.275
112.970    582.000    568.036     13.964    446.208    568.028    446.208    446.208    446.208
113.070    604.000    572.181     31.819    446.146    572.173    446.146    446.146    446.146
113.170    602.841    576.802     26.038    446.088    576.793    446.088    446.088    446.088
113.270    644.000    581.996     62.004    446.035    581.986    446.035    446.035    446.035
113.370    618.000    587.886     30.114    445.986    587.876    445.986    445.986    445.986
113.470    540.352    594.631    -54.279    445.943    594.620    445.943    445.943    445.943
113.570    619.000    602.432     16.568    445.904    602.419    445.904    445.904    445.904
113.670    652.076    611.545     40.531    445.870    611.531    445.870    445.870    445.870
113.770    625.000    622.292      2.708    445.841    622.276    445.841    445.841    445.841
113.870    681.000    635.079     45.921    445.818    635.060    445.818    445.818    445.818
113.970    649.928    650.409     -0.480    445.799    650.386    445.799    445.799    445.799
114.070    648.000    668.899    -20.899    445.785    668.872    445.785    445.785    445.785
114.170    702.000    691.304     10.696    445.777    691.271    445.777    445.777    445.777
114.270    742.000    718.526     23.474    445.774    718.486    445.774    445.774    445.774
114.370    770.000    751.636     18.364    445.776    751.586    445.776    445.776    445.776
114.470    766.907    791.879    -24.972    445.784    791.818    445.784    445.784    445.784
114.570    779.000    840.683    -61.683    445.797    840.610    445.797    445.797    445.797
114.670    937.000    899.656     37.344    445.816    899.567    445.816    445.816    445.816
114.770   1017.195    970.568     46.628    445.840    970.461    445.840    445.840    445.840
114.870    980.306   1055.328    -75.022    445.870   1055.201    445.870    445.870    445.870
114.970   1176.000   1155.940     20.060    445.905   1155.789    445.905    445.905    445.905
115.070   1306.391   1274.445     31.947    445.947   1274.268    445.947    445.947    445.947
115.170   1446.000   1412.845     33.155    445.994   1412.639    445.994    445.994    445.994
115.270   1499.037   1573.012    -73.976    446.047   1572.775    446.047    446.047    446.047
115.370   1677.864   1756.584    -78.720    446.106   1756.314    446.106    446.106    446.106
115.470   2032.831   1964.841     67.990    446.171   1964.536    446.171    446.171    446.171
115.570   2171.574   2198.588    -27.015    446.242   2198.249    446.242    446.242    446.242
115.670   2564.000   2458.026    105.974    446.320   2457.651    446.320    446.320    446.320
115.770   2739.053   2742.629     -3.577    446.403   2742.223    446.403    446.403    446.403
115.870   3117.000   3051.046     65.954    446.493   3050.610    446.493    446.493    446.493
115.970   3542.000   3381.002    160.998    446.590   3380.540    446.590    446.590    446.590
116.070   3770.000   3729.235     40.765    446.692   3728.754    446.692    446.692    446.692
116.170   4034.000   4091.459    -57.459    446.801   4090.966    446.801    446.801    446.801
116.270   4524.000   4462.348     61.652    446.917   4461.852    446.917    446.917    446.917
116.370   4982.000   4835.560    146.440    447.040   4835.071    447.040    447.040    447.040
116.470   5008.000   5203.783   -195.783    447.169   5203.313    447.169    447.169    447.169
116.570   5514.980   5558.838    -43.858    447.305   5558.399    447.305    447.305    447.305
116.670   5980.000   5891.836     88.164    447.447   5891.442    447.447    447.447    447.447
116.770   6106.167   6193.432    -87.265    447.597   6193.096    447.597    447.597    447.597
116.870   6513.000   6454.204     58.796    447.753   6453.941    447.753    447.753    447.753
116.970   6611.721   6665.179    -53.459    447.917   6664.999    447.917    447.917    447.917
117.070   6742.000   6818.492    -76.492    448.088   6818.405    448.088    448.088    448.088
117.170   7100.456   6908.107    192.349    448.266   6908.119    448.266    448.266    448.266
117.270   6951.000   6930.466     20.534    448.451   6930.578    448.451    448.451    448.451
117.370   6919.000   6884.911     34.089    448.643   6885.120    448.643    448.643    448.643
117.470   6753.000   6773.762    -20.762    448.843   6774.061    448.843    448.843    448.843
117.570   6665.670   6602.024     63.645    449.051   6602.402    449.051    449.051    449.051
117.670   6175.000   6376.810   -201.810    449.266   6377.252    449.266    449.266    449.266
117.770   5966.452   6106.625   -140.173    449.488   6107.118    449.488    449.488    449.488
117.870   5486.000   5800.669   -314.669    449.718   5801.198    449.718    449.718    449.718
117.970   5585.040   5468.247    116.793    449.956   5468.796    449.956    449.956    449.956
118.070   4947.000   5118.328   -171.328    450.202   5118.885    450.202    450.202    450.202
118.170   4679.000   4759.242    -80.242    450.456   4759.794    450.456    450.456    450.456
118.270   4332.000   4398.449    -66.449    450.718   4398.985    450.718    450.718    450.718
118.370   4036.000   4042.623     -6.623    450.988   4043.135    450.988    450.988    450.988
118.470   3679.000   3697.276    -18.276    451.265   3697.757    451.265    451.265    451.265
118.570   3513.000   3366.932    146.068    451.552   3367.376    451.552    451.552    451.552
118.670   3040.000   3055.105    -15.105    451.846   3055.509    451.846    451.846    451.846
118.770   2757.830   2764.341     -6.511    452.149   2764.703    452.149    452.149    452.149
118.870   2533.147   2496.293     36.854    452.460   2496.612    452.460    452.460    452.460
118.970   2331.941   2251.807     80.134    452.780   2252.085    452.780    452.780    452.780
119.070   1964.000   2031.037    -67.037    453.108   2031.275    453.108    453.108    453.108
119.170   1806.847   1833.550    -26.703    453.445   1833.751    453.445    453.445    453.445
119.270   1622.211   1658.439    -36.228    453.791   1658.606    453.791    453.791    453.791
119.370   1459.000   1504.436    -45.436    454.146   1504.573    454.146    454.146    454.146
119.470   1369.000   1370.009     -1.009    454.509   1370.119    454.509    454.509    454.509
119.570   1212.000   1253.460    -41.460    454.882   1253.547    454.882    454.882    454.882
119.670   1211.377   1153.010     58.367    455.263   1153.078    455.263    455.263    455.263
119.770   1087.000   1066.875     20.125    455.654   1066.927    455.654    455.654    455.654
119.870    992.000    993.320     -1.320    456.054    993.359    456.054    456.054    456.054
119.970    940.000    930.710      9.290    456.463    930.739    456.463    456.463    456.463
120.070    872.000    877.540     -5.540    456.882    877.561    456.882    456.882    456.882
120.170    812.000    832.452    -20.452    457.310    832.468    457.310    457.310    457.310
120.270    834.000    794.248     39.752    457.748    794.260    457.748    457.748    457.748
120.370    695.000    761.884    -66.884    458.195    761.893    458.195    458.195    458.195
120.470    767.619    734.464     33.155    458.652    734.472    458.652    458.652    458.652
120.570    673.000    711.231    -38.231    459.119    711.237    459.119    459.119    459.119
120.670    628.796    691.549    -62.754    459.595    691.556    459.595    459.595    459.595
120.770    617.753    674.892    -57.139    460.082    674.899    460.082    460.082    460.082
120.870    640.000    660.825    -20.825    460.579    660.832    460.579    460.579    460.579
120.970    671.440    648.991     22.449    461.086    648.998    461.086    461.086    461.086
121.070    662.810    639.097     23.712    461.603    639.106    461.603    461.603    461.603
121.170    654.477    630.905     23.571    462.130    630.914    462.130    462.130    462.130
121.270    574.000    624.217    -50.217    462.668    624.227    462.668    462.668    462.668
121.370    592.000    618.871    -26.871    463.216    618.882    463.216    463.216    463.216
121.470    605.000    614.730     -9.730    463.775    614.742    463.775    463.775    463.775
121.570    574.000    611.680    -37.680    464.344    611.693    464.344    464.344    464.344
121.670    587.097    609.618    -22.522    464.924    609.632    464.924    464.924    464.924
121.770    589.122    608.457    -19.335    465.515    608.472    465.515    465.515    465.515
121.870    590.000    608.113    -18.113    466.117    608.130    466.117    466.117    466.117
121.970    649.776    608.509     41.267    466.730    608.528    466.730    466.730    466.730
122.070    599.521    609.569    -10.048    467.354    609.590    467.354    467.354    467.354
122.170    570.000    611.216    -41.216    467.989    611.240    467.989    467.989    467.989
122.270    657.011    613.372     43.639    468.635    613.398    468.635    468.635    468.635
122.370    572.365    615.954    -43.589    469.293    615.982    469.293    469.293    469.293
122.470    672.910    618.874     54.035    469.962    618.905    469.962    469.962    469.962
122.570    575.000    622.042    -47.042    470.643    622.076    470.643    470.643    470.643
122.670    567.629    625.359    -57.730    471.335    625.396    471.335    471.335    471.335
122.770    622.382    628.721     -6.339    472.039    628.761    472.039    472.039    472.039
122.870    607.000    632.021    -25.021    472.755    632.064    472.755    472.755    472.755
122.970    633.000    635.145     -2.145    473.482    635.191    473.482    473.482    473.482
123.070    621.000    637.982    -16.982    474.222    638.030    474.222    474.222    474.222
123.170    693.000    640.419     52.581    474.974    640.470    474.974    474.974    474.974
123.270    700.000    642.354     57.646    475.738    642.407    475.738    475.738    475.738
123.370    605.354    643.695    -38.340    476.514    643.751    476.514    476.514    476.514
123.470    649.000    644.369      4.631    477.302    644.427    477.302    477.302    477.302
123.570    599.000    644.328    -45.328    478.103    644.388    478.103    478.103    478.103
123.670    665.580    643.548     22.032    478.917    643.608    478.917    478.917    478.917
123.770    578.420    642.032    -63.611    479.743    642.092    479.743    479.743    479.743
123.870    632.000    639.809     -7.809    480.582    639.869    480.582    480.582    480.582
123.970    652.000    636.929     15.071    481.434    636.989    481.434    481.434    481.434
124.070    585.458    633.460    -48.002    482.298    633.519    482.298    482.298    482.298
124.170    623.000    629.478     -6.478    483.176    629.535    483.176    483.176    483.176
124.270    677.788    625.066     52.722    484.067    625.122    484.067    484.067    484.067
124.370    654.000    620.312     33.688    484.971    620.365    484.971    484.971    484.971
124.470    665.000    615.301     49.699    485.888    615.352    485.888    485.888    485.888
124.570    599.000    610.116    -11.116    486.819    610.164    486.819    486.819    486.819
124.670    590.856    604.838    -13.982    487.763    604.883    487.763    487.763    487.763
124.770    633.000    599.541     33.459    488.721    599.584    488.721    488.721    488.721
124.870    652.000    594.296     57.704    489.692    594.335    489.692    489.692    489.692
124.970    627.000    589.163     37.837    490.678    589.200    490.678    490.678    490.678
