neutron_powder_diffraction_0049
R_wp: 3.922
Temperature (K): 639.162
Counts: 83205.00
Wavelength (Ã…): 2.52098
COMMENTS
Test file for demonstrating the .xyy file format in Reel1.0
END OF HEADER
   tth       Y_obs     Y_calc      Y_res    Background    Phase_1_Nuc    Phase_1_Mag    Phase_2_Nuc    Phase_2_Mag
  9.970    740.000    677.190     62.810    675.761    676.789    676.161    675.761    675.761
 10.070    734.000    676.578     57.422    675.062    676.174    675.466    675.062    675.062
 10.170    661.000    675.980    -14.980    674.364    675.571    674.773    674.364    674.364
 10.270    701.000    675.396     25.604    673.668    674.983    674.081    673.668    673.668
 10.370    706.098    674.830     31.268    672.972    674.412    673.390    672.972    672.972
 10.470    712.000    674.286     37.714    672.278    673.863    672.700    672.278    672.278
 10.570    685.407    673.768     11.639    671.584    673.340    672.011    671.584    671.584
 10.670    675.000    673.281      1.719    670.892    672.849    671.323    670.892    670.892
 10.770    619.501    672.835    -53.334    670.201    672.398    670.637    670.201    670.201
 10.870    650.120    672.440    -22.320    669.511    671.998    669.952    669.511    669.511
 10.970    656.000    672.110    -16.110    668.823    671.663    669.268    668.823    668.823
 11.070    626.863    671.865    -45.002    668.135    671.413    668.586    668.135    668.135
 11.170    718.000    671.734     46.266    667.449    671.276    667.904    667.449    667.449
 11.270    701.000    671.760     29.240    666.764    671.296    667.224    666.764    666.764
 11.370    715.297    672.012     43.285    666.080    671.543    666.546    666.080    666.080
 11.470    703.000    672.628     30.372    665.397    672.152    665.869    665.397    665.397
 11.570    685.002    673.908     11.094    664.716    673.426    665.193    664.716    664.716
 11.670    715.000    676.545     38.455    664.036    676.056    664.518    664.036    664.036
 11.770    749.000    681.931     67.069    663.357    681.433    663.846    663.357    663.357
 11.870    682.947    692.295     -9.348    662.680    691.785    663.174    662.680    662.680
 11.970    734.364    710.038     24.326    662.004    709.512    662.504    662.004    662.004
 12.070    706.723    735.743    -29.020    661.329    735.196    661.835    661.329    661.329
 12.170    758.641    764.804     -6.164    660.655    764.235    661.168    660.655    660.655
 12.270    845.000    784.770     60.230    659.984    784.183    660.502    659.984    659.984
 12.370    865.000    782.433     82.567    659.313    781.841    659.838    659.313    659.313
 12.470    809.000    759.138     49.862    658.644    758.552    659.175    658.644    658.644
 12.570    719.544    728.753     -9.209    657.976    728.177    658.514    657.976    657.976
 12.670    717.000    702.668     14.332    657.310    702.100    657.854    657.310    657.310
 12.770    686.106    684.635      1.471    656.645    684.069    657.196    656.645    656.645
 12.870    648.000    673.703    -25.703    655.982    673.135    656.539    655.982    655.982
 12.970    654.000    667.433    -13.433    655.320    666.861    655.885    655.320    655.320
 13.070    610.546    663.733    -53.188    654.659    663.157    655.231    654.659    654.659
 13.170    614.000    661.338    -47.338    654.001    660.755    654.580    654.001    654.001
 13.270    652.000    659.463     -7.463    653.343    658.873    653.930    653.343    653.343
 13.370    633.181    657.920    -24.739    652.688    657.323    653.282    652.688    652.688
 13.470    623.000    656.597    -33.597    652.033    655.992    652.635    652.033    652.033
 13.570    618.000    655.423    -37.423    651.381    654.812    651.991    651.381    651.381
 13.670    611.000    654.358    -43.358    650.730    653.738    651.348    650.730    650.730
 13.770    592.000    653.376    -61.376    650.080    652.748    650.706    650.080    650.080
 13.870    616.000    652.457    -36.457    649.432    651.821    650.067    649.432    649.432
 13.970    696.000    651.588     44.412    648.786    650.944    649.429    648.786    648.786
 14.070    690.554    650.758     39.795    648.141    650.106    648.793    648.141    648.141
 14.170    649.481    649.964     -0.483    647.499    649.302    648.159    647.499    647.499
 14.270    644.000    649.214     -5.214    646.857    648.543    647.528    646.857    646.857
 14.370    687.000    648.474     38.526    646.218    647.794    646.897    646.218    646.218
 14.470    639.000    647.744     -8.744    645.580    647.054    646.269    645.580    645.580
 14.570    629.000    647.028    -18.028    644.943    646.329    645.642    644.943    644.943
 14.670    677.000    646.325     30.675    644.309    645.616    645.018    644.309    644.309
 14.770    640.000    645.635     -5.635    643.676    644.915    644.395    643.676    643.676
 14.870    596.568    644.954    -48.386    643.045    644.224    643.774    643.045    643.045
 14.970    592.834    644.282    -51.447    642.416    643.542    643.155    642.416    642.416
 15.070    668.070    643.618     24.452    641.788    642.867    642.539    641.788    641.788
 15.170    580.000    642.961    -62.961    641.163    642.199    641.924    641.163    641.163
 15.270    593.983    642.311    -48.328    640.539    641.538    641.311    640.539    640.539
 15.370    602.974    641.667    -38.693    639.916    640.882    640.700    639.916    639.916
 15.470    642.350    641.028      1.322    639.296    640.232    640.092    639.296    639.296
 15.570    586.000    640.395    -54.395    638.677    639.586    639.485    638.677    638.677
 15.670    627.180    639.766    -12.586    638.061    638.946    638.881    638.061    638.061
 15.770    620.000    639.145    -19.145    637.446    638.312    638.278    637.446    637.446
 15.870    532.000    638.528   -106.528    636.833    637.682    637.678    636.833    636.833
 15.970    633.000    637.912     -4.912    636.221    637.053    637.080    636.221    636.221
 16.070    624.000    637.301    -13.301    635.612    636.428    636.484    635.612    635.612
 16.170    642.000    636.693      5.307    635.005    635.807    635.891    635.005    635.005
 16.270    665.000    636.089     28.911    634.399    635.188    635.299    634.399    634.399
 16.370    612.155    635.488    -23.333    633.795    634.573    634.710    633.795    633.795
 16.470    612.313    634.891    -22.578    633.194    633.961    634.123    633.194    633.194
 16.570    647.458    634.298     13.160    632.594    633.353    633.539    632.594    632.594
 16.670    631.000    633.713     -2.713    631.996    632.753    632.956    631.996    631.996
 16.770    650.764    633.128     17.636    631.400    632.151    632.376    631.400    631.400
 16.870    631.888    632.544     -0.656    630.806    631.551    631.799    630.806    630.806
 16.970    658.000    631.963     26.037    630.214    630.953    631.224    630.214    630.214
 17.070    639.000    631.388      7.612    629.624    630.361    630.651    629.624    629.624
 17.170    615.000    630.839    -15.839    629.036    629.794    630.081    629.036    629.036
 17.270    619.000    630.321    -11.321    628.449    629.256    629.513    628.449    628.449
 17.370    611.972    629.758    -17.786    627.865    628.675    628.948    627.865    627.865
 17.470    659.190    629.193     29.997    627.283    628.091    628.385    627.283    627.283
 17.570    623.983    628.632     -4.649    626.703    627.510    627.824    626.703    626.703
 17.670    623.000    628.074     -5.074    626.125    626.933    627.267    626.125    626.125
 17.770    572.000    627.532    -55.532    625.549    626.369    626.711    625.549    625.549
 17.870    608.000    626.981    -18.981    624.975    625.798    626.159    624.975    624.975
 17.970    590.896    626.433    -35.537    624.403    625.227    625.609    624.403    624.403
 18.070    623.000    625.888     -2.888    623.833    624.659    625.061    623.833    623.833
 18.170    590.000    625.354    -35.354    623.265    624.103    624.517    623.265    623.265
 18.270    590.000    624.836    -34.836    622.699    623.561    623.975    622.699    622.699
 18.370    611.000    624.302    -13.302    622.136    623.002    623.435    622.136    622.136
 18.470    571.000    623.769    -52.769    621.574    622.444    622.899    621.574    621.574
 18.570    574.000    623.239    -49.239    621.015    621.888    622.365    621.015    621.015
 18.670    643.213    622.713     20.500    620.457    621.335    621.835    620.457    620.457
 18.770    609.761    622.190    -12.429    619.902    620.785    621.307    619.902    619.902
 18.870    634.000    621.682     12.318    619.349    620.247    620.783    619.349    619.349
 18.970    610.637    621.217    -10.580    618.798    619.743    620.271    618.798    618.798
 19.070    655.000    620.731     34.269    618.249    619.222    619.758    618.249    618.249
 19.170    595.000    620.225    -25.225    617.702    618.684    619.243    617.702    617.702
 19.270    635.463    619.720     15.744    617.157    618.147    618.730    617.157    617.157
 19.370    570.000    619.219    -49.219    616.615    617.612    618.221    616.615    616.615
 19.470    662.000    618.721     43.279    616.075    617.081    617.715    616.075    616.075
 19.570    614.000    618.227     -4.227    615.536    616.551    617.212    615.536    615.536
 19.670    587.000    617.739    -30.739    615.000    616.027    616.713    615.000    615.000
 19.770    597.000    617.254    -20.254    614.467    615.503    616.217    614.467    614.467
 19.870    603.000    616.772    -13.772    613.935    614.982    615.725    613.935    613.935
 19.970    566.000    616.294    -50.294    613.406    614.464    615.236    613.406    613.406
 20.070    618.127    615.828      2.299    612.878    613.955    614.751    612.878    612.878
 20.170    590.000    615.419    -25.419    612.353    613.495    614.278    612.353    612.353
 20.270    590.000    614.968    -24.968    611.831    612.994    613.804    611.831    611.831
 20.370    574.000    614.521    -40.521    611.310    612.500    613.331    611.310    611.310
 20.470    582.000    614.103    -32.103    610.792    612.034    612.861    610.792    610.792
 20.570    643.044    613.708     29.336    610.276    611.588    612.396    610.276    610.276
 20.670    641.531    613.271     28.261    609.762    611.098    611.934    609.762    609.762
 20.770    613.000    612.849      0.151    609.250    610.623    611.477    609.250    609.250
 20.870    587.766    612.421    -24.655    608.741    610.138    611.024    608.741    608.741
 20.970    578.150    612.014    -33.864    608.233    609.672    610.575    608.233    608.233
 21.070    623.000    611.617     11.383    607.728    609.214    610.131    607.728    607.728
 21.170    659.368    611.205     48.163    607.226    608.739    609.692    607.226    607.226
 21.270    637.710    610.806     26.904    606.725    608.275    609.257    606.725    606.725
 21.370    637.000    610.409     26.591    606.227    607.807    608.829    606.227    606.227
 21.470    612.059    610.018      2.041    605.732    607.343    608.406    605.732    605.732
 21.570    558.925    609.631    -50.706    605.238    606.882    607.987    605.238    605.238
 21.670    587.000    609.253    -22.253    604.747    606.427    607.573    604.747    604.747
 21.770    593.000    608.882    -15.882    604.258    605.975    607.165    604.258    604.258
 21.870    578.000    608.515    -30.515    603.771    605.524    606.762    603.771    603.771
 21.970    640.000    608.158     31.842    603.287    605.079    606.366    603.287    603.287
 22.070    610.115    607.810      2.306    602.804    604.639    605.975    602.804    602.804
 22.170    580.633    607.471    -26.838    602.325    604.204    605.592    602.325    602.325
 22.270    567.000    607.144    -40.144    601.847    603.776    605.215    601.847    601.847
 22.370    594.000    606.830    -12.830    601.372    603.356    604.846    601.372    601.372
 22.470    570.232    606.535    -36.304    600.899    602.949    604.486    600.899    600.899
 22.570    612.000    606.247      5.753    600.429    602.544    604.131    600.429    600.429
 22.670    598.000    605.973     -7.973    599.960    602.148    603.785    599.960    599.960
 22.770    587.555    605.717    -18.162    599.495    601.764    603.448    599.495    599.495
 22.870    556.434    605.477    -49.043    599.031    601.389    603.119    599.031    599.031
 22.970    650.769    605.258     45.511    598.570    601.028    602.800    598.570    598.570
 23.070    581.000    605.062    -24.062    598.111    600.683    602.491    598.111    598.111
 23.170    622.000    604.892     17.108    597.654    600.355    602.192    597.654    597.654
 23.270    626.692    604.753     21.938    597.200    600.050    601.904    597.200    597.200
 23.370    575.037    604.651    -29.614    596.748    599.771    601.629    596.748    596.748
 23.470    570.754    604.591    -33.837    596.299    599.524    601.366    596.299    596.299
 23.570    634.237    604.583     29.654    595.852    599.318    601.117    595.852    595.852
 23.670    629.475    604.638     24.837    595.407    599.164    600.882    595.407    595.407
 23.770    622.370    604.773     17.596    594.964    599.076    600.662    594.964    594.964
 23.870    577.000    605.011    -28.011    594.524    599.078    600.459    594.524    594.524
 23.970    631.000    605.386     25.614    594.087    599.202    600.273    594.087    594.087
 24.070    593.000    605.959    -12.959    593.651    599.506    600.107    593.651    593.651
 24.170    606.913    606.849      0.064    593.218    600.110    599.960    593.218    593.218
 24.270    635.000    608.324     26.676    592.787    601.280    599.836    592.787    592.787
 24.370    639.583    610.971     28.612    592.359    603.600    599.737    592.359    592.359
 24.470    618.000    615.872      2.128    591.933    608.152    599.663    591.933    591.933
 24.570    671.000    624.571     46.429    591.510    616.479    599.619    591.510    591.510
 24.670    649.586    638.418     11.169    591.089    629.928    599.605    591.089    591.089
 24.770    711.000    657.101     53.899    590.670    648.185    599.626    590.670    590.670
 24.870    697.000    676.453     20.547    590.253    667.076    599.684    590.253    590.253
 24.970    712.000    687.343     24.657    589.839    677.459    599.785    589.839    589.839
 25.070    736.283    682.426     53.857    589.428    671.980    599.932    589.428    589.428
 25.170    678.310    665.669     12.641    589.019    654.603    600.130    589.019    589.019
 25.270    664.000    646.537     17.463    588.612    634.794    600.386    588.612    588.612
 25.370    605.322    631.112    -25.791    588.207    618.633    600.706    588.207    588.207
 25.470    643.000    620.993     22.007    587.805    607.711    601.099    587.805    587.805
 25.570    592.351    615.317    -22.965    587.405    601.155    601.574    587.405    587.405
 25.670    600.000    612.537    -12.537    587.008    597.407    602.143    587.008    587.008
 25.770    659.000    611.390     47.610    586.613    595.190    602.817    586.613    586.613
 25.870    578.694    611.130    -32.436    586.221    593.740    603.613    586.221    586.221
 25.970    677.000    611.407     65.593    585.830    592.689    604.550    585.830    585.830
 26.070    636.000    612.078     23.922    585.443    591.872    605.650    585.443    585.443
 26.170    639.000    613.098     25.902    585.057    591.215    606.941    585.057    585.057
 26.270    646.000    614.464     31.536    584.674    590.681    608.457    584.674    584.674
 26.370    578.519    616.189    -37.669    584.294    590.245    610.237    584.294    584.294
 26.470    662.583    618.319     44.264    583.915    589.901    612.333    583.915    583.915
 26.570    650.000    620.901     29.099    583.540    589.631    614.810    583.540    583.540
 26.670    616.272    624.024     -7.752    583.166    589.439    617.750    583.166    583.166
 26.770    673.000    627.796     45.204    582.795    589.329    621.260    582.795    582.795
 26.870    610.638    632.366    -21.728    582.426    589.309    625.480    582.426    582.426
 26.970    666.000    637.931     28.069    582.060    589.393    630.595    582.060    582.060
 27.070    666.000    644.762     21.238    581.696    589.600    636.854    581.696    581.696
 27.170    690.576    653.234     37.341    581.335    589.961    644.604    581.335    581.335
 27.270    669.950    663.879      6.071    580.976    590.517    654.332    580.976    580.976
 27.370    711.605    677.474     34.131    580.619    591.333    666.752    580.619    580.619
 27.470    694.718    695.230     -0.512    580.265    592.509    682.977    580.265    580.265
 27.570    730.000    719.426     10.574    579.913    594.230    705.097    579.913    579.913
 27.670    790.681    755.717     34.965    579.563    596.960    738.302    579.563    579.563
 27.770    794.000    820.527    -26.527    579.216    602.036    797.677    579.216    579.216
 27.870    924.000    958.040    -34.040    578.871    613.049    923.799    578.871    578.871
 27.970   1253.000   1261.039     -8.039    578.529    637.536   1201.898    578.529    578.529
 28.070   1922.483   1860.187     62.296    578.189    686.112   1752.008    578.189    578.189
 28.170   2903.672   2828.481     75.191    577.851    764.730   2641.198    577.851    577.851
 28.270   3996.000   4006.838    -10.838    577.516    860.548   3723.312    577.516    577.516
 28.370   4821.000   4896.407    -75.407    577.183    933.243   4539.938    577.183    577.183
 28.470   5131.000   4945.587    185.413    576.852    938.418   4583.853    576.852    576.852
 28.570   4067.899   4174.475   -106.576    576.524    878.483   3872.543    576.524    576.524
 28.670   3265.821   3185.969     79.852    576.198    803.737   2958.512    576.198    576.198
 28.770   2452.684   2536.661    -83.977    575.875    760.970   2351.611    575.875    575.875
 28.870   2360.000   2407.844    -47.844    575.554    765.459   2217.935    575.554    575.554
 28.970   2629.887   2649.904    -20.017    575.235    802.504   2422.631    575.235    575.235
 29.070   3032.000   2917.279    114.721    574.919    837.056   2655.210    574.919    574.919
 29.170   2909.872   2874.550     35.322    574.605    833.998   2615.328    574.605    574.605
 29.270   2446.687   2462.999    -16.312    574.294    788.088   2249.419    574.294    574.294
 29.370   1889.982   1900.517    -10.535    573.984    724.642   1750.046    573.984    573.984
 29.470   1357.169   1407.640    -50.470    573.677    668.929   1312.516    573.677    573.677
 29.570   1037.000   1071.291    -34.291    573.373    630.913   1013.825    573.373    573.373
 29.670    956.000    878.083     77.917    573.071    609.116    842.076    573.071    573.071
 29.770    867.000    777.729     89.271    572.771    597.846    752.673    572.771    572.771
 29.870    669.137    725.550    -56.413    572.474    592.046    705.988    572.474    572.474
 29.970    716.000    695.409     20.591    572.178    588.763    678.830    572.178    572.178
 30.070    678.340    675.464      2.876    571.886    586.674    660.679    571.886    571.886
 30.170    677.000    661.026     15.974    571.595    585.278    647.345    571.595    571.595
 30.270    673.319    650.232     23.087    571.307    584.418    637.121    571.307    571.307
 30.370    659.000    642.337     16.663    571.021    584.133    629.224    571.021    571.021
 30.470    663.000    637.312     25.688    570.738    584.697    623.349    570.738    570.738
 30.570    637.161    635.921      1.239    570.457    586.753    619.617    570.457    570.457
 30.670    697.000    639.782     57.218    570.178    591.388    618.558    570.178    570.178
 30.770    687.000    650.836     36.164    569.902    599.839    620.875    569.902    569.902
 30.870    635.818    669.793    -33.975    569.627    612.599    626.785    569.627    569.627
 30.970    735.081    693.676     41.405    569.356    627.988    634.992    569.356    569.356
 31.070    764.419    713.677     50.742    569.086    640.913    641.790    569.086    569.086
 31.170    732.000    717.537     14.463    568.819    644.254    642.044    568.819    568.819
 31.270    752.730    700.628     52.102    568.554    635.334    633.800    568.554    568.554
 31.370    632.128    672.276    -40.149    568.291    619.620    620.914    568.291    568.291
 31.470    600.567    644.445    -43.878    568.031    604.115    608.339    568.031    568.031
 31.570    634.000    623.200     10.800    567.773    592.376    598.584    567.773    567.773
 31.670    658.453    609.382     49.071    567.517    584.906    591.985    567.517    567.517
 31.770    627.054    601.237     25.818    567.264    580.694    587.801    567.264    567.264
 31.870    600.000    596.543      3.457    567.013    578.452    585.100    567.013    567.013
 31.970    627.000    593.671     33.329    566.764    577.238    583.195    566.764    566.764
 32.070    618.000    591.733     26.267    566.517    576.540    581.708    566.517    566.517
 32.170    569.699    590.325    -20.627    566.273    576.132    580.464    566.273    566.273
 32.270    634.000    589.281     44.719    566.031    575.923    579.387    566.031    566.031
 32.370    552.912    588.529    -35.617    565.791    575.880    578.438    565.791    565.791
 32.470    629.629    588.040     41.589    565.553    575.993    577.599    565.553    565.553
 32.570    601.000    587.807     13.193    565.318    576.268    576.855    565.318    565.318
 32.670    561.667    587.835    -26.168    565.085    576.719    576.200    565.085    565.085
 32.770    582.000    588.150     -6.150    564.854    577.374    575.629    564.854    564.854
 32.870    639.000    588.792     50.208    564.626    578.273    575.143    564.626    564.626
 32.970    612.637    589.826     22.810    564.399    579.477    574.747    564.399    564.399
 33.070    632.569    591.349     41.220    564.175    581.071    574.451    564.175    564.175
 33.170    618.000    593.513     24.487    563.953    583.190    574.274    563.953    563.953
 33.270    611.924    596.579     15.345    563.734    586.060    574.250    563.734    563.734
 33.370    633.275    601.074     32.202    563.516    590.134    574.452    563.516    563.516
 33.470    656.208    608.160     48.048    563.301    596.412    575.045    563.301    563.301
 33.570    570.000    620.372    -50.372    563.088    607.065    576.388    563.088    563.088
 33.670    683.000    642.591     40.409    562.877    626.281    579.178    562.877    562.877
 33.770    717.000    682.472     34.528    562.668    660.618    584.506    562.668    562.668
 33.870    770.350    748.719     21.630    562.462    717.541    593.615    562.462    562.462
 33.970    862.000    845.964     16.036    562.258    801.018    607.164    562.258    562.258
 34.070    906.000    966.509    -60.509    562.056    904.458    624.056    562.056    562.056
 34.170   1102.000   1080.805     21.195    561.856   1002.536    640.067    561.856    561.856
 34.270   1192.901   1137.475     55.426    561.658   1051.224    647.861    561.658    561.658
 34.370   1142.000   1101.433     40.567    561.462   1020.445    642.424    561.462    561.462
 34.470    971.000    996.354    -25.354    561.269    930.481    627.136    561.269    561.269
 34.570    865.335    873.555     -8.220    561.078    825.312    609.325    561.078    561.078
 34.670    774.000    768.496      5.504    560.888    735.335    594.057    560.888    560.888
 34.770    659.000    693.702    -34.702    560.701    671.289    583.120    560.701    560.701
 34.870    599.962    646.958    -46.996    560.517    631.277    576.200    560.517    560.517
 34.970    628.710    620.085      8.625    560.334    608.293    572.127    560.334    560.334
 35.070    599.275    604.954     -5.679    560.153    595.367    569.741    560.153    560.153
 35.170    627.000    595.981     31.019    559.975    587.713    568.242    559.975    559.975
 35.270    618.000    590.106     27.894    559.798    582.708    567.196    559.798    559.798
 35.370    563.000    585.876    -22.876    559.624    579.106    566.393    559.624    559.624
 35.470    605.000    582.633     22.367    559.452    576.343    565.741    559.452    559.452
 35.570    539.410    580.056    -40.646    559.282    574.144    565.193    559.282    559.282
 35.670    595.000    577.965     17.035    559.114    572.354    564.725    559.114    559.114
 35.770    598.875    576.244     22.631    558.948    570.872    564.319    558.948    558.948
 35.870    548.092    574.811    -26.719    558.784    569.628    563.967    558.784    558.784
 35.970    557.000    573.610    -16.610    558.622    568.572    563.659    558.622    558.622
 36.070    541.000    572.596    -31.596    558.462    567.667    563.391    558.462    558.462
 36.170    589.000    571.741     17.259    558.305    566.884    563.161    558.305    558.305
 36.270    573.000    571.021      1.979    558.149    566.202    562.967    558.149    558.149
 36.370    556.846    570.420    -13.574    557.996    565.606    562.809    557.996    557.996
 36.470    598.000    569.928     28.072    557.844    565.083    562.689    557.844    557.844
 36.570    615.708    569.539     46.169    557.695    564.624    562.610    557.695    557.695
 36.670    534.000    569.253    -35.253    557.547    564.223    562.577    557.547    557.547
 36.770    543.862    569.073    -25.211    557.402    563.877    562.598    557.402    557.402
 36.870    570.000    569.010      0.990    557.258    563.585    562.683    557.258    557.258
 36.970    592.000    569.084     22.916    557.117    563.353    562.847    557.117    557.117
 37.070    598.103    569.332     28.771    556.977    563.195    563.114    556.977    556.977
 37.170    547.000    569.826    -22.826    556.840    563.148    563.517    556.840    556.840
 37.270    585.000    570.709     14.291    556.704    563.289    564.124    556.704    556.704
 37.370    561.000    572.252    -11.252    556.571    563.755    565.067    556.571    556.571
 37.470    565.000    574.931     -9.931    556.439    564.742    566.629    556.439    556.439
 37.570    575.000    579.508     -4.508    556.309    566.453    569.364    556.309    556.309
 37.670    609.090    587.025     22.066    556.182    568.980    574.226    556.182    556.182
 37.770    653.000    598.599     54.401    556.056    572.118    582.536    556.056    556.056
 37.870    601.000    614.832    -13.832    555.932    575.159    595.604    555.932    555.932
 37.970    605.000    634.984    -29.984    555.810    576.893    613.899    555.810    555.810
 38.070    649.000    656.582     -7.582    555.690    576.430    635.840    555.690    555.690
 38.170    693.407    675.019     18.388    555.572    574.121    656.468    555.572    555.572
 38.270    683.000    683.149     -0.149    555.456    570.999    667.606    555.456    555.456
 38.370    688.639    675.775     12.864    555.342    567.876    663.244    555.342    555.342
 38.470    670.000    655.887     14.113    555.230    565.207    645.914    555.230    555.230
 38.570    681.257    631.635     49.621    555.119    563.177    623.582    555.119    555.119
 38.670    637.000    609.634     27.366    555.010    561.758    602.891    555.010    555.010
 38.770    567.742    592.838    -25.096    554.904    560.810    586.935    554.904    554.904
 38.870    570.823    581.485    -10.662    554.799    560.181    576.105    554.799    554.799
 38.970    531.527    574.445    -42.919    554.696    559.753    569.389    554.696    554.696
 39.070    589.075    570.259     18.816    554.595    559.443    565.412    554.595    554.595
 39.170    569.000    567.736      1.264    554.495    559.204    563.028    554.495    554.495
 39.270    565.093    566.112     -1.019    554.398    559.014    561.497    554.398    554.398
 39.370    553.918    564.970    -11.053    554.302    558.855    560.418    554.302    554.302
 39.470    526.087    564.105    -38.018    554.208    558.718    559.596    554.208    554.208
 39.570    548.000    563.419    -15.419    554.116    558.600    558.935    554.116    554.116
 39.670    546.571    562.859    -16.288    554.026    558.498    558.388    554.026    554.026
 39.770    518.738    562.396    -43.659    553.938    558.410    557.924    553.938    553.938
 39.870    546.000    562.010    -16.010    553.851    558.335    557.525    553.851    553.851
 39.970    561.555    561.685     -0.130    553.766    558.273    557.178    553.766    553.766
 40.070    517.334    561.411    -44.077    553.683    558.222    556.872    553.683    553.683
 40.170    553.000    561.181     -8.181    553.601    558.183    556.600    553.601    553.601
 40.270    534.000    560.990    -26.990    553.522    558.156    556.355    553.522    553.522
 40.370    593.704    560.832     32.872    553.444    558.142    556.134    553.444    553.444
 40.470    522.000    560.706    -38.706    553.368    558.142    555.932    553.368    553.368
 40.570    547.000    560.609    -13.609    553.293    558.155    555.748    553.293    553.293
 40.670    529.000    560.541    -31.541    553.220    558.184    555.578    553.220    553.220
 40.770    537.000    560.502    -23.502    553.149    558.231    555.420    553.149    553.149
 40.870    531.000    560.492    -29.492    553.080    558.298    555.275    553.080    553.080
 40.970    512.000    560.513    -48.513    553.012    558.387    555.139    553.012    553.012
 41.070    569.613    560.568      9.045    552.946    558.502    555.013    552.946    552.946
 41.170    553.000    560.661     -7.661    552.882    558.648    554.896    552.882    552.882
 41.270    585.282    560.798     24.483    552.819    558.831    554.787    552.819    552.819
 41.370    576.000    560.986     15.014    552.758    559.059    554.686    552.758    552.758
 41.470    589.907    561.235     28.672    552.699    559.342    554.593    552.699    552.699
 41.570    580.000    561.559     18.441    552.641    559.694    554.508    552.641    552.641
 41.670    567.000    561.979      5.021    552.585    560.135    554.431    552.585    552.585
 41.770    592.621    562.526     30.095    552.530    560.695    554.363    552.530    552.530
 41.870    602.619    563.254     39.364    552.477    561.428    554.305    552.477    552.477
 41.970    539.000    564.271    -25.271    552.426    562.437    554.263    552.426    552.426
 42.070    609.939    565.793     44.146    552.376    563.930    554.242    552.376    552.376
 42.170    540.000    568.238    -28.238    552.328    566.312    554.259    552.328    552.328
 42.270    555.216    572.337    -17.121    552.282    570.285    554.340    552.282    552.282
 42.370    620.165    579.167     40.998    552.237    576.890    554.523    552.237    552.237
 42.470    568.000    589.988    -21.988    552.193    587.340    554.856    552.193    552.193
 42.570    610.000    605.747      4.253    552.151    602.548    555.372    552.151    552.151
 42.670    544.000    626.287    -82.287    552.111    622.363    556.065    552.111    552.111
 42.770    615.357    649.345    -33.987    552.072    644.605    556.853    552.072    552.072
 42.870    698.907    669.610     29.297    552.035    664.155    557.542    552.035    552.035
 42.970    707.424    679.430     27.994    551.999    673.636    557.852    551.999    551.999
 43.070    645.283    673.956    -28.674    551.964    668.374    557.606    551.964    551.964
 43.170    642.000    656.119    -14.119    551.931    651.192    556.911    551.931    551.931
 43.270    579.000    633.328    -54.328    551.900    629.233    556.037    551.900    551.900
 43.370    623.000    611.738     11.262    551.870    608.429    555.210    551.870    551.870
 43.470    567.797    594.463    -26.666    551.842    591.784    554.542    551.842    551.842
 43.570    593.441    582.211     11.230    551.815    579.979    554.060    551.815    551.815
 43.670    563.307    574.289    -10.981    551.789    572.348    553.739    551.789    551.789
 43.770    571.000    569.477      1.523    551.765    567.714    553.534    551.765    551.765
 43.870    518.000    566.618    -48.618    551.742    564.962    553.403    551.742    551.742
 43.970    556.312    564.877     -8.565    551.721    563.286    553.315    551.721    551.721
 44.070    521.518    563.749    -42.230    551.701    562.201    553.251    551.701    551.701
 44.170    557.000    562.964     -5.964    551.682    561.447    553.202    551.682    551.682
 44.270    571.000    562.390      8.610    551.665    560.893    553.164    551.665    551.665
 44.370    640.000    561.957     78.043    551.649    560.476    553.132    551.649    551.649
 44.470    572.000    561.630     10.370    551.635    560.159    553.107    551.635    551.635
 44.570    589.000    561.383     27.617    551.622    559.919    553.087    551.622    551.622
 44.670    605.735    561.203     44.532    551.610    559.742    553.072    551.610    551.610
 44.770    613.000    561.077     51.923    551.600    559.616    553.062    551.600    551.600
 44.870    524.490    560.998    -36.508    551.591    559.534    553.055    551.591    551.591
 44.970    568.936    560.958      7.978    551.583    559.489    553.052    551.583    551.583
 45.070    586.280    560.953     25.327    551.576    559.477    553.053    551.576    551.576
 45.170    556.000    560.980     -4.980    551.571    559.493    553.058    551.571    551.571
 45.270    589.959    561.036     28.923    551.567    559.537    553.067    551.567    551.567
 45.370    573.000    561.120     11.880    551.565    559.606    553.079    551.565    551.565
 45.470    580.000    561.230     18.770    551.563    559.698    553.095    551.563    551.563
 45.570    529.684    561.366    -31.682    551.563    559.814    553.115    551.563    551.563
 45.670    547.000    561.528    -14.528    551.564    559.953    553.139    551.564    551.564
 45.770    544.000    561.716    -17.716    551.567    560.115    553.167    551.567    551.567
 45.870    531.633    561.931    -30.298    551.570    560.302    553.199    551.570    551.570
 45.970    573.000    562.175     10.825    551.575    560.514    553.236    551.575    551.575
 46.070    532.022    562.450    -30.427    551.581    560.753    553.278    551.581    551.581
 46.170    524.267    562.758    -38.491    551.588    561.021    553.325    551.588    551.588
 46.270    558.000    563.103     -5.103    551.596    561.322    553.377    551.596    551.596
 46.370    590.000    563.490     26.510    551.606    561.659    553.436    551.606    551.606
 46.470    594.000    563.923     30.077    551.617    562.037    553.502    551.617    551.617
 46.570    602.786    564.410     38.376    551.628    562.462    553.575    551.628    551.628
 46.670    523.135    564.960    -41.825    551.641    562.943    553.657    551.641    551.641
 46.770    566.000    565.586      0.414    551.656    563.490    553.749    551.656    551.656
 46.870    568.000    566.305      1.695    551.671    564.120    553.853    551.671    551.671
 46.970    585.000    567.145     17.855    551.687    564.858    553.972    551.687    551.687
 47.070    516.000    568.158    -52.158    551.704    565.751    554.110    551.704    551.704
 47.170    573.000    569.439      3.561    551.723    566.883    554.275    551.723    551.723
 47.270    579.000    571.164      7.836    551.743    568.417    554.485    551.743    551.743
 47.370    588.000    573.643     14.357    551.763    570.634    554.767    551.763    551.763
 47.470    597.000    577.361     19.639    551.785    573.974    555.164    551.785    551.785
 47.570    542.943    582.958    -40.015    551.808    579.022    555.732    551.808    551.808
 47.670    657.000    591.110     65.890    551.831    586.392    556.532    551.831    551.831
 47.770    594.959    602.258     -7.299    551.856    596.487    557.603    551.856    551.856
 47.870    571.232    616.220    -44.988    551.882    609.137    558.931    551.882    551.882
 47.970    668.000    631.739     36.261    551.909    623.197    560.407    551.909    551.909
 48.070    673.000    646.084     26.916    551.937    636.176    561.793    551.937    551.937
 48.170    586.000    655.327    -69.327    551.965    644.489    562.747    551.965    551.965
 48.270    645.000    656.324    -11.324    551.995    645.269    562.996    551.995    551.995
 48.370    680.507    649.286     31.221    552.026    638.703    562.561    552.026    552.026
 48.470    602.000    637.593    -35.593    552.057    627.869    561.743    552.057    552.057
 48.570    593.000    625.163    -32.163    552.090    616.334    560.890    552.090    552.090
 48.670    603.000    614.658    -11.658    552.124    606.519    560.241    552.124    552.124
 48.770    611.167    607.306      3.861    552.158    599.537    559.912    552.158    552.158
 48.870    588.402    603.319    -14.917    552.193    595.571    559.932    552.193    552.193
 48.970    649.000    602.348     46.652    552.230    594.288    560.282    552.230    552.230
 49.070    610.126    603.878      6.247    552.267    595.202    560.937    552.267    552.267
 49.170    610.000    607.526      2.474    552.305    597.935    561.891    552.305    552.305
 49.270    623.554    613.245     10.309    552.344    602.395    563.188    552.344    552.344
 49.370    638.473    621.590     16.883    552.383    608.992    564.976    552.383    552.383
 49.470    630.511    634.294     -3.782    552.424    619.083    567.628    552.424    552.424
 49.570    659.004    655.464      3.540    552.465    635.924    571.995    552.465    552.465
 49.670    712.000    693.584     18.416    552.508    666.254    579.818    552.508    552.508
 49.770    744.000    763.756    -19.756    552.551    722.079    594.194    552.551    552.551
 49.870    859.000    888.331    -29.331    552.594    821.167    619.700    552.594    552.594
 49.970    982.000   1092.840   -110.840    552.639    983.820    661.564    552.639    552.639
 50.070   1354.000   1394.893    -40.893    552.684   1224.047    723.395    552.684    552.684
 50.170   1721.000   1787.555    -66.555    552.731   1536.344    803.773    552.731    552.731
 50.270   2247.277   2223.462     23.815    552.777   1883.068    892.997    552.777    552.777
 50.370   2522.000   2608.662    -86.662    552.825   2189.531    971.822    552.825    552.825
 50.470   2804.000   2822.075    -18.075    552.874   2359.478   1015.431    552.874    552.874
 50.570   2697.000   2779.797    -82.797    552.923   2326.237   1006.562    552.923    552.923
 50.670   2536.000   2501.411     34.589    552.972   2105.332    949.222    552.972    552.972
 50.770   2086.000   2091.765     -5.765    553.023   1780.127    864.867    553.023    553.023
 50.870   1675.000   1667.119      7.881    553.074   1443.209    777.181    553.074    553.074
 50.970   1298.000   1307.075     -9.075    553.126   1157.977    702.384    553.126    553.126
 51.070    946.000   1045.001    -99.001    553.179    951.026    647.271    553.179    553.179
 51.170    885.000    878.034      6.966    553.232    820.040    611.308    553.232    553.232
 51.270    727.308    783.796    -56.488    553.286    747.034    590.106    553.286    553.286
 51.370    726.000    735.452     -9.452    553.340    710.278    578.560    553.340    553.340
 51.470    751.384    710.591     40.793    553.395    691.387    572.638    553.395    553.395
 51.570    754.000    694.529     59.471    553.451    678.181    569.834    553.451    553.451
 51.670    666.000    680.380    -14.380    553.507    665.058    568.859    553.507    553.507
 51.770    685.000    666.824     18.176    553.564    651.286    569.125    553.564    553.564
 51.870    645.110    654.806     -9.696    553.622    638.139    570.305    553.622    553.622
 51.970    671.000    645.256     25.744    553.680    626.894    572.052    553.680    553.680
 52.070    653.000    638.332     14.668    553.739    618.221    573.855    553.739    553.739
 52.170    581.429    633.451    -52.022    553.798    612.219    575.031    553.798    553.798
 52.270    614.963    629.712    -14.749    553.858    608.623    574.947    553.858    553.858
 52.370    638.000    626.527     11.473    553.918    607.025    573.419    553.918    553.918
 52.470    604.000    623.950    -19.950    553.979    607.066    570.862    553.979    553.979
 52.570    605.000    622.472    -17.472    554.040    608.567    567.945    554.040    554.040
 52.670    611.000    622.759    -11.759    554.102    611.636    565.225    554.102    554.102
 52.770    644.519    625.647     18.871    554.164    616.785    563.027    554.164    554.164
 52.870    650.000    632.379     17.621    554.227    625.135    561.471    554.227    554.227
 52.970    683.000    644.927     38.073    554.290    638.669    560.547    554.290    554.290
 53.070    644.521    666.280    -21.759    554.354    660.443    560.189    554.354    554.354
 53.170    698.000    700.430     -2.430    554.418    694.504    560.340    554.418    554.418
 53.270    804.000    751.761     52.239    554.482    745.264    560.975    554.482    554.482
 53.370    843.000    823.674     19.326    554.547    816.131    562.084    554.547    554.547
 53.470    887.000    916.551    -29.551    554.612    907.524    563.633    554.612    554.612
 53.570   1019.710   1025.391     -5.681    554.678   1014.555    565.507    554.678    554.678
 53.670   1152.709   1137.419     15.289    554.744   1124.695    567.464    554.744    554.744
 53.770   1231.000   1230.789      0.211    554.811   1216.504    569.098    554.811    554.811
 53.870   1202.000   1278.857    -76.857    554.878   1263.858    569.888    554.878    554.878
 53.970   1256.975   1264.628     -7.653    554.945   1250.039    569.555    554.945    554.945
 54.070   1189.000   1193.926     -4.926    555.012   1180.722    568.245    555.012    555.012
 54.170   1035.152   1090.143    -54.991    555.080   1078.906    566.348    555.080    555.080
 54.270    943.000    978.548    -35.548    555.148    969.409    564.316    555.148    555.148
 54.370    813.000    876.851    -63.851    555.217    869.621    562.470    555.217    555.217
 54.470    761.000    794.077    -33.077    555.286    788.408    560.973    555.286    555.286
 54.570    689.587    732.518    -42.931    555.355    728.020    559.866    555.355    555.355
 54.670    660.483    690.134    -29.651    555.424    686.456    559.111    555.424    555.424
 54.770    676.000    662.811     13.189    555.494    659.678    558.633    555.494    555.494
 54.870    629.000    646.127    -17.127    555.564    643.343    558.351    555.564    555.564
 54.970    640.000    636.391      3.609    555.634    633.830    558.197    555.634    555.634
 55.070    640.000    630.995      9.005    555.704    628.578    558.124    555.704    555.704
 55.170    606.000    628.322    -22.322    555.775    625.998    558.100    555.775    555.775
 55.270    660.000    627.474     32.526    555.845    625.211    558.110    555.845    555.845
 55.370    647.365    628.004     19.361    555.916    625.778    558.143    555.916    555.916
 55.470    682.409    629.731     52.679    555.988    627.522    558.197    555.988    555.988
 55.570    623.000    632.632     -9.632    556.059    630.424    558.268    556.059    556.059
 55.670    664.786    636.808     27.978    556.130    634.581    558.357    556.130    556.130
 55.770    591.000    642.507    -51.507    556.202    640.243    558.466    556.202    556.202
 55.870    659.145    650.232      8.913    556.274    647.906    558.599    556.274    556.274
 55.970    656.000    660.960     -4.960    556.346    658.540    558.764    556.346    556.346
 56.070    668.220    676.553     -8.333    556.418    673.989    558.978    556.418    556.418
 56.170    744.137    700.367     43.770    556.490    697.578    559.272    556.490    556.490
 56.270    707.000    738.003    -31.003    556.562    734.857    559.696    556.562    556.562
 56.370    826.000    797.893     28.107    556.635    794.180    560.327    556.635    556.635
 56.470    855.000    891.160    -36.160    556.707    886.568    561.267    556.707    556.707
 56.570   1032.000   1030.065      1.935    556.780   1024.172    562.627    556.780    556.780
 56.670   1221.399   1224.577     -3.178    556.852   1216.873    564.497    556.852    556.852
 56.770   1410.000   1477.296    -67.296    556.925   1467.251    566.903    556.925    556.925
 56.870   1749.000   1777.703    -28.703    556.998   1764.888    569.750    556.998    556.998
 56.970   2212.000   2096.982    115.018    557.070   2081.235    572.777    557.070    557.070
 57.070   2498.000   2385.251    112.749    557.143   2366.867    575.533    557.143    557.143
 57.170   2630.000   2577.152     52.848    557.216   2557.016    577.426    557.216    557.216
 57.270   2520.966   2615.720    -94.755    557.288   2595.214    577.941    557.288    557.288
 57.370   2512.000   2487.802     24.198    557.361   2468.399    576.962    557.361    557.361
 57.470   2208.000   2234.710    -26.710    557.434   2217.490    574.868    557.434    557.434
 57.570   1936.000   1923.118     12.882    557.506   1908.556    572.270    557.506    557.506
 57.670   1569.000   1611.759    -42.759    557.579   1599.796    569.714    557.579    557.579
 57.770   1242.000   1338.690    -96.690    557.651   1328.908    567.568    557.651    557.651
 57.870   1061.189   1121.983    -60.794    557.724   1113.761    566.044    557.724    557.724
 57.970    986.000    964.415     21.585    557.796    957.015    565.262    557.796    557.796
 58.070    836.000    859.268    -23.268    557.869    851.840    565.337    557.869    557.869
 58.170    819.000    796.053     22.947    557.941    787.544    566.471    557.941    557.941
 58.270    803.000    764.912     38.088    558.013    753.924    569.007    558.013    558.013
 58.370    747.000    758.975    -11.975    558.085    743.631    573.422    558.085    558.085
 58.470    791.000    774.715     16.285    558.156    752.647    580.206    558.156    558.156
 58.570    828.000    810.834     17.166    558.228    779.420    589.613    558.228    558.228
 58.670    852.657    866.468    -13.812    558.300    823.358    601.372    558.300    558.300
 58.770    938.000    939.284     -1.284    558.371    883.179    614.432    558.371    558.371
 58.870    999.251   1023.918    -24.668    558.442    955.458    626.859    558.442    558.442
 58.970   1112.000   1111.316      0.684    558.513   1033.772    636.022    558.513    558.513
 59.070   1160.364   1190.305    -29.940    558.584   1109.497    639.373    558.584    558.584
 59.170   1261.000   1251.914      9.086    558.655   1174.709    635.861    558.655    558.655
 59.270   1322.122   1291.928     30.194    558.725   1223.957    626.719    558.725    558.725
 59.370   1326.394   1308.272     18.122    558.795   1252.545    614.563    558.795    558.795
 59.470   1313.000   1299.524     13.476    558.865   1256.462    601.979    558.865    558.865
 59.570   1321.349   1269.119     52.230    558.935   1237.293    590.812    558.935    558.935
 59.670   1240.000   1228.313     11.687    559.004   1205.337    582.014    559.004    559.004
 59.770   1172.323   1191.727    -19.404    559.073   1175.045    575.759    559.073    559.073
 59.870   1199.386   1171.092     28.294    559.142   1158.511    571.686    559.142    559.142
 59.970   1172.000   1173.236     -1.236    559.211   1163.165    569.199    559.211    559.211
 60.070   1233.000   1201.542     31.458    559.279   1192.971    567.721    559.279    559.279
 60.170   1234.435   1256.905    -22.470    559.347   1249.247    566.828    559.347    559.347
 60.270   1269.090   1335.591    -66.501    559.414   1328.514    566.274    559.414    559.414
 60.370   1502.000   1426.052     75.948    559.482   1419.359    565.927    559.482    559.482
 60.470   1519.000   1507.985     11.015    559.549   1501.555    565.719    559.549    559.549
 60.570   1605.520   1555.722     49.799    559.615   1549.477    565.612    559.615    559.615
 60.670   1572.262   1547.784     24.478    559.682   1541.670    565.582    559.682    559.682
 60.770   1550.288   1479.033     71.256    559.748   1472.994    565.618    559.748    559.748
 60.870   1410.000   1363.833     46.167    559.813   1357.797    565.726    559.813    559.813
 60.970   1220.368   1226.380     -6.012    559.878   1220.250    565.923    559.878    559.878
 61.070   1116.000   1089.306     26.694    559.943   1082.955    566.236    559.943    559.943
 61.170    934.000    968.545    -34.545    560.007    961.803    566.710    560.007    560.007
 61.270    877.000    872.829      4.171    560.071    865.450    567.422    560.071    560.071
 61.370    836.000    805.056     30.944    560.135    796.659    568.508    560.135    560.135
 61.470    743.699    764.489    -20.789    560.198    754.465    570.197    560.198    560.198
 61.570    801.481    749.173     52.308    560.260    736.559    572.844    560.260    560.260
 61.670    745.000    757.878    -12.878    560.323    741.211    576.948    560.323    560.323
 61.770    789.000    790.987     -1.987    560.384    768.194    583.121    560.384    560.384
 61.870    889.000    850.136     38.864    560.445    818.520    591.984    560.445    560.445
 61.970    988.000    936.724     51.276    560.506    893.139    603.985    560.506    560.506
 62.070   1094.000   1049.743     44.257    560.566    991.016    619.155    560.566    560.566
 62.170   1171.000   1183.547    -12.547    560.626   1107.142    636.860    560.626    560.626
 62.270   1356.407   1326.079     30.328    560.685   1230.961    655.603    560.685    560.685
 62.370   1492.097   1457.992     34.105    560.744   1345.588    672.932    560.744    560.744
 62.470   1617.641   1553.991     63.650    560.802   1428.957    685.621    560.802    560.802
 62.570   1558.000   1589.690    -31.690    560.860   1459.805    690.556    560.860    560.860
 62.670   1570.000   1554.263     15.737    560.917   1428.678    686.354    560.917    560.917
 62.770   1385.647   1457.895    -72.248    560.973   1344.440    674.328    560.973    560.973
 62.870   1261.000   1324.645    -63.645    561.029   1228.051    657.564    561.029    561.029
 62.970   1141.000   1179.779    -38.779    561.084   1101.529    639.306    561.084    561.084
 63.070   1035.000   1042.672     -7.672    561.139    981.761    622.041    561.139    561.139
 63.170    885.000    925.264    -40.264    561.193    879.152    607.306    561.193    561.193
 63.270    811.000    832.737    -21.737    561.247    798.218    595.769    561.247    561.247
 63.370    732.246    765.047    -32.801    561.300    738.917    587.432    561.300    561.300
 63.470    773.660    718.865     54.795    561.352    698.344    581.873    561.352    561.352
 63.570    733.000    689.517     43.483    561.404    672.416    578.500    561.404    561.404
 63.670    704.358    672.481     31.877    561.455    657.182    576.747    561.455    561.455
 63.770    628.638    664.358    -35.720    561.505    649.653    576.198    561.505    561.505
 63.870    659.000    663.130     -4.130    561.555    648.028    576.643    561.555    561.555
 63.970    700.000    668.229     31.771    561.604    651.715    578.098    561.604    561.604
 64.070    739.000    680.351     58.649    561.652    661.151    580.826    561.652    561.652
 64.170    701.000    701.178     -0.178    561.700    677.509    585.334    561.700    561.700
 64.270    800.000    732.974     67.026    561.747    702.317    592.356    561.747    561.747
 64.370    762.293    778.015    -15.722    561.793    736.962    602.780    561.793    561.793
 64.470    919.000    837.823     81.177    561.838    782.082    617.494    561.838    561.838
 64.570    979.000    912.256     66.744    561.883    836.899    637.132    561.883    561.883
 64.670   1057.845    998.540     59.304    561.927    898.584    661.751    561.927    561.927
 64.770   1092.330   1090.430      1.900    561.971    961.743    690.503    561.971    561.971
 64.870   1189.006   1177.898     11.109    562.013   1018.389    721.354    562.013    562.013
 64.970   1253.815   1248.258      5.557    562.055   1059.193    750.950    562.055    562.055
 65.070   1332.811   1289.393     43.418    562.096   1076.538    774.792    562.096    562.096
 65.170   1362.000   1293.939     68.061    562.136   1067.819    788.120    562.136    562.136
 65.270   1286.000   1261.982     24.018    562.176   1036.356    787.695    562.176    562.176
 65.370   1254.000   1200.946     53.054    562.214    989.529    773.557    562.214    562.214
 65.470   1159.000   1122.737     36.263    562.252    935.900    749.045    562.252    562.252
 65.570   1034.000   1039.540     -5.540    562.289    882.790    719.019    562.289    562.289
 65.670    974.000    960.613     13.387    562.326    834.941    687.997    562.326    562.326
 65.770    887.000    891.205     -4.205    562.361    794.307    659.272    562.361    562.361
 65.870    853.948    833.090     20.858    562.395    760.712    634.793    562.395    562.395
 65.970    837.687    785.905     51.781    562.429    733.028    615.329    562.429    562.429
 66.070    713.000    748.477    -35.477    562.462    710.198    600.762    562.462    562.462
 66.170    727.000    719.474      7.526    562.494    691.571    590.414    562.494    562.494
 66.270    729.221    697.559     31.662    562.525    676.730    583.367    562.525    562.525
 66.370    612.000    681.452    -69.452    562.555    665.313    578.703    562.555    562.555
 66.470    712.493    670.040     42.453    562.585    656.981    575.649    562.585    562.585
 66.570    611.799    662.450    -50.651    562.613    651.436    573.629    562.613    562.613
 66.670    635.000    658.050    -23.050    562.641    648.439    572.252    562.641    562.641
 66.770    601.000    656.426    -55.426    562.667    647.819    571.273    562.667    562.667
 66.870    615.000    657.381    -42.381    562.693    649.522    570.551    562.693    562.693
 66.970    658.000    661.000     -3.000    562.718    653.708    570.009    562.718    562.718
 67.070    642.000    667.778    -25.778    562.742    660.909    569.609    562.742    562.742
 67.170    664.000    678.818    -14.818    562.765    672.239    569.342    562.765    562.765
 67.270    679.000    696.093    -17.093    562.787    689.656    569.220    562.787    562.787
 67.370    679.000    722.707    -43.707    562.808    716.231    569.278    562.808    562.808
 67.470    765.000    763.090      1.910    562.828    756.339    569.569    562.828    562.828
 67.570    816.000    822.944     -6.944    562.847    815.609    570.167    562.847    562.847
 67.670    890.000    908.772    -18.772    562.865    900.459    571.158    562.865    562.865
 67.770   1085.334   1026.834     58.499    562.882   1017.065    572.627    562.882    562.882
 67.870   1138.961   1181.522    -42.562    562.898   1169.764    574.632    562.898    562.898
 67.970   1364.884   1373.344     -8.460    562.913   1359.062    577.176    562.913    562.913
 68.070   1598.000   1596.860      1.140    562.927   1579.602    580.181    562.927    562.927
 68.170   1843.000   1838.933      4.067    562.940   1818.435    583.461    562.940    562.940
 68.270   2086.000   2077.579      8.421    562.953   2053.890    586.705    562.953    562.953
 68.370   2319.000   2282.221     36.779    562.964   2255.821    589.482    562.964    562.964
 68.470   2316.703   2417.713   -101.010    562.974   2389.569    591.298    562.974    562.974
 68.570   2415.000   2454.946    -39.946    562.983   2426.425    591.742    562.983    562.983
 68.670   2415.000   2384.819     30.181    562.990   2357.402    590.685    562.990    562.990
 68.770   2260.000   2223.712     36.288    562.997   2198.643    588.357    562.997    562.997
 68.870   2088.000   2004.307     83.693    563.003   1982.374    585.215    563.003    563.003
 68.970   1760.000   1761.347     -1.347    563.008   1742.859    581.747    563.008    563.008
 69.070   1583.000   1522.976     60.024    563.011   1507.852    578.349    563.011    563.011
 69.170   1257.000   1308.313    -51.313    563.014   1296.212    575.287    563.014    563.014
 69.270   1151.000   1127.886     23.114    563.015   1118.324    572.710    563.015    563.015
 69.370    951.000    985.024    -34.024    563.016    977.474    570.664    563.016    563.016
 69.470    915.000    877.738     37.262    563.015    871.702    569.121    563.015    563.015
 69.570    843.000    800.807     42.193    563.013    795.862    568.008    563.013    563.013
 69.670    768.000    747.704     20.296    563.010    743.516    567.231    563.010    563.010
 69.770    746.000    712.048     33.952    563.006    708.374    566.702    563.006    563.006
 69.870    704.000    688.450     15.550    563.000    685.124    566.342    563.000    563.000
 69.970    693.645    672.837     20.808    562.994    669.743    566.098    562.994    562.994
 70.070    690.000    662.377     27.623    562.986    659.440    565.931    562.986    562.986
 70.170    645.645    655.245     -9.600    562.978    652.415    565.813    562.978    562.978
 70.270    595.863    650.334    -54.471    562.968    647.577    565.728    562.968    562.968
 70.370    645.000    647.014     -2.014    562.957    644.304    565.668    562.957    562.957
 70.470    663.000    644.947     18.053    562.945    642.263    565.629    562.945    562.945
 70.570    672.000    643.986     28.014    562.931    641.307    565.609    562.931    562.931
 70.670    655.000    644.118     10.882    562.917    641.424    565.608    562.917    562.917
 70.770    644.000    645.461     -1.461    562.901    642.729    565.628    562.901    562.901
 70.870    651.444    648.305      3.139    562.884    645.505    565.677    562.884    562.884
 70.970    673.000    653.184     19.816    562.866    650.276    565.765    562.866    562.866
 71.070    670.000    660.993      9.007    562.846    657.918    565.909    562.846    562.846
 71.170    707.715    673.126     34.589    562.826    669.798    566.136    562.826    562.826
 71.270    679.873    691.614    -11.741    562.804    687.906    566.487    562.804    562.804
 71.370    709.804    719.208     -9.404    562.781    714.939    567.015    562.781    562.781
 71.470    747.000    759.324    -12.324    562.757    754.246    567.787    562.757    562.757
 71.570    864.319    815.785     48.534    562.731    809.573    568.877    562.731    562.731
 71.670    898.000    892.277      5.723    562.704    884.535    570.357    562.704    562.704
 71.770    982.000    991.529     -9.529    562.676    981.807    572.280    562.676    562.676
 71.870   1049.660   1114.304    -64.645    562.647   1102.139    574.664    562.647    562.647
 71.970   1324.339   1258.336     66.003    562.617   1243.308    577.463    562.617    562.617
 72.070   1390.000   1417.387    -27.387    562.585   1399.200    580.559    562.585    562.585
 72.170   1643.819   1580.547     63.272    562.552   1559.119    583.742    562.552    562.552
 72.270   1656.000   1731.995    -75.995    562.518   1707.555    586.706    562.518    562.518
 72.370   1904.000   1852.003     51.997    562.482   1825.163    589.070    562.482    562.482
 72.470   1952.905   1920.600     32.306    562.445   1892.362    590.449    562.445    562.445
 72.570   1941.000   1924.262     16.738    562.407   1895.885    590.583    562.407    562.407
 72.670   1879.972   1862.132     17.840    562.368   1834.884    589.455    562.368    562.368
 72.770   1790.000   1746.487     43.513    562.327   1721.388    587.304    562.327    562.327
 72.870   1668.590   1596.952     71.638    562.285   1574.642    584.508    562.285    562.285
 72.970   1476.000   1433.556     42.444    562.242   1414.288    581.451    562.242    562.242
 73.070   1242.000   1272.649    -30.649    562.197   1256.366    578.442    562.197    562.197
 73.170   1119.000   1125.676     -6.676    562.151   1112.112    575.691    562.151    562.151
 73.270    978.000    999.344    -21.344    562.104    988.117    573.316    562.104    562.104
 73.370    872.000    896.300    -24.300    562.055    886.988    571.358    562.055    562.055
 73.470    802.000    816.069    -14.069    562.005    808.260    569.808    562.005    562.005
 73.570    792.539    756.114     36.426    561.954    749.437    568.626    561.954    561.954
 73.670    695.000    712.857    -17.857    561.901    706.992    567.761    561.901    561.901
 73.770    693.000    682.518     10.482    561.847    677.197    567.165    561.847    561.847
 73.870    694.000    661.682     32.318    561.792    656.676    566.795    561.792    561.792
 73.970    660.000    647.590     12.410    561.736    642.700    566.623    561.736    561.736
 74.070    678.000    638.208     39.792    561.678    633.248    566.637    561.678    561.678
 74.170    666.000    632.149     33.851    561.618    626.935    566.833    561.618    561.618
 74.270    628.000    628.524     -0.524    561.558    622.868    567.218    561.558    561.558
 74.370    658.000    626.784     31.216    561.495    620.491    567.796    561.495    561.495
 74.470    658.000    626.567     31.433    561.432    619.447    568.564    561.432    561.432
 74.570    631.000    627.592      3.408    561.367    619.470    569.506    561.367    561.367
 74.670    622.175    629.569     -7.394    561.301    620.308    570.585    561.301    561.301
 74.770    670.749    632.149     38.600    561.234    621.673    571.739    561.234    561.234
 74.870    651.000    634.891     16.109    561.165    623.213    572.877    561.165    561.165
 74.970    725.000    637.260     87.740    561.094    624.509    573.885    561.094    561.094
 75.070    678.000    638.686     39.314    561.023    625.114    574.638    561.023    561.023
 75.170    656.000    638.719     17.281    560.949    624.671    575.041    560.949    560.949
 75.270    720.000    637.215     82.785    560.875    623.062    575.072    560.875    560.875
 75.370    680.000    634.441     45.559    560.799    620.474    574.807    560.799    560.799
 75.470    683.703    630.982     52.721    560.722    617.335    574.404    560.722    560.722
 75.570    659.000    627.570     31.430    560.643    614.178    574.064    560.643    560.643
 75.670    663.000    624.964     38.036    560.563    611.546    574.003    560.563    560.563
 75.770    679.000    623.914     55.086    560.482    609.958    574.452    560.482    560.482
 75.870    623.000    625.164     -2.164    560.399    609.918    575.651    560.399    560.399
 75.970    626.000    629.449     -3.449    560.314    611.909    577.854    560.314    560.314
 76.070    604.717    637.479    -32.762    560.229    616.383    581.315    560.229    560.229
 76.170    592.000    649.872    -57.872    560.141    623.728    586.266    560.141    560.141
 76.270    667.000    667.061     -0.061    560.053    634.209    592.876    560.053    560.053
 76.370    733.711    689.171     44.540    559.963    647.891    601.204    559.963    559.963
 76.470    691.476    715.872    -24.396    559.871    664.549    611.144    559.871    559.871
 76.570    799.000    746.248     52.752    559.779    683.587    622.377    559.779    559.779
 76.670    790.000    778.682     11.318    559.684    703.968    634.326    559.684    559.684
 76.770    788.000    810.789    -22.789    559.588    724.165    646.131    559.588    559.588
 76.870    845.000    839.432      5.568    559.491    742.175    656.660    559.491    559.491
 76.970    880.000    861.011     18.989    559.393    755.708    664.606    559.393    559.393
 77.070    837.298    872.163    -34.865    559.293    762.617    668.750    559.293    559.293
 77.170    841.504    870.861    -29.357    559.191    761.612    668.358    559.191    559.191
 77.270    881.000    857.263     23.737    559.088    752.790    663.489    559.088    559.088
 77.370    801.000    833.632    -32.632    558.984    737.590    654.965    558.984    558.984
 77.470    798.000    803.397     -5.397    558.878    718.191    644.033    558.878    558.878
 77.570    699.000    770.091    -71.091    558.771    696.842    631.979    558.771    558.771
 77.670    708.098    736.706    -28.608    558.662    675.445    619.892    558.662    558.662
 77.770    705.214    705.460     -0.246    558.552    655.411    608.577    558.552    558.552
 77.870    634.000    677.786    -43.786    558.441    637.651    598.558    558.441    558.441
 77.970    644.000    654.420    -10.420    558.327    622.633    590.102    558.327    558.327
 78.070    639.000    635.515      3.485    558.213    610.454    583.265    558.213    558.213
 78.170    613.000    620.798     -7.798    558.097    600.939    577.949    558.097    558.097
 78.270    619.000    609.727      9.273    557.980    593.744    573.957    557.980    557.980
 78.370    561.000    601.640    -40.640    557.861    588.446    571.050    557.861    557.861
 78.470    614.000    595.869     18.131    557.740    584.619    568.986    557.740    557.740
 78.570    659.000    591.818     67.182    557.619    581.884    567.549    557.619    557.619
 78.670    577.000    589.003    -12.003    557.496    579.931    566.564    557.496    557.496
 78.770    570.000    587.055    -17.055    557.371    578.526    565.898    557.371    557.371
 78.870    558.000    585.715    -27.715    557.245    577.501    565.456    557.245    557.245
 78.970    564.000    584.810    -20.810    557.117    576.747    565.178    557.117    557.117
 79.070    572.000    584.235    -12.235    556.988    576.194    565.027    556.988    556.988
 79.170    571.000    583.932    -12.932    556.858    575.805    564.983    556.858    556.858
 79.270    606.950    583.881     23.069    556.726    575.564    565.040    556.726    556.726
 79.370    548.104    584.089    -35.984    556.592    575.472    565.206    556.592    556.592
 79.470    570.000    584.587    -14.587    556.457    575.543    565.499    556.457    556.457
 79.570    609.974    585.433     24.541    556.321    575.799    565.952    556.321    556.321
 79.670    547.719    586.718    -38.998    556.183    576.275    566.623    556.183    556.183
 79.770    574.000    588.572    -14.572    556.044    577.015    567.597    556.044    556.044
 79.870    573.000    591.189    -18.189    555.903    578.077    569.010    555.903    555.903
 79.970    645.932    594.840     51.092    555.761    579.535    571.059    555.761    555.761
 80.070    615.000    599.902     15.098    555.618    581.484    574.028    555.618    555.618
 80.170    637.814    606.883     30.931    555.473    584.047    578.299    555.473    555.473
 80.270    631.413    616.431     14.983    555.326    587.380    584.364    555.326    555.326
 80.370    595.000    629.325    -34.325    555.178    591.675    592.813    555.178    555.178
 80.470    658.817    646.435     12.381    555.029    597.153    604.291    555.029    555.029
 80.570    653.854    668.639    -14.785    554.878    604.059    619.435    554.878    554.878
 80.670    719.628    696.716     22.912    554.725    612.650    638.765    554.725    554.725
 80.770    681.559    731.199    -49.639    554.572    623.183    662.557    554.572    554.572
 80.870    746.000    772.204    -26.204    554.417    635.875    690.712    554.417    554.417
 80.970    851.817    819.225     32.592    554.260    650.839    722.611    554.260    554.260
 81.070    856.000    870.942    -14.942    554.102    667.995    757.014    554.102    554.102
 81.170    954.501    925.100     29.400    553.942    686.995    792.016    553.942    553.942
 81.270    931.821    978.522    -46.701    553.781    707.183    825.095    553.781    553.781
 81.370   1011.000   1027.350    -16.350    553.619    727.617    853.336    553.619    553.619
 81.470   1043.286   1067.609    -24.324    553.455    747.175    873.886    553.455    553.455
 81.570   1166.000   1095.987     70.013    553.290    764.725    884.564    553.290    553.290
 81.670   1170.027   1110.471     59.555    553.123    779.281    884.341    553.123    553.123
 81.770   1139.000   1110.555     28.445    552.955    790.100    873.453    552.955    552.955
 81.870   1075.000   1097.090    -22.090    552.785    796.727    853.205    552.785    552.785
 81.970   1110.000   1072.040     37.960    552.614    799.022    825.700    552.614    552.614
 82.070   1086.000   1038.107     47.893    552.442    797.091    793.533    552.442    552.442
 82.170   1008.154    998.341      9.813    552.268    791.264    759.425    552.268    552.268
 82.270    999.844    955.516     44.328    552.093    781.897    725.794    552.093    552.093
 82.370    960.000    911.943     48.057    551.916    769.443    694.497    551.916    551.916
 82.470    847.000    869.508    -22.508    551.738    754.580    666.746    551.738    551.738
 82.570    803.368    829.648    -26.280    551.559    738.145    643.138    551.559    551.559
 82.670    781.000    793.278    -12.278    551.378    720.966    623.760    551.378    551.378
 82.770    756.000    760.767     -4.767    551.195    703.701    608.326    551.195    551.195
 82.870    778.000    732.070     45.930    551.012    686.816    596.323    551.012    551.012
 82.970    691.000    706.939    -15.939    550.827    670.667    587.150    550.827    550.827
 83.070    687.000    685.132      1.868    550.640    655.597    580.221    550.640    550.640
 83.170    689.602    666.492     23.110    550.452    641.955    575.027    550.452    550.452
 83.270    619.000    650.932    -31.932    550.263    630.063    571.163    550.263    550.263
 83.370    681.491    638.397     43.095    550.072    620.170    568.321    550.072    550.072
 83.470    638.000    628.823      9.177    549.880    612.434    566.285    549.880    549.880
 83.570    569.000    622.123    -53.123    549.687    606.914    564.903    549.687    549.687
 83.670    631.440    618.160     13.280    549.492    603.579    564.071    549.492    549.492
 83.770    559.000    616.729    -57.729    549.296    602.304    563.712    549.296    549.296
 83.870    585.048    617.541    -32.493    549.098    602.868    563.753    549.098    549.098
 83.970    610.000    620.204    -10.204    548.900    604.959    564.119    548.900    548.900
 84.070    600.000    624.222    -24.222    548.699    608.170    564.718    548.699    548.699
 84.170    611.000    628.997    -17.997    548.498    612.014    565.441    548.498    548.498
 84.270    604.000    633.843    -29.843    548.295    615.930    566.163    548.295    548.295
 84.370    648.239    638.016     10.222    548.091    619.315    566.743    548.091    548.091
 84.470    595.000    640.792    -45.792    547.885    621.581    567.045    547.885    547.885
 84.570    619.000    641.582    -22.582    547.678    622.252    566.958    547.678    547.678
 84.670    591.000    640.078    -49.078    547.470    621.075    566.424    547.470    547.470
 84.770    592.000    636.329    -44.329    547.260    618.088    565.457    547.260    547.260
 84.870    598.158    630.712    -32.554    547.049    613.586    564.135    547.049    547.049
 84.970    632.000    623.790      8.210    546.837    608.017    562.575    546.837    546.837
 85.070    649.136    616.176     32.960    546.624    601.862    560.907    546.624    546.624
 85.170    587.000    608.435    -21.435    546.409    595.565    559.253    546.409    546.409
 85.270    650.276    601.041     49.235    546.193    589.489    557.724    546.193    546.193
 85.370    578.154    594.357    -16.203    545.975    583.905    556.411    545.975    545.975
 85.470    580.000    588.637     -8.637    545.757    578.988    555.391    545.757    545.757
 85.570    559.403    584.033    -24.631    545.537    574.831    554.727    545.537    545.537
 85.670    570.000    580.614    -10.614    545.316    571.450    554.469    545.316    545.316
 85.770    569.000    578.384     -9.384    545.093    568.811    554.656    545.093    545.093
 85.870    564.822    577.301    -12.479    544.869    566.844    555.315    544.869    544.869
 85.970    556.420    577.297    -20.877    544.644    565.468    556.461    544.644    544.644
 86.070    530.338    578.287    -47.949    544.418    564.603    558.089    544.418    544.418
 86.170    611.000    580.181     30.819    544.190    564.186    560.170    544.190    544.190
 86.270    602.127    582.880     19.247    543.962    564.181    562.643    543.962    543.962
 86.370    539.680    586.282    -46.602    543.732    564.581    565.412    543.732    543.732
 86.470    568.892    590.277    -21.385    543.501    565.413    568.340    543.501    543.501
 86.570    570.000    594.746    -24.746    543.268    566.738    571.248    543.268    543.268
 86.670    597.000    599.562     -2.562    543.035    568.648    573.916    543.035    543.035
 86.770    639.000    604.595     34.405    542.800    571.259    576.099    542.800    542.800
 86.870    612.000    609.734      2.266    542.564    574.702    577.554    542.564    542.564
 86.970    591.485    614.917    -23.432    542.327    579.111    578.085    542.327    542.327
 87.070    652.488    620.171     32.317    542.088    584.603    577.602    542.088    542.088
 87.170    627.000    625.614      1.386    541.849    591.259    576.143    541.849    541.849
 87.270    603.715    631.413    -27.698    541.608    599.094    573.858    541.608    541.608
 87.370    602.186    637.712    -35.526    541.366    608.036    570.963    541.366    541.366
 87.470    682.000    644.556     37.444    541.123    617.899    567.690    541.123    541.123
 87.570    710.000    651.842     58.158    540.879    628.370    564.251    540.879    540.879
 87.670    668.000    659.292      8.708    540.634    638.990    560.825    540.634    540.634
 87.770    648.000    666.450    -18.450    540.387    649.163    557.555    540.387    540.387
 87.870    675.000    672.704      2.296    540.140    658.175    554.543    540.140    540.140
 87.970    708.000    677.358     30.642    539.891    665.266    551.853    539.891    539.891
 88.070    662.000    679.767    -17.767    539.642    669.762    549.516    539.642    539.642
 88.170    683.000    679.511      3.489    539.391    671.246    547.531    539.391    539.391
 88.270    662.000    676.533    -14.533    539.139    669.679    545.875    539.139    539.139
 88.370    694.000    671.151     22.849    538.886    665.415    544.515    538.886    538.886
 88.470    653.497    663.963    -10.466    538.632    659.092    543.410    538.632    538.632
 88.570    650.000    655.703     -5.703    538.377    651.484    542.517    538.377    538.377
 88.670    691.000    647.124     43.876    538.121    643.381    541.800    538.121    538.121
 88.770    643.919    638.934      4.985    537.864    635.523    541.226    537.864    537.864
 88.870    644.000    631.746     12.254    537.606    628.547    540.768    537.606    537.606
 88.970    581.234    626.048    -44.814    537.346    622.964    540.407    537.346    537.346
 89.070    620.036    622.172     -2.136    537.086    619.122    540.125    537.086    537.086
 89.170    621.000    620.276      0.724    536.825    617.192    539.908    536.825    536.825
 89.270    632.000    620.344     11.656    536.563    617.172    539.744    536.563    536.563
 89.370    616.000    622.192     -6.192    536.300    618.889    539.621    536.300    536.300
 89.470    606.000    625.484    -19.484    536.036    622.021    539.525    536.036    536.036
 89.570    612.000    629.746    -17.746    535.770    626.110    539.442    535.770    535.770
 89.670    655.000    634.399     20.601    535.504    630.592    539.355    535.504    535.504
 89.770    610.000    638.783    -28.783    535.237    634.827    539.245    535.237    535.237
 89.870    643.000    642.217      0.783    534.970    638.151    539.093    534.970    534.970
 89.970    629.000    644.082    -15.082    534.701    639.963    538.882    534.701    534.701
 90.070    637.000    643.931     -6.931    534.431    639.826    538.601    534.431    534.431
 90.170    638.000    641.590     -3.590    534.160    637.572    538.245    534.160    534.160
 90.270    676.126    637.185     38.942    533.889    633.319    537.819    533.889    533.889
 90.370    668.436    631.083     37.353    533.617    627.423    537.338    533.617    533.617
 90.470    658.570    623.783     34.788    533.343    620.366    536.817    533.343    533.343
 90.570    643.059    615.810     27.249    533.069    612.656    536.274    533.069    533.069
 90.670    595.000    607.646    -12.646    532.794    604.761    535.724    532.794    532.794
 90.770    585.805    599.694    -13.889    532.519    597.070    535.181    532.519    532.519
 90.870    605.000    592.269     12.731    532.242    589.888    534.654    532.242    532.242
 90.970    577.000    585.590     -8.590    531.965    583.429    534.152    531.965    531.965
 91.070    531.768    579.794    -48.026    531.687    577.823    533.678    531.687    531.687
 91.170    604.000    574.937     29.063    531.408    573.127    533.233    531.408    531.408
 91.270    588.983    571.016     17.967    531.128    569.336    532.819    531.128    531.128
 91.370    611.237    567.983     43.254    530.848    566.405    532.433    530.848    530.848
 91.470    603.103    565.763     37.340    530.567    564.261    532.074    530.567    530.567
 91.570    580.938    564.277     16.661    530.285    562.827    531.737    530.285    530.285
 91.670    584.574    563.449     21.125    530.002    562.030    531.422    530.002    530.002
 91.770    612.790    563.227     49.563    529.719    561.819    531.126    529.719    529.719
 91.870    577.000    563.585     13.415    529.435    562.169    530.848    529.435    529.435
 91.970    577.000    564.534     12.466    529.150    563.090    530.590    529.150    529.150
 92.070    567.822    566.120      1.702    528.865    564.628    530.351    528.865    528.865
 92.170    530.000    568.427    -38.427    528.579    566.863    530.136    528.579    528.579
 92.270    574.539    571.573      2.966    528.292    569.909    529.946    528.292    528.292
 92.370    585.000    575.701      9.299    528.005    573.906    529.787    528.005    528.005
 92.470    577.000    580.976     -3.976    527.717    579.014    529.662    527.717    527.717
 92.570    612.388    587.565     24.823    527.429    585.396    529.577    527.429    527.429
 92.670    548.140    595.628    -47.488    527.140    593.210    529.533    527.140    527.140
 92.770    577.291    605.301    -28.010    526.850    602.587    529.534    526.850    526.850
 92.870    625.000    616.674      8.326    526.560    613.617    529.580    526.560    526.560
 92.970    648.000    629.778     18.222    526.269    626.336    529.668    526.269    526.269
 93.070    631.000    644.569    -13.569    525.978    640.704    529.794    525.978    525.978
 93.170    639.656    660.917    -21.261    525.686    656.596    529.950    525.686    525.686
 93.270    682.000    678.590      3.410    525.394    673.791    530.128    525.394    525.394
 93.370    694.000    697.252     -3.252    525.101    691.965    530.317    525.101    525.101
 93.470    717.000    716.469      0.531    524.808    710.695    530.504    524.808    524.808
 93.570    767.000    735.717     31.283    524.514    729.467    530.681    524.514    524.514
 93.670    715.883    754.513    -38.629    524.220    747.801    530.844    524.220    524.220
 93.770    720.204    772.431    -52.226    523.926    765.268    530.997    523.926    523.926
 93.870    748.000    789.242    -41.242    523.631    781.621    531.159    523.631    523.631
 93.970    820.000    804.982     15.018    523.336    796.860    531.363    523.336    523.336
 94.070    877.000    819.913     57.087    523.040    811.200    531.659    523.040    523.040
 94.170    838.109    834.411      3.698    522.744    824.958    532.103    522.744    522.744
 94.270    852.000    848.822      3.178    522.448    838.424    532.753    522.448    522.448
 94.370    794.000    863.363    -69.363    522.151    851.760    533.662    522.151    522.151
 94.470    900.000    878.090     21.910    521.854    864.984    534.869    521.854    521.854
 94.570    849.651    892.943    -43.292    521.557    878.018    536.393    521.557    521.557
 94.670    851.367    907.819    -56.451    521.259    890.764    538.227    521.259    521.259
 94.770    965.000    922.614     42.386    520.961    903.154    540.338    520.961    520.961
 94.870    910.000    937.182    -27.182    520.663    915.107    542.659    520.663    520.663
 94.970    930.000    951.231    -21.231    520.365    926.429    545.092    520.365    520.365
 95.070    949.000    964.217    -15.217    520.067    936.705    547.509    520.067    520.067
 95.170    995.000    975.289     19.711    519.768    945.234    549.759    519.768    519.768
 95.270    985.510    983.322      2.188    519.469    951.063    551.673    519.469    519.469
 95.370    993.000    987.059      5.941    519.170    953.102    553.081    519.170    519.170
 95.470    971.000    985.341    -14.341    518.871    950.340    553.835    518.871    518.871
 95.570    924.161    977.399    -53.238    518.572    942.109    553.835    518.572    518.572
 95.670    929.000    963.105    -34.105    518.272    928.307    553.052    518.272    518.272
 95.770    966.000    943.063     22.937    517.973    909.493    551.534    517.973    517.973
 95.870    953.000    918.537     34.463    517.673    886.808    549.398    517.673    517.673
 95.970    927.000    891.181     35.819    517.374    861.756    546.799    517.374    517.374
 96.070    875.000    862.834     12.166    517.074    836.005    543.906    517.074    517.074
 96.170    824.000    835.338    -11.338    516.774    811.230    540.886    516.774    516.774
 96.270    777.127    810.435    -33.308    516.475    789.026    537.886    516.475    516.475
 96.370    799.000    789.714      9.286    516.175    770.858    535.030    516.175    516.175
 96.470    840.000    774.584     65.416    515.876    758.038    532.415    515.876    515.876
 96.570    729.138    766.256    -37.119    515.576    751.710    530.109    515.576    515.576
 96.670    764.000    765.741     -1.741    515.277    752.844    528.153    515.277    515.277
 96.770    844.000    773.839     70.161    514.977    762.222    526.564    514.977    514.977
 96.870    783.000    791.130     -8.130    514.678    780.429    525.339    514.678    514.678
 96.970    811.000    817.961     -6.961    514.379    807.828    524.461    514.379    514.379
 97.070    873.361    854.419     18.942    514.080    844.534    523.903    514.080    514.080
 97.170    908.000    900.290      7.710    513.782    890.365    523.632    513.782    513.782
 97.270    894.496    954.994    -60.498    513.483    944.779    523.613    513.483    513.483
 97.370   1065.309   1017.568     47.741    513.185   1006.851    523.806    513.185    513.185
 97.470   1131.000   1086.673     44.327    512.887   1075.286    524.170    512.887    512.887
 97.570   1177.000   1160.351     16.649    512.589   1148.172    524.656    512.589    512.589
 97.670   1315.000   1236.151     78.849    512.291   1223.112    525.214    512.291    512.291
 97.770   1302.000   1311.088     -9.088    511.994   1297.177    525.787    511.994    511.994
 97.870   1372.666   1381.714     -9.048    511.697   1366.983    526.314    511.697    511.697
 97.970   1460.000   1444.196     15.804    511.401   1428.762    526.728    511.401    511.401
 98.070   1523.000   1494.641     28.359    511.105   1478.685    526.966    511.105    511.105
 98.170   1497.000   1529.549    -32.549    510.809   1513.309    526.969    510.809    510.809
 98.270   1573.000   1546.399     26.601    510.514   1530.154    526.697    510.514    510.514
 98.370   1540.469   1544.167     -3.698    510.219   1528.208    526.136    510.219    510.219
 98.470   1458.000   1523.531    -65.531    509.924   1508.136    525.297    509.924    509.924
 98.570   1416.093   1486.692    -70.599    509.630   1472.100    524.217    509.630    509.630
 98.670   1468.791   1436.892     31.899    509.337   1423.290    522.948    509.337    509.337
 98.770   1343.000   1377.889    -34.889    509.044   1365.403    521.550    509.044    509.044
 98.870   1257.000   1313.517    -56.517    508.751   1302.215    520.082    508.751    508.751
 98.970   1282.000   1247.411     34.589    508.459   1237.309    518.595    508.459    508.459
 99.070   1157.849   1182.849    -25.000    508.168   1173.915    517.135    508.168    508.168
 99.170   1139.000   1122.675     16.325    507.877   1114.843    515.741    507.877    507.877
 99.270   1129.098   1069.288     59.811    507.587   1062.463    514.440    507.587    507.587
 99.370    991.000   1024.657    -33.657    507.298   1018.724    513.253    507.298    507.298
 99.470    931.000    990.358    -59.358    507.009    985.191    512.192    507.009    507.009
 99.570    928.000    967.610    -39.610    506.721    963.077    511.264    506.721    506.721
 99.670    994.000    957.303     36.697    506.434    953.273    510.466    506.434    506.434
 99.770    991.344    960.014     31.330    506.147    956.362    509.794    506.147    506.147
 99.870    989.000    976.021     12.979    505.861    972.632    509.239    505.861    505.861
 99.970    976.971   1005.311    -28.340    505.576   1002.080    508.790    505.576    505.576
100.070   1098.000   1047.578     50.422    505.292   1044.416    508.432    505.292    505.292
100.170   1139.216   1102.216     37.000    505.009   1099.047    508.153    505.009    505.009
100.270   1206.392   1168.294     38.099    504.726   1165.058    507.937    504.726    504.726
100.370   1186.872   1244.530    -57.658    504.445   1241.182    507.769    504.445    504.445
100.470   1307.330   1329.249    -21.920    504.164   1325.758    507.635    504.164    504.164
100.570   1476.000   1420.350     55.650    503.884   1416.700    507.521    503.884    503.884
100.670   1555.000   1515.289     39.711    503.606   1511.478    507.413    503.606    503.606
100.770   1628.000   1611.123     16.877    503.328   1607.163    507.298    503.328    503.328
100.870   1762.000   1704.628     57.372    503.051   1700.543    507.163    503.051    503.051
100.970   1842.000   1792.556     49.444    502.775   1788.378    506.999    502.775    502.775
101.070   1976.000   1871.957    104.043    502.501   1867.724    506.801    502.501    502.501
101.170   1978.915   1940.383     38.532    502.227   1936.133    506.567    502.227    502.227
101.270   1999.000   1996.058      2.942    501.955   1991.824    506.301    501.955    501.955
101.370   1987.000   2037.761    -50.761    501.683   2033.567    506.011    501.683    501.683
101.470   2032.133   2064.606    -32.473    501.413   2060.465    505.708    501.413    501.413
101.570   2002.585   2075.858    -73.273    501.144   2071.769    505.403    501.144    501.144
101.670   2118.000   2070.937     47.063    500.877   2066.890    505.108    500.877    500.877
101.770   1993.804   2049.658    -55.854    500.610   2045.631    504.833    500.610    500.610
101.870   1985.000   2012.591    -27.591    500.345   2008.554    504.585    500.345    500.345
101.970   1996.000   1961.346     34.654    500.081   1957.265    504.368    500.081    500.081
102.070   1905.000   1898.613      6.387    499.819   1894.452    504.185    499.819    499.819
102.170   1850.132   1827.880     22.253    499.558   1823.602    504.035    499.558    499.558
102.270   1810.377   1752.961     57.417    499.298   1748.537    503.913    499.298    499.298
102.370   1679.000   1677.513      1.487    499.040   1672.921    503.811    499.040    499.040
102.470   1646.000   1604.670     41.330    498.783   1599.899    503.721    498.783    498.783
102.570   1523.000   1536.840    -13.840    498.527   1531.891    503.632    498.527    498.527
102.670   1378.000   1475.630    -97.630    498.273   1470.514    503.531    498.273    498.273
102.770   1356.672   1421.850    -65.178    498.021   1416.592    503.409    498.021    498.021
102.870   1228.000   1375.563   -147.563    497.770   1370.194    503.258    497.770    497.770
102.970   1305.000   1336.151    -31.151    497.521   1330.709    503.071    497.521    497.521
103.070   1319.042   1302.408     16.633    497.273   1296.938    502.845    497.273    497.273
103.170   1124.000   1272.681   -148.681    497.027   1267.229    502.575    497.027    497.027
103.270   1160.000   1245.051    -85.051    496.783   1239.668    502.258    496.783    496.783
103.370   1196.000   1217.579    -21.579    496.540   1212.317    501.892    496.540    496.540
103.470   1165.000   1188.601    -23.601    496.299   1183.513    501.476    496.299    496.299
103.570   1171.886   1156.941     14.945    496.060   1152.075    501.014    496.060    496.060
103.670   1145.000   1122.049     22.951    495.823   1117.449    500.511    495.823    495.823
103.770   1046.588   1083.990    -37.402    495.587   1079.689    499.975    495.587    495.587
103.870   1107.723   1043.303     64.419    495.353   1039.324    499.418    495.353    495.353
103.970    967.651   1000.820    -33.169    495.121    997.175    498.849    495.121    495.121
104.070    902.000    957.493    -55.493    494.891    954.184    498.279    494.891    494.891
104.170    882.119    914.281    -32.162    494.663    911.302    497.717    494.663    494.663
104.270    919.716    872.069     47.648    494.437    869.405    497.170    494.437    494.437
104.370    896.000    831.631     64.369    494.213    829.264    496.643    494.213    494.213
104.470    786.000    793.606     -7.606    493.991    791.511    496.142    493.991    493.991
104.570    799.000    758.484     40.516    493.771    756.637    495.669    493.771    493.771
104.670    704.000    726.605    -22.605    493.554    724.978    495.225    493.554    493.554
104.770    653.101    698.158    -45.057    493.338    696.724    494.810    493.338    493.338
104.870    752.000    673.195     78.805    493.124    671.927    494.425    493.124    493.124
104.970    689.000    651.646     37.354    492.913    650.518    494.068    492.913    492.913
105.070    658.000    633.322     24.678    492.704    632.316    493.732    492.704    492.704
105.170    649.206    618.045     31.161    492.497    617.135    493.425    492.497    492.497
105.270    644.000    605.515     38.485    492.292    604.683    493.140    492.292    492.292
105.370    674.000    595.434     78.566    492.090    594.661    492.874    492.090    492.090
105.470    583.000    587.509     -4.509    491.890    586.781    492.626    491.890    491.890
105.570    593.275    581.466     11.809    491.693    580.770    492.394    491.693    491.693
105.670    625.000    577.064     47.936    491.497    576.389    492.176    491.497    491.497
105.770    590.456    574.101     16.355    491.305    573.435    491.971    491.305    491.305
105.870    564.454    572.417     -7.963    491.114    571.750    491.779    491.114    491.114
105.970    546.000    571.893    -25.893    490.927    571.217    491.599    490.927    490.927
106.070    536.610    572.453    -35.843    490.742    571.758    491.430    490.742    490.742
106.170    545.254    574.053    -28.799    490.559    573.329    491.274    490.559    490.559
106.270    601.545    576.678     24.866    490.379    575.916    491.130    490.379    490.379
106.370    592.000    580.336     11.664    490.202    579.525    490.998    490.202    490.202
106.470    620.000    585.045     34.955    490.027    584.175    490.880    490.027    490.027
106.570    626.000    590.834     35.166    489.855    589.892    490.776    489.855    489.855
106.670    611.000    597.724     13.276    489.686    596.700    490.686    489.686    489.686
106.770    617.000    605.727     11.273    489.520    604.609    490.611    489.520    489.520
106.870    666.000    614.831     51.169    489.356    613.607    490.550    489.356    489.356
106.970    576.836    624.989    -48.153    489.195    623.649    490.502    489.195    489.195
107.070    656.595    636.114     20.481    489.038    634.648    490.467    489.038    489.038
107.170    627.000    648.071    -21.071    488.883    646.470    490.443    488.883    488.883
107.270    627.147    660.672    -33.525    488.731    658.931    490.427    488.731    488.731
107.370    695.000    673.677     21.323    488.582    671.794    490.417    488.582    488.582
107.470    656.000    686.794    -30.794    488.436    684.771    490.409    488.436    488.436
107.570    718.000    699.687     18.313    488.293    697.530    490.398    488.293    488.293
107.670    676.293    711.981    -35.688    488.153    709.700    490.381    488.153    488.153
107.770    718.000    723.285     -5.285    488.017    720.896    490.351    488.017    488.017
107.870    744.000    733.215     10.785    487.884    730.740    490.305    487.884    487.884
107.970    785.038    741.439     43.599    487.753    738.901    490.238    487.753    487.753
108.070    727.000    747.718    -20.718    487.626    745.148    490.147    487.626    487.626
108.170    732.000    751.955    -19.955    487.503    749.382    490.028    487.503    487.503
108.270    747.987    754.217     -6.230    487.383    751.672    489.884    487.383    487.383
108.370    751.445    754.731     -3.286    487.266    752.242    489.715    487.266    487.266
108.470    730.481    753.853    -23.372    487.152    751.445    489.525    487.152    487.152
108.570    730.554    752.016    -21.462    487.042    749.708    489.319    487.042    487.042
108.670    759.000    749.672      9.328    486.936    747.480    489.102    486.936    486.936
108.770    729.000    747.247    -18.247    486.832    745.179    488.879    486.832    486.832
108.870    689.000    745.100    -56.100    486.733    743.162    488.654    486.733    486.733
108.970    760.133    743.508     16.625    486.637    741.700    488.431    486.637    486.637
109.070    703.178    742.643    -39.465    486.545    740.963    488.216    486.545    486.545
109.170    736.000    742.571     -6.571    486.456    741.013    488.009    486.456    486.456
109.270    695.000    743.250    -48.250    486.371    741.806    487.813    486.371    486.371
109.370    726.000    744.528    -18.528    486.290    743.189    487.630    486.290    486.290
109.470    798.000    746.152     51.848    486.213    744.909    487.461    486.213    486.213
109.570    721.483    747.785    -26.303    486.139    746.628    487.304    486.139    486.139
109.670    787.000    749.026     37.974    486.070    747.946    487.161    486.070    486.070
109.770    762.000    749.447     12.553    486.004    748.436    487.029    486.004    486.004
109.870    761.000    748.637     12.363    485.942    747.687    486.908    485.942    485.942
109.970    752.736    746.257      6.479    485.884    745.364    486.797    485.884    485.884
110.070    749.000    742.090      6.910    485.831    741.248    486.694    485.831    485.831
110.170    690.000    736.063    -46.063    485.781    735.268    486.598    485.781    485.781
110.270    683.215    728.251    -45.036    485.735    727.503    486.506    485.735    485.735
110.370    744.000    718.867     25.133    485.694    718.165    486.420    485.694    485.694
110.470    664.000    708.218    -44.218    485.657    707.554    486.344    485.657    485.657
110.570    664.460    696.643    -32.183    485.624    696.015    486.274    485.624    485.624
110.670    668.536    684.498    -15.962    485.595    683.904    486.211    485.595    485.595
110.770    707.000    672.128     34.872    485.571    671.565    486.155    485.571    485.571
110.870    666.911    659.846      7.065    485.551    659.311    486.104    485.551    485.551
110.970    660.000    647.926     12.074    485.535    647.417    486.061    485.535    485.535
111.070    600.000    636.599    -36.599    485.524    636.113    486.024    485.524    485.524
111.170    618.443    626.047     -7.604    485.517    625.582    485.995    485.517    485.517
111.270    618.000    616.417      1.583    485.515    615.970    485.972    485.515    485.515
111.370    620.000    607.811     12.189    485.517    607.380    485.957    485.517    485.517
111.470    592.280    600.281     -8.001    485.524    599.861    485.950    485.524    485.524
111.570    557.681    593.842    -36.161    485.536    593.433    485.949    485.536    485.536
111.670    596.000    588.482      7.518    485.552    588.081    485.956    485.552    485.552
111.770    604.000    584.159     19.841    485.574    583.764    485.970    485.574    485.574
111.870    555.971    580.812    -24.841    485.600    580.419    485.991    485.600    485.600
111.970    598.000    578.363     19.637    485.630    577.973    486.018    485.630    485.630
112.070    579.000    576.729      2.271    485.666    576.338    486.052    485.666    485.666
112.170    602.688    575.818     26.871    485.707    575.426    486.092    485.707    485.707
112.270    589.000    575.545     13.455    485.752    575.151    486.139    485.752    485.752
112.370    574.000    575.825     -1.825    485.803    575.429    486.191    485.803    485.803
112.470    601.000    576.582     24.418    485.858    576.182    486.250    485.858    485.858
112.570    557.000    577.746    -20.746    485.919    577.342    486.313    485.919    485.919
112.670    551.000    579.261    -28.261    485.985    578.853    486.383    485.985    485.985
112.770    572.000    581.081     -9.081    486.056    580.670    486.457    486.056    486.056
112.870    566.000    583.176    -17.176    486.132    582.760    486.537    486.132    486.132
112.970    553.000    585.527    -32.527    486.214    585.107    486.623    486.214    486.214
113.070    619.471    588.132     31.339    486.301    587.707    486.713    486.301    486.301
113.170    561.000    591.002    -30.002    486.393    590.573    486.810    486.393    486.393
113.270    582.000    594.164    -12.164    486.491    593.729    486.913    486.491    486.491
113.370    576.000    597.659    -21.659    486.594    597.219    487.022    486.594    486.594
113.470    651.000    601.548     49.452    486.703    601.099    487.138    486.703    486.703
113.570    591.000    605.908    -14.908    486.817    605.450    487.261    486.817    486.817
113.670    639.470    610.842     28.627    486.937    610.373    487.392    486.937    486.937
113.770    655.873    616.485     39.388    487.063    616.000    487.532    487.063    487.063
113.870    615.000    623.005     -8.005    487.194    622.502    487.680    487.194    487.194
113.970    635.000    630.624      4.376    487.331    630.098    487.839    487.331    487.331
114.070    618.000    639.619    -21.619    487.474    639.065    488.008    487.474    487.474
114.170    638.000    650.344    -12.344    487.623    649.756    488.188    487.623    487.623
114.270    622.000    663.242    -41.242    487.777    662.611    488.381    487.777    487.777
114.370    642.910    678.863    -35.953    487.938    678.182    488.587    487.938    487.938
114.470    695.000    697.884     -2.884    488.104    697.144    488.808    488.104    488.104
114.570    642.000    721.128    -79.128    488.277    720.316    489.044    488.277    488.277
114.670    739.000    749.579    -10.579    488.456    748.684    489.296    488.456    488.456
114.770    817.000    784.400     32.600    488.640    783.410    489.565    488.640    488.640
114.870    793.328    826.946    -33.618    488.831    825.846    489.853    488.831    488.831
114.970    849.000    878.762    -29.762    489.029    877.536    490.159    489.029    489.029
115.070    945.311    941.583      3.728    489.232    940.215    490.485    489.232    489.232
115.170    976.000   1017.316    -41.316    489.442   1015.789    490.832    489.442    489.442
115.270   1057.659   1108.007    -50.348    489.659   1106.303    491.198    489.659    489.659
115.370   1172.853   1215.796    -42.943    489.881   1213.898    491.585    489.881    489.881
115.470   1300.000   1342.852    -42.852    490.111   1340.743    491.992    490.111    490.111
115.570   1545.000   1491.291     53.709    490.346   1488.954    492.418    490.346    490.346
115.670   1695.229   1663.073     32.156    490.589   1660.493    492.863    490.589    490.589
115.770   1857.000   1859.892     -2.892    490.838   1857.054    493.326    490.838    490.838
115.870   2108.891   2083.041     25.850    491.094   2079.935    493.804    491.094    491.094
115.970   2323.000   2333.290    -10.290    491.356   2329.906    494.297    491.356    491.356
116.070   2650.000   2610.744     39.256    491.625   2607.078    494.801    491.625    491.625
116.170   2877.000   2914.719    -37.719    491.902   2910.770    495.314    491.902    491.902
116.270   3268.000   3243.637     24.363    492.185   3239.409    495.833    492.185    492.185
116.370   3621.000   3594.931     26.069    492.475   3590.430    496.355    492.475    492.475
116.470   4031.618   3964.985     66.633    492.772   3960.224    496.878    492.772    492.772
116.570   4261.000   4349.097    -88.097    493.076   4344.093    497.399    493.076    493.076
116.670   4689.000   4741.485    -52.485    493.387   4736.259    497.917    493.387    493.387
116.770   4956.000   5135.449   -179.449    493.706   5130.021    498.431    493.706    493.706
116.870   5393.000   5523.216   -130.216    494.031   5517.611    498.941    494.031    494.031
116.970   5824.000   5896.239    -72.239    494.364   5890.483    499.446    494.364    494.364
117.070   6178.000   6245.346    -67.346    494.704   6239.466    499.947    494.704    494.704
117.170   6675.032   6561.019    114.013    495.052   6555.042    500.442    495.052    495.052
117.270   6909.000   6833.767     75.233    495.407   6827.720    500.933    495.407    495.407
117.370   7243.000   7054.637    188.363    495.770   7048.547    501.419    495.770    495.770
117.470   7226.000   7215.831     10.169    496.140   7209.724    501.897    496.140    496.140
117.570   7248.000   7311.367    -63.367    496.518   7305.267    502.368    496.518    496.518
117.670   7394.000   7337.674     56.326    496.903   7331.602    502.828    496.903    496.903
117.770   7250.000   7293.986    -43.986    497.296   7287.960    503.278    497.296    497.296
117.870   7277.000   7182.426     94.574    497.697   7176.462    503.716    497.697    497.697
117.970   7114.243   7007.757    106.486    498.106   7001.868    504.139    498.106    498.106
118.070   6870.839   6776.874     93.965    498.522   6771.072    504.548    498.522    498.522
118.170   6407.000   6498.150    -91.150    498.947   6492.445    504.941    498.947    498.947
118.270   6034.000   6180.783   -146.783    499.380   6175.188    505.315    499.380    499.380
118.370   5956.887   5834.227    122.661    499.820   5828.753    505.672    499.820    499.820
118.470   5378.000   5467.742    -89.742    500.269   5462.404    506.009    500.269    500.269
118.570   5099.608   5090.073      9.535    500.726   5084.884    506.329    500.726    500.726
118.670   4675.476   4709.219    -33.743    501.191   4704.192    506.631    501.191    501.191
118.770   4324.173   4332.276     -8.102    501.664   4327.424    506.919    501.664    501.664
118.870   3840.471   3965.339   -124.868    502.146   3960.674    507.196    502.146    502.146
118.970   3737.000   3613.448    123.552    502.636   3608.978    507.466    502.636    502.636
119.070   3259.000   3280.572    -21.572    503.135   3276.303    507.733    503.135    503.135
119.170   3030.000   2969.637     60.363    503.642   2965.572    508.003    503.642    503.642
119.270   2679.000   2682.587     -3.587    504.158   2678.724    508.280    504.158    504.158
119.370   2469.000   2420.474     48.526    504.682   2416.812    508.569    504.682    504.682
119.470   2276.000   2183.574     92.426    505.215   2180.105    508.874    505.215    505.215
119.570   2009.000   1971.506     37.494    505.757   1968.222    509.198    505.757    505.757
119.670   1839.973   1783.363     56.610    506.308   1780.250    509.546    506.308    506.308
119.770   1725.000   1617.830    107.170    506.867   1614.875    509.920    506.867    506.867
119.870   1546.000   1473.302     72.698    507.435   1470.489    510.323    507.435    507.435
119.970   1374.022   1347.990     26.032    508.013   1345.299    510.758    508.013    508.013
120.070   1280.000   1240.008     39.992    508.599   1237.418    511.226    508.599    508.599
120.170   1088.000   1147.456    -59.456    509.195   1144.945    511.728    509.195    509.195
120.270   1093.000   1068.481     24.519    509.799   1066.026    512.266    509.799    509.799
120.370    973.730   1001.333    -27.603    510.413    998.908    512.841    510.413    510.413
120.470    923.000    944.392    -21.392    511.037    941.972    513.453    511.037    511.037
120.570    832.703    896.198    -63.494    511.669    893.756    514.103    511.669    511.669
120.670    895.000    855.454     39.546    512.311    852.964    514.792    512.311    512.311
120.770    779.000    821.035    -42.035    512.963    818.467    515.520    512.963    512.963
120.870    855.000    791.972     63.028    513.624    789.297    516.287    513.624    513.624
120.970    806.000    767.445     38.555    514.294    764.634    517.094    514.294    514.294
121.070    804.038    746.768     57.270    514.975    743.792    517.941    514.975    514.975
121.170    691.000    729.372    -38.372    515.665    726.200    518.829    515.665    515.665
121.270    696.000    714.789    -18.789    516.364    711.388    519.759    516.364    516.364
121.370    702.553    702.632     -0.080    517.074    698.971    520.731    517.074    517.074
121.470    639.000    692.589    -53.589    517.794    688.633    521.746    517.794    517.794
121.570    630.000    684.402    -54.402    518.523    680.117    522.806    518.523    518.523
121.670    687.000    677.860      9.140    519.263    673.211    523.912    519.263    519.263
121.770    671.000    672.789     -1.789    520.012    667.739    525.064    520.012    520.012
121.870    668.000    669.042     -1.042    520.772    663.554    526.264    520.772    520.772
121.970    679.000    666.498     12.502    521.542    660.531    527.513    521.542    521.542
122.070    622.390    665.048    -42.658    522.323    658.564    528.812    522.323    522.323
122.170    645.000    664.598    -19.598    523.113    657.555    530.163    523.113    523.113
122.270    647.000    665.061    -18.061    523.914    657.418    531.566    523.914    523.914
122.370    659.000    666.354     -7.354    524.726    658.069    533.022    524.726    524.726
122.470    636.000    668.399    -32.399    525.548    659.430    534.530    525.548    525.548
122.570    670.000    671.114     -1.114    526.381    661.421    536.088    526.381    526.381
122.670    682.821    674.415      8.406    527.225    663.962    537.694    527.225    527.225
122.770    644.000    678.215    -34.215    528.079    666.970    539.343    528.079    528.079
122.870    720.102    682.421     37.681    528.944    670.357    541.031    528.944    528.944
122.970    660.337    686.936    -26.598    529.820    674.032    542.748    529.820    529.820
123.070    664.000    691.652    -27.652    530.707    677.898    544.488    530.707    530.707
123.170    674.189    696.458    -22.269    531.605    681.855    546.238    531.605    531.605
123.270    709.000    701.236      7.764    532.514    685.795    547.988    532.514    532.514
123.370    717.000    705.863     11.137    533.434    689.610    549.724    533.434    533.434
123.470    694.895    710.213    -15.318    534.365    693.186    551.431    534.365    534.365
123.570    698.000    714.160    -16.160    535.308    696.414    553.095    535.308    535.308
123.670    724.000    717.582      6.418    536.262    699.187    554.701    536.262    536.262
123.770    763.000    720.368     42.632    537.228    701.407    556.235    537.228    537.228
123.870    728.264    722.423      5.841    538.205    702.992    557.684    538.205    538.205
123.970    702.000    723.669    -21.669    539.193    703.877    559.036    539.193    539.193
124.070    706.000    724.041    -18.041    540.193    704.002    560.284    540.193    540.193
124.170    761.000    723.533     37.467    541.205    703.369    561.422    541.205    541.205
124.270    749.000    722.182     26.818    542.229    702.013    562.451    542.229    542.229
124.370    715.000    719.999     -4.999    543.264    699.947    563.369    543.264    543.264
124.470    685.692    717.039    -31.347    544.312    697.222    564.182    544.312    544.312
124.570    675.507    713.374    -37.867    545.371    693.903    564.894    545.371    545.371
124.670    764.639    709.087     55.552    546.443    690.067    565.513    546.443    546.443
124.770    700.000    704.270     -4.270    547.526    685.796    566.049    547.526    547.526
124.870    692.000    699.017     -7.017    548.622    681.176    566.510    548.622    548.622
124.970    733.000    693.425     39.575    549.730    676.291    566.908    549.730    549.730
