neutron_powder_diffraction_0163
R_wp: 3.815
Temperature (K): 1074.000
Counts: 83763.00
Wavelength (Ã…): 2.52098
COMMENTS
Test file for demonstrating the .xyy file format in Reel1.0
END OF HEADER
   tth       Y_obs     Y_calc      Y_res    Background    Phase_1_Nuc    Phase_1_Mag    Phase_2_Nuc    Phase_2_Mag
  9.970    615.489    578.320     37.169    577.591    578.270    577.591    577.641    577.591
 10.070    612.000    578.309     33.691    577.521    578.259    577.521    577.571    577.521
 10.170    586.478    578.302      8.176    577.447    578.252    577.447    577.497    577.447
 10.270    543.013    578.302    -35.289    577.370    578.252    577.370    577.420    577.370
 10.370    563.065    578.311    -15.246    577.288    578.260    577.288    577.339    577.288
 10.470    605.000    578.332     26.668    577.203    578.280    577.203    577.254    577.203
 10.570    586.970    578.368      8.603    577.114    578.316    577.114    577.165    577.114
 10.670    578.550    578.424      0.126    577.021    578.372    577.021    577.073    577.021
 10.770    606.000    578.508     27.492    576.925    578.455    576.925    576.977    576.925
 10.870    552.189    578.628    -26.439    576.826    578.575    576.826    576.877    576.826
 10.970    609.435    578.797     30.638    576.722    578.744    576.722    576.774    576.722
 11.070    615.000    579.035     35.965    576.616    578.982    576.616    576.668    576.616
 11.170    571.753    579.366     -7.613    576.505    579.312    576.505    576.558    576.505
 11.270    588.000    579.831      8.169    576.392    579.776    576.392    576.444    576.392
 11.370    609.000    580.501     28.499    576.275    580.446    576.275    576.328    576.275
 11.470    619.000    581.534     37.466    576.155    581.478    576.155    576.208    576.155
 11.570    672.000    583.362     88.638    576.031    583.305    576.031    576.084    576.031
 11.670    596.000    587.181      8.819    575.904    587.121    575.904    575.958    575.904
 11.770    610.000    595.685     14.315    575.774    595.621    575.774    575.828    575.774
 11.870    644.000    613.093     30.907    575.641    613.018    575.641    575.695    575.641
 11.970    656.000    642.521     13.479    575.504    642.429    575.504    575.559    575.504
 12.070    713.170    680.052     33.118    575.365    679.939    575.365    575.419    575.365
 12.170    662.000    709.389    -47.389    575.222    709.259    575.222    575.277    575.222
 12.270    689.000    710.202    -21.202    575.076    710.072    575.076    575.131    575.076
 12.370    633.588    681.637    -48.048    574.928    681.522    574.928    574.983    574.928
 12.470    685.652    643.662     41.991    574.776    643.568    574.776    574.832    574.776
 12.570    636.870    613.293     23.578    574.621    613.215    574.621    574.678    574.621
 12.670    600.000    595.011      4.989    574.464    594.942    574.464    574.521    574.464
 12.770    621.604    585.877     35.726    574.304    585.813    574.304    574.361    574.304
 12.870    552.000    581.620    -29.620    574.140    581.558    574.140    574.199    574.140
 12.970    534.195    579.447    -45.251    573.974    579.385    573.974    574.033    573.974
 13.070    552.000    578.102    -26.102    573.806    578.041    573.806    573.864    573.806
 13.170    587.000    577.132      9.868    573.634    577.072    573.634    573.693    573.634
 13.270    586.608    576.374     10.234    573.460    576.313    573.460    573.519    573.460
 13.370    563.000    575.754    -12.754    573.283    575.693    573.283    573.343    573.283
 13.470    601.000    575.230     25.770    573.104    575.169    573.104    573.164    573.104
 13.570    617.980    574.775     43.205    572.922    574.714    572.922    572.982    572.922
 13.670    542.094    574.371    -32.277    572.737    574.309    572.737    572.798    572.737
 13.770    552.000    574.004    -22.004    572.550    573.943    572.550    572.611    572.550
 13.870    552.031    573.667    -21.636    572.361    573.605    572.361    572.422    572.361
 13.970    611.429    573.352     38.078    572.169    573.290    572.169    572.230    572.169
 14.070    605.375    573.053     32.321    571.974    572.991    571.974    572.036    571.974
 14.170    540.827    572.768    -31.941    571.777    572.706    571.777    571.839    571.777
 14.270    560.000    572.497    -12.497    571.578    572.434    571.578    571.641    571.578
 14.370    575.668    572.233      3.435    571.377    572.170    571.377    571.439    571.377
 14.470    614.162    571.975     42.188    571.173    571.911    571.173    571.236    571.173
 14.570    553.000    571.720    -18.720    570.967    571.656    570.967    571.030    570.967
 14.670    547.909    571.468    -23.559    570.759    571.404    570.759    570.822    570.759
 14.770    579.927    571.220      8.707    570.548    571.156    570.548    570.612    570.548
 14.870    580.000    570.974      9.026    570.336    570.909    570.336    570.400    570.336
 14.970    599.095    570.730     28.366    570.121    570.665    570.121    570.186    570.121
 15.070    569.000    570.486     -1.486    569.904    570.421    569.904    569.969    569.904
 15.170    608.931    570.244     38.687    569.685    570.178    569.685    569.751    569.685
 15.270    518.000    570.002    -52.002    569.464    569.936    569.464    569.530    569.464
 15.370    540.000    569.761    -29.761    569.241    569.694    569.241    569.307    569.241
 15.470    605.000    569.519     35.481    569.016    569.452    569.016    569.083    569.016
 15.570    577.000    569.277      7.723    568.789    569.210    568.789    568.857    568.789
 15.670    577.000    569.039      7.961    568.561    568.967    568.561    568.632    568.561
 15.770    512.000    568.797    -56.797    568.330    568.724    568.330    568.403    568.330
 15.870    554.000    568.554    -14.554    568.098    568.480    568.098    568.171    568.098
 15.970    543.172    568.310    -25.138    567.863    568.236    567.863    567.937    567.863
 16.070    575.635    568.065      7.569    567.627    567.990    567.627    567.702    567.627
 16.170    592.000    567.820     24.180    567.389    567.744    567.389    567.464    567.389
 16.270    544.000    567.573    -23.573    567.150    567.498    567.150    567.225    567.150
 16.370    575.000    567.326      7.674    566.908    567.250    566.908    566.984    566.908
 16.470    543.994    567.077    -23.083    566.665    567.001    566.665    566.742    566.665
 16.570    531.000    566.828    -35.828    566.421    566.751    566.421    566.498    566.421
 16.670    550.008    566.577    -16.570    566.174    566.500    566.174    566.252    566.174
 16.770    566.000    566.326     -0.326    565.927    566.248    565.927    566.005    565.927
 16.870    580.000    566.076     13.924    565.677    565.997    565.677    565.756    565.677
 16.970    560.000    565.823     -5.823    565.426    565.744    565.426    565.505    565.426
 17.070    581.000    565.568     15.432    565.174    565.488    565.174    565.253    565.174
 17.170    554.000    565.312    -11.312    564.920    565.232    564.920    565.000    564.920
 17.270    539.000    565.055    -26.055    564.665    564.975    564.665    564.745    564.665
 17.370    565.000    564.798      0.202    564.408    564.717    564.408    564.489    564.408
 17.470    539.000    564.539    -25.539    564.150    564.457    564.150    564.231    564.150
 17.570    527.000    564.279    -37.279    563.890    564.197    563.890    563.972    563.890
 17.670    571.000    564.018      6.982    563.629    563.936    563.629    563.712    563.629
 17.770    575.000    563.757     11.243    563.367    563.673    563.367    563.450    563.367
 17.870    556.000    563.495     -7.495    563.104    563.411    563.104    563.187    563.104
 17.970    570.000    563.231      6.769    562.839    563.147    562.839    562.923    562.839
 18.070    597.000    562.967     34.033    562.573    562.882    562.573    562.658    562.573
 18.170    563.682    562.701      0.980    562.306    562.616    562.306    562.391    562.306
 18.270    573.000    562.436     10.564    562.038    562.350    562.038    562.124    562.038
 18.370    569.343    562.170      7.174    561.768    562.083    561.768    561.855    561.768
 18.470    593.413    561.902     31.512    561.498    561.814    561.498    561.585    561.498
 18.570    543.022    561.633    -18.611    561.226    561.545    561.226    561.314    561.226
 18.670    532.000    561.363    -29.363    560.953    561.274    560.953    561.042    560.953
 18.770    554.000    561.093     -7.093    560.679    561.003    560.679    560.769    560.679
 18.870    561.336    560.821      0.515    560.405    560.732    560.405    560.495    560.405
 18.970    580.578    560.550     20.029    560.129    560.459    560.129    560.219    560.129
 19.070    584.584    560.277     24.307    559.852    560.186    559.852    559.943    559.852
 19.170    578.158    560.004     18.154    559.574    559.912    559.574    559.666    559.574
 19.270    535.000    559.732    -24.732    559.296    559.639    559.296    559.388    559.296
 19.370    582.352    559.471     22.881    559.016    559.378    559.016    559.110    559.016
 19.470    564.000    559.207      4.793    558.736    559.112    558.736    558.830    558.736
 19.570    540.000    558.932    -18.932    558.454    558.837    558.454    558.549    558.454
 19.670    542.662    558.657    -15.995    558.172    558.561    558.172    558.268    558.172
 19.770    521.000    558.381    -37.381    557.889    558.284    557.889    557.986    557.889
 19.870    573.000    558.104     14.896    557.606    558.007    557.606    557.703    557.606
 19.970    621.000    557.828     63.172    557.321    557.729    557.321    557.420    557.321
 20.070    532.000    557.551    -25.551    557.036    557.451    557.036    557.135    557.036
 20.170    585.000    557.274     27.726    556.750    557.173    556.750    556.850    556.750
 20.270    517.870    556.996    -39.126    556.464    556.895    556.464    556.565    556.464
 20.370    596.421    556.721     39.700    556.177    556.617    556.177    556.280    556.177
 20.470    539.523    556.444    -16.921    555.889    556.338    555.889    555.994    555.889
 20.570    558.000    556.166      1.834    555.600    556.060    555.600    555.707    555.600
 20.670    520.000    555.889    -35.889    555.311    555.781    555.311    555.419    555.311
 20.770    578.000    555.611     22.389    555.022    555.503    555.022    555.130    555.022
 20.870    586.000    555.343     30.657    554.731    555.233    554.731    554.841    554.731
 20.970    578.210    555.151     23.059    554.441    555.040    554.441    554.552    554.441
 21.070    580.355    554.897     25.458    554.149    554.785    554.149    554.262    554.149
 21.170    545.817    554.623     -8.805    553.858    554.509    553.858    553.971    553.858
 21.270    520.724    554.348    -33.623    553.566    554.233    553.566    553.680    553.566
 21.370    587.000    554.073     32.927    553.273    553.958    553.273    553.389    553.273
 21.470    533.828    553.800    -19.971    552.980    553.683    552.980    553.097    552.980
 21.570    553.000    553.527     -0.527    552.687    553.409    552.687    552.805    552.687
 21.670    557.000    553.256      3.744    552.393    553.136    552.393    552.513    552.393
 21.770    544.000    552.988     -8.988    552.099    552.867    552.099    552.220    552.099
 21.870    530.866    552.726    -21.860    551.804    552.603    551.804    551.927    551.804
 21.970    547.000    552.481     -5.481    551.510    552.357    551.510    551.634    551.510
 22.070    545.000    552.244     -7.244    551.215    552.119    551.215    551.340    551.215
 22.170    570.000    551.991     18.009    550.919    551.864    550.919    551.046    550.919
 22.270    534.000    551.781    -17.781    550.624    551.653    550.624    550.752    550.624
 22.370    518.000    551.545    -33.545    550.328    551.415    550.328    550.458    550.328
 22.470    590.237    551.296     38.941    550.032    551.165    550.032    550.164    550.032
 22.570    533.745    551.051    -17.306    549.736    550.917    549.736    549.869    549.736
 22.670    581.000    550.811     30.189    549.439    550.676    549.439    549.575    549.439
 22.770    520.000    550.578    -30.578    549.143    550.441    549.143    549.280    549.143
 22.870    569.000    550.353     18.647    548.846    550.214    548.846    548.986    548.846
 22.970    578.000    550.138     27.862    548.549    549.997    548.549    548.691    548.549
 23.070    593.000    549.936     43.064    548.253    549.792    548.253    548.396    548.253
 23.170    572.000    549.748     22.252    547.956    549.602    547.956    548.102    547.956
 23.270    544.806    549.579     -4.773    547.659    549.431    547.659    547.807    547.659
 23.370    531.102    549.434    -18.332    547.362    549.284    547.362    547.512    547.362
 23.470    519.274    549.319    -30.046    547.065    549.167    547.065    547.218    547.065
 23.570    547.000    549.245     -2.245    546.768    549.090    546.768    546.923    546.768
 23.670    573.901    549.225     24.675    546.470    549.068    546.470    546.629    546.470
 23.770    507.682    549.280    -41.598    546.174    549.120    546.174    546.335    546.174
 23.870    559.000    549.442      9.558    545.877    549.280    545.877    546.041    545.877
 23.970    535.000    549.770    -14.770    545.580    549.604    545.580    545.747    545.580
 24.070    532.490    550.406    -17.916    545.283    550.238    545.283    545.454    545.283
 24.170    564.000    551.746     12.254    544.986    551.576    544.986    545.161    544.986
 24.270    517.059    554.796    -37.736    544.690    554.624    544.690    544.868    544.690
 24.370    568.000    561.555      6.445    544.393    561.384    544.393    544.575    544.393
 24.470    560.000    574.648    -14.648    544.097    574.483    544.097    544.283    544.097
 24.570    616.071    595.204     20.866    543.801    595.050    543.801    543.991    543.801
 24.670    620.000    619.128      0.872    543.505    618.987    543.505    543.700    543.505
 24.770    609.102    634.859    -25.757    543.210    634.725    543.210    543.409    543.210
 24.870    578.000    631.039    -53.039    542.914    630.897    542.914    543.118    542.914
 24.970    642.000    610.729     31.271    542.619    610.567    542.619    542.829    542.619
 25.070    571.735    586.697    -14.961    542.324    586.513    542.324    542.539    542.324
 25.170    536.000    568.028    -32.028    542.030    567.824    542.030    542.251    542.030
 25.270    581.000    556.729     24.271    541.735    556.511    541.735    541.963    541.735
 25.370    510.000    550.907    -40.907    541.441    550.678    541.441    541.675    541.441
 25.470    559.000    548.051     10.949    541.148    547.813    541.148    541.389    541.148
 25.570    570.000    546.511     23.489    540.854    546.264    540.854    541.103    540.854
 25.670    546.000    545.524      0.476    540.561    545.269    540.561    540.818    540.561
 25.770    548.830    544.799      4.031    540.269    544.535    540.269    540.534    540.269
 25.870    542.938    544.225     -1.287    539.976    543.951    539.976    540.252    539.976
 25.970    542.000    543.767     -1.767    539.685    543.482    539.685    539.970    539.685
 26.070    562.000    543.427     18.573    539.393    543.131    539.393    539.690    539.393
 26.170    536.000    543.139     -7.139    539.102    542.831    539.102    539.410    539.102
 26.270    562.000    542.877     19.123    538.812    542.557    538.812    539.133    538.812
 26.370    534.000    542.666     -8.666    538.522    542.331    538.522    538.857    538.522
 26.470    495.000    542.504    -47.504    538.232    542.154    538.232    538.583    538.232
 26.570    523.060    542.396    -19.336    537.943    542.029    537.943    538.310    537.943
 26.670    523.000    542.345    -19.345    537.654    541.960    537.654    538.040    537.654
 26.770    534.000    542.371     -8.371    537.366    541.965    537.366    537.772    537.366
 26.870    564.000    542.487     21.513    537.079    542.059    537.079    537.507    537.079
 26.970    573.196    542.676     30.520    536.792    542.223    536.792    537.244    536.792
 27.070    552.000    542.983      9.017    536.505    542.502    536.505    536.985    536.505
 27.170    524.660    543.446    -18.786    536.220    542.934    536.220    536.730    536.220
 27.270    544.000    544.120     -0.120    535.934    543.575    535.934    536.479    535.934
 27.370    539.993    545.091     -5.098    535.650    544.507    535.650    536.233    535.650
 27.470    512.146    546.514    -34.368    535.366    545.885    535.366    535.993    535.366
 27.570    576.000    548.798     27.202    535.082    548.119    535.082    535.759    535.082
 27.670    526.136    553.365    -27.228    534.800    552.627    534.800    535.534    534.800
 27.770    520.368    564.983    -44.614    534.517    564.176    534.517    535.317    534.517
 27.870    593.000    595.446     -2.446    534.236    594.552    534.236    535.112    534.236
 27.970    652.000    662.699    -10.699    533.955    661.696    533.955    534.920    533.955
 28.070    853.000    774.170     78.830    533.675    773.031    533.675    534.745    533.675
 28.170    843.000    898.146    -55.146    533.396    896.857    533.396    534.591    533.396
 28.270    982.000    959.199     22.801    533.117    957.762    533.117    534.462    533.117
 28.370    868.000    907.788    -39.788    532.839    906.203    532.839    534.367    532.839
 28.470    793.000    796.779     -3.779    532.562    795.001    532.562    534.317    532.562
 28.570    729.860    710.690     19.170    532.286    708.635    532.286    534.331    532.286
 28.670    669.000    693.216    -24.216    532.010    690.775    532.010    534.438    532.010
 28.770    723.000    739.433    -16.433    531.735    736.462    531.735    534.690    531.735
 28.870    800.000    808.861     -8.861    531.461    805.142    531.461    535.170    531.461
 28.970    825.191    841.556    -16.365    531.188    836.749    531.188    536.000    531.188
 29.070    856.445    802.180     54.266    530.916    795.767    530.916    537.343    530.916
 29.170    717.339    721.452     -4.114    530.644    712.740    530.644    539.370    530.644
 29.270    629.000    646.996    -17.996    530.373    635.165    530.373    542.213    530.373
 29.370    549.000    600.488    -51.488    530.103    584.742    530.103    545.852    530.103
 29.470    571.829    579.370     -7.541    529.834    559.288    529.834    549.916    529.834
 29.570    554.000    572.088    -18.088    529.566    548.235    529.566    553.417    529.566
 29.670    575.000    568.924      6.076    529.299    543.356    529.299    554.865    529.299
 29.770    548.668    565.091    -16.423    529.032    540.757    529.032    553.364    529.032
 29.870    564.000    559.907      4.093    528.767    539.080    528.767    549.591    528.767
 29.970    533.619    554.430    -20.811    528.502    537.909    528.502    545.020    528.502
 30.070    535.976    549.618    -13.641    528.239    537.113    528.239    540.741    528.239
 30.170    595.000    545.909     49.091    527.976    536.664    527.976    537.218    527.976
 30.270    522.000    543.485    -21.485    527.714    536.678    527.714    534.519    527.714
 30.370    540.000    542.685     -2.685    527.453    537.602    527.453    532.532    527.453
 30.470    536.155    544.510     -8.355    527.193    540.609    527.193    531.088    527.193
 30.570    550.000    550.947     -0.947    526.934    547.847    526.934    530.022    526.934
 30.670    599.000    564.182     34.818    526.676    561.632    526.676    529.203    526.676
 30.770    549.000    583.999    -34.999    526.419    581.838    526.419    528.543    526.419
 30.870    583.000    604.498    -21.498    526.163    602.627    526.163    527.984    526.163
 30.970    633.000    613.850     19.150    525.908    612.211    525.908    527.493    525.908
 31.070    627.000    604.251     22.749    525.654    602.810    525.654    527.050    525.654
 31.170    537.173    582.937    -45.764    525.402    581.666    525.402    526.643    525.402
 31.270    537.000    561.734    -24.734    525.150    560.603    525.150    526.264    525.150
 31.370    562.000    546.788     15.212    524.899    545.772    524.899    525.906    524.899
 31.470    539.581    538.439      1.142    524.649    537.518    524.649    525.566    524.649
 31.570    534.754    534.422      0.332    524.400    533.580    524.400    525.241    524.400
 31.670    526.000    532.532     -6.532    524.153    531.756    524.153    524.927    524.153
 31.770    561.099    531.524     29.575    523.906    530.805    523.906    524.623    523.906
 31.870    561.386    530.889     30.497    523.661    530.220    523.661    524.328    523.661
 31.970    547.000    530.453     16.547    523.416    529.828    523.416    524.041    523.416
 32.070    526.184    530.158     -3.973    523.173    529.570    523.173    523.759    523.173
 32.170    510.000    529.979    -19.979    522.931    529.425    522.931    523.484    522.931
 32.270    560.000    529.910     30.090    522.690    529.386    522.690    523.213    522.690
 32.370    564.000    529.950     34.050    522.450    529.453    522.450    522.947    522.450
 32.470    499.283    530.109    -30.826    522.211    529.636    522.211    522.684    522.211
 32.570    592.000    530.404     61.596    521.973    529.951    521.973    522.425    521.973
 32.670    547.000    530.860     16.140    521.737    530.426    521.737    522.170    521.737
 32.770    558.259    531.516     26.743    521.502    531.099    521.502    521.917    521.502
 32.870    589.000    532.429     56.571    521.267    532.027    521.267    521.668    521.267
 32.970    573.204    533.681     39.523    521.034    533.294    521.034    521.421    521.034
 33.070    501.158    535.404    -34.246    520.803    535.029    520.803    521.176    520.803
 33.170    557.000    537.835     19.165    520.572    537.471    520.572    520.934    520.572
 33.270    550.285    541.525      8.760    520.342    541.171    520.342    520.694    520.342
 33.370    605.000    547.973     57.027    520.114    547.627    520.114    520.456    520.114
 33.470    567.000    561.071      5.929    519.887    560.732    519.887    520.221    519.887
 33.570    587.000    589.155     -2.155    519.661    588.819    519.661    519.987    519.661
 33.670    640.000    645.224     -5.224    519.437    644.885    519.437    519.755    519.437
 33.770    789.000    740.815     48.185    519.213    740.467    519.213    519.525    519.213
 33.870    917.000    871.816     45.184    518.991    871.458    518.991    519.296    518.991
 33.970   1047.000   1002.677     44.323    518.770   1002.315    518.770    519.070    518.770
 34.070   1059.000   1066.669     -7.669    518.550   1066.322    518.550    518.845    518.550
 34.170   1024.920   1018.652      6.268    518.332   1018.337    518.332    518.622    518.332
 34.270    877.000    893.980    -16.980    518.115    893.692    518.115    518.400    518.115
 34.370    782.615    759.762     22.853    517.899    759.489    517.899    518.181    517.899
 34.470    668.415    657.116     11.299    517.684    656.847    517.684    517.962    517.684
 34.570    593.000    594.497     -1.497    517.471    594.228    517.471    517.746    517.471
 34.670    568.000    562.020      5.980    517.259    561.750    517.259    517.531    517.259
 34.770    525.000    546.456    -21.456    517.048    546.187    517.048    517.317    517.048
 34.870    533.000    538.661     -5.661    516.838    538.394    516.838    517.105    516.838
 34.970    558.000    534.115     23.885    516.630    533.850    516.630    516.894    516.630
 35.070    529.000    531.013     -2.013    516.423    530.750    516.423    516.685    516.423
 35.170    521.323    528.686     -7.363    516.217    528.425    516.217    516.478    516.217
 35.270    486.000    526.855    -40.855    516.013    526.595    516.013    516.272    516.013
 35.370    492.561    525.375    -32.813    515.810    525.116    515.810    516.067    515.810
 35.470    547.000    524.153     22.847    515.608    523.896    515.608    515.864    515.608
 35.570    523.346    523.127      0.219    515.407    522.871    515.407    515.663    515.407
 35.670    509.000    522.253    -13.253    515.208    521.998    515.208    515.463    515.208
 35.770    529.468    521.497      7.971    515.010    521.243    515.010    515.264    515.010
 35.870    487.908    520.837    -32.929    514.814    520.583    514.814    515.067    514.814
 35.970    540.438    520.254     20.184    514.619    520.001    514.619    514.871    514.619
 36.070    531.000    519.735     11.265    514.425    519.483    514.425    514.677    514.425
 36.170    527.612    519.271      8.341    514.232    519.019    514.232    514.484    514.232
 36.270    515.000    518.854     -3.854    514.041    518.602    514.041    514.293    514.041
 36.370    549.756    518.479     31.277    513.852    518.227    513.852    514.103    513.852
 36.470    541.390    518.142     23.248    513.663    517.891    513.663    513.915    513.663
 36.570    536.000    517.844     18.156    513.476    517.592    513.476    513.728    513.476
 36.670    493.000    517.584    -24.584    513.290    517.332    513.290    513.542    513.290
 36.770    528.000    517.370     10.630    513.106    517.118    513.106    513.358    513.106
 36.870    479.843    517.224    -37.381    512.923    516.971    512.923    513.176    512.923
 36.970    543.000    517.199     25.801    512.741    516.946    512.741    512.995    512.741
 37.070    527.000    517.423      9.577    512.561    517.170    512.561    512.815    512.561
 37.170    505.650    518.128    -12.479    512.382    517.874    512.382    512.637    512.382
 37.270    551.998    519.630     32.368    512.205    519.375    512.205    512.460    512.205
 37.370    515.000    522.172     -7.172    512.029    521.917    512.029    512.285    512.029
 37.470    484.000    525.641    -41.641    511.854    525.385    511.854    512.112    511.854
 37.570    508.000    529.249    -21.249    511.681    528.994    511.681    511.939    511.681
 37.670    569.719    531.514     38.205    511.509    531.259    511.509    511.768    511.509
 37.770    560.000    531.203     28.797    511.338    530.949    511.338    511.599    511.338
 37.870    492.000    528.626    -36.626    511.169    528.373    511.169    511.431    511.169
 37.970    537.000    525.123     11.877    511.001    524.870    511.001    511.265    511.001
 38.070    510.000    521.750    -11.750    510.835    521.496    510.835    511.100    510.835
 38.170    506.000    518.952    -12.952    510.670    518.695    510.670    510.936    510.670
 38.270    549.000    516.855     32.145    510.507    516.594    510.507    510.775    510.507
 38.370    499.737    515.406    -15.669    510.344    515.141    510.344    510.614    510.344
 38.470    513.000    514.448     -1.448    510.184    514.180    510.184    510.455    510.184
 38.570    513.000    513.822     -0.822    510.024    513.550    510.024    510.298    510.024
 38.670    519.000    513.397      5.603    509.866    513.122    509.866    510.142    509.866
 38.770    492.000    513.085    -21.085    509.710    512.808    509.710    509.987    509.710
 38.870    546.000    512.833     33.167    509.555    512.555    509.555    509.834    509.555
 38.970    519.689    512.616      7.072    509.401    512.335    509.401    509.682    509.401
 39.070    480.000    512.421    -32.421    509.249    512.138    509.249    509.532    509.249
 39.170    497.000    512.241    -15.241    509.098    511.956    509.098    509.384    509.098
 39.270    532.000    512.074     19.926    508.948    511.786    508.948    509.237    508.948
 39.370    514.814    511.918      2.895    508.800    511.628    508.800    509.091    508.800
 39.470    496.000    511.772    -15.772    508.654    511.479    508.654    508.947    508.654
 39.570    464.000    511.634    -47.634    508.509    511.338    508.509    508.805    508.509
 39.670    523.000    511.504     11.496    508.365    511.206    508.365    508.664    508.365
 39.770    474.546    511.383    -36.837    508.222    511.081    508.222    508.524    508.222
 39.870    498.000    511.269    -13.269    508.081    510.965    508.081    508.386    508.081
 39.970    512.000    511.164      0.836    507.942    510.856    507.942    508.250    507.942
 40.070    492.701    511.066    -18.365    507.804    510.756    507.804    508.115    507.804
 40.170    512.000    510.977      1.023    507.667    510.664    507.667    507.981    507.667
 40.270    522.000    510.898     11.102    507.532    510.581    507.532    507.849    507.532
 40.370    522.549    510.828     11.720    507.398    510.508    507.398    507.719    507.398
 40.470    514.000    510.770      3.230    507.266    510.446    507.266    507.590    507.266
 40.570    523.414    510.724     12.690    507.135    510.396    507.135    507.463    507.135
 40.670    532.889    510.692     22.197    507.005    510.361    507.005    507.337    507.005
 40.770    503.000    510.677     -7.677    506.877    510.341    506.877    507.213    506.877
 40.870    531.000    510.681     20.319    506.750    510.341    506.750    507.090    506.750
 40.970    498.000    510.707    -12.707    506.625    510.364    506.625    506.969    506.625
 41.070    534.000    510.761     23.239    506.501    510.413    506.501    506.850    506.501
 41.170    502.000    510.849     -8.849    506.379    510.497    506.379    506.732    506.379
 41.270    500.000    510.979    -10.979    506.258    510.622    506.258    506.616    506.258
 41.370    509.000    511.163     -2.163    506.138    510.801    506.138    506.501    506.138
 41.470    511.000    511.416     -0.416    506.020    511.050    506.020    506.387    506.020
 41.570    513.000    511.765      1.235    505.903    511.394    505.903    506.276    505.903
 41.670    482.000    512.258    -30.258    505.788    511.882    505.788    506.166    505.788
 41.770    494.000    512.999    -18.999    505.674    512.618    505.674    506.057    505.674
 41.870    481.000    514.240    -33.240    505.562    513.854    505.562    505.950    505.562
 41.970    553.000    516.551     36.449    505.451    516.161    505.451    505.845    505.451
 42.070    472.000    521.048    -49.048    505.341    520.653    505.341    505.742    505.341
 42.170    506.000    529.474    -23.474    505.233    529.076    505.233    505.640    505.233
 42.270    524.000    543.777    -19.777    505.126    543.380    505.126    505.539    505.126
 42.370    491.000    564.911    -73.911    505.021    564.518    505.021    505.441    505.021
 42.470    564.000    591.076    -27.076    504.917    590.689    504.917    505.344    504.917
 42.570    644.000    616.210     27.790    504.814    615.830    504.814    505.248    504.814
 42.670    611.324    630.550    -19.227    504.713    630.173    504.713    505.154    504.713
 42.770    600.938    626.675    -25.736    504.613    626.291    504.613    505.062    504.613
 42.870    569.000    606.839    -37.839    504.515    606.439    504.515    504.972    504.515
 42.970    625.104    580.316     44.788    504.418    579.894    504.418    504.884    504.418
 43.070    539.000    555.624    -16.624    504.322    555.179    504.322    504.797    504.322
 43.170    562.901    537.042     25.859    504.228    536.577    504.228    504.712    504.228
 43.270    452.000    525.099    -73.099    504.135    524.617    504.135    504.628    504.135
 43.370    559.423    518.291     41.132    504.044    517.795    504.044    504.547    504.044
 43.470    475.000    514.674    -39.674    503.954    514.165    503.954    504.467    503.954
 43.570    489.000    512.745    -23.745    503.865    512.224    503.865    504.389    503.865
 43.670    564.000    511.626     52.374    503.778    511.093    503.778    504.313    503.778
 43.770    510.000    510.892     -0.892    503.692    510.346    503.692    504.239    503.692
 43.870    479.045    510.359    -31.314    503.608    509.801    503.608    504.167    503.608
 43.970    503.000    509.950     -6.950    503.525    509.379    503.525    504.097    503.525
 44.070    523.000    509.627     13.373    503.443    509.043    503.443    504.028    503.443
 44.170    521.842    509.371     12.471    503.363    508.772    503.363    503.962    503.363
 44.270    480.395    509.166    -28.771    503.284    508.552    503.284    503.898    503.284
 44.370    527.434    509.002     18.431    503.206    508.374    503.206    503.836    503.206
 44.470    496.000    508.874    -12.874    503.130    508.228    503.130    503.776    503.130
 44.570    578.000    508.774     69.226    503.055    508.111    503.055    503.718    503.055
 44.670    501.000    508.700     -7.700    502.982    508.019    502.982    503.663    502.982
 44.770    551.000    508.648     42.352    502.910    507.948    502.910    503.610    502.910
 44.870    508.000    508.616     -0.616    502.839    507.896    502.839    503.559    502.839
 44.970    536.000    508.604     27.396    502.770    507.862    502.770    503.511    502.770
 45.070    480.826    508.609    -27.782    502.702    507.845    502.702    503.466    502.702
 45.170    543.299    508.631     34.668    502.635    507.843    502.635    503.423    502.635
 45.270    489.379    508.671    -19.291    502.570    507.857    502.570    503.384    502.570
 45.370    603.000    508.727     94.273    502.506    507.886    502.506    503.347    502.506
 45.470    489.000    508.801    -19.801    502.443    507.931    502.443    503.313    502.443
 45.570    494.000    508.893    -14.893    502.382    507.992    502.382    503.283    502.382
 45.670    475.000    509.004    -34.004    502.322    508.070    502.322    503.256    502.322
 45.770    531.916    509.136     22.780    502.263    508.167    502.263    503.232    502.263
 45.870    472.852    509.291    -36.439    502.206    508.283    502.206    503.213    502.206
 45.970    521.000    509.470     11.530    502.150    508.421    502.150    503.198    502.150
 46.070    535.565    509.676     25.889    502.095    508.583    502.095    503.187    502.095
 46.170    533.000    509.914     23.086    502.042    508.774    502.042    503.182    502.042
 46.270    506.000    510.188     -4.188    501.990    508.996    501.990    503.181    501.990
 46.370    500.000    510.504    -10.504    501.939    509.255    501.939    503.187    501.939
 46.470    486.758    510.869    -24.111    501.890    509.560    501.890    503.198    501.890
 46.570    529.000    511.296     17.704    501.841    509.919    501.841    503.217    501.841
 46.670    537.000    511.799     25.201    501.795    510.349    501.795    503.244    501.795
 46.770    501.000    512.408    -11.408    501.749    510.877    501.749    503.278    501.749
 46.870    457.000    513.182    -56.182    501.705    511.562    501.705    503.323    501.705
 46.970    527.000    514.250     12.750    501.662    512.531    501.662    503.378    501.662
 47.070    544.277    515.890     28.387    501.620    514.060    501.620    503.446    501.620
 47.170    542.000    518.622     23.378    501.579    516.669    501.579    503.527    501.579
 47.270    515.000    523.274     -8.274    501.540    521.180    501.540    503.625    501.540
 47.370    531.096    530.858      0.238    501.502    528.605    501.502    503.741    501.502
 47.470    535.000    542.160     -7.160    501.466    539.724    501.466    503.879    501.466
 47.570    561.000    557.038      3.962    501.430    554.393    501.430    504.042    501.430
 47.670    554.000    573.694    -19.694    501.396    570.810    501.396    504.236    501.396
 47.770    613.000    588.252     24.748    501.363    585.096    501.363    504.465    501.363
 47.870    591.000    595.565     -4.565    501.332    592.100    501.332    504.739    501.332
 47.970    598.000    592.625      5.375    501.301    588.806    501.301    505.067    501.301
 48.070    567.000    581.490    -14.490    501.272    577.254    501.272    505.465    501.272
 48.170    575.000    567.171      7.829    501.244    562.429    501.244    505.955    501.244
 48.270    519.672    554.028    -34.356    501.217    548.652    501.217    506.573    501.217
 48.370    536.000    544.451     -8.451    501.192    538.252    501.192    507.377    501.192
 48.470    523.000    539.072    -16.072    501.167    531.768    501.167    508.463    501.167
 48.570    553.000    537.475     15.525    501.144    528.634    501.144    509.979    501.144
 48.670    525.385    538.949    -13.564    501.122    527.921    501.122    512.146    501.122
 48.770    534.000    542.992     -8.992    501.102    528.830    501.102    515.259    501.102
 48.870    547.000    549.480     -2.480    501.082    530.886    501.082    519.672    501.082
 48.970    585.000    558.618     26.382    501.064    533.939    501.064    525.737    501.064
 49.070    609.589    570.824     38.766    501.046    538.158    501.046    533.706    501.046
 49.170    545.055    586.763    -41.708    501.030    544.209    501.030    543.577    501.030
 49.270    632.724    607.803     24.921    501.016    553.922    501.016    554.886    501.016
 49.370    643.868    637.300      6.568    501.002    571.852    501.002    566.434    501.002
 49.470    668.000    683.112    -15.112    500.990    607.995    500.990    576.079    500.990
 49.570    786.517    761.014     25.503    500.978    680.804    500.978    581.142    500.978
 49.670    935.000    896.346     38.654    500.968    817.383    500.968    579.854    500.968
 49.770   1080.556   1117.816    -37.260    500.959   1045.941    500.959    572.717    500.959
 49.870   1406.192   1439.037    -32.845    500.951   1377.778    500.951    562.058    500.951
 49.970   1841.000   1833.733      7.267    500.944   1784.087    500.944    550.429    500.944
 50.070   2251.000   2220.366     30.634    500.939   2181.589    500.939    539.594    500.939
 50.170   2476.000   2475.240      0.760    500.934   2445.712    500.934    530.437    500.934
 50.270   2515.335   2491.599     23.736    500.931   2469.406    500.931    523.218    500.931
 50.370   2222.000   2258.977    -36.977    500.928   2242.263    500.928    517.824    500.928
 50.470   1922.361   1873.544     48.817    500.927   1860.730    500.927    513.950    500.927
 50.570   1486.171   1463.483     22.688    500.927   1453.362    500.927    511.236    500.927
 50.670   1101.000   1121.319    -20.319    500.928   1113.044    500.928    509.347    500.928
 50.770    820.000    884.117    -64.117    500.930    877.131    500.930    508.015    500.930
 50.870    702.000    744.425    -42.425    500.933    738.375    500.933    507.051    500.933
 50.970    691.612    672.996     18.615    500.937    667.656    500.937    506.327    500.937
 51.070    604.000    638.667    -34.667    500.942    633.885    500.942    505.764    500.942
 51.170    640.000    618.984     21.016    500.949    614.653    500.949    505.314    500.949
 51.270    655.000    602.688     52.312    500.956    598.727    500.956    504.947    500.956
 51.370    567.347    586.867    -19.521    500.964    583.212    500.964    504.644    500.964
 51.470    577.000    572.272      4.728    500.974    568.873    500.974    504.391    500.974
 51.570    602.000    560.141     41.859    500.984    556.959    500.984    504.179    500.984
 51.670    567.000    551.081     15.919    500.996    548.084    500.996    504.001    500.996
 51.770    555.695    544.987     10.709    501.008    542.148    501.008    503.853    501.008
 51.870    574.000    541.317     32.683    501.022    538.615    501.022    503.728    501.022
 51.970    545.000    539.432      5.568    501.036    536.847    501.036    503.625    501.036
 52.070    560.491    538.820     21.671    501.052    536.335    501.052    503.539    501.052
 52.170    546.000    539.196      6.804    501.069    536.797    501.069    503.470    501.069
 52.270    543.000    540.516      2.484    501.086    538.190    501.086    503.414    501.086
 52.370    511.036    543.018    -31.982    501.105    540.752    501.105    503.371    501.105
 52.470    578.000    547.388     30.612    501.124    545.174    501.124    503.340    501.124
 52.570    570.415    555.116     15.299    501.144    552.943    501.144    503.318    501.144
 52.670    622.000    569.008     52.992    501.166    566.868    501.166    503.305    501.166
 52.770    587.873    593.633     -5.760    501.188    591.519    501.188    503.301    501.188
 52.870    636.000    635.196      0.804    501.211    633.100    501.211    503.305    501.211
 52.970    747.834    700.159     47.675    501.236    698.075    501.236    503.316    501.236
 53.070    783.000    792.301     -9.301    501.261    790.223    501.261    503.334    501.261
 53.170    879.000    908.714    -29.714    501.287    906.638    501.287    503.359    501.287
 53.270   1019.000   1036.048    -17.048    501.314   1033.972    501.314    503.390    501.314
 53.370   1143.000   1148.793     -5.793    501.342   1146.717    501.342    503.427    501.342
 53.470   1179.000   1213.842    -34.842    501.371   1211.764    501.371    503.471    501.371
 53.570   1147.082   1206.993    -59.912    501.400   1204.908    501.400    503.520    501.400
 53.670   1122.000   1131.290     -9.290    501.431   1129.187    501.431    503.575    501.431
 53.770   1059.254   1014.204     45.050    501.462   1012.071    501.462    503.636    501.462
 53.870    850.000    888.068    -38.068    501.495    885.895    501.495    503.703    501.495
 53.970    822.641    776.156     46.485    501.528    773.936    501.528    503.776    501.528
 54.070    681.000    689.679     -8.679    501.562    687.406    501.562    503.855    501.562
 54.170    621.000    630.018     -9.018    501.597    627.688    501.597    503.940    501.597
 54.270    580.676    592.644    -11.968    501.633    590.253    501.633    504.032    501.633
 54.370    542.000    570.993    -28.993    501.669    568.537    501.669    504.130    501.669
 54.470    553.211    559.122     -5.911    501.707    556.596    501.707    504.236    501.707
 54.570    541.360    552.805    -11.445    501.745    550.203    501.745    504.350    501.745
 54.670    516.020    549.511    -33.491    501.784    546.827    501.784    504.471    501.784
 54.770    589.993    547.918     42.075    501.824    545.143    501.824    504.600    501.824
 54.870    576.863    547.402     29.461    501.865    544.529    501.865    504.739    501.865
 54.970    592.803    547.695     45.108    501.906    544.715    501.906    504.888    501.906
 55.070    594.000    548.698     45.302    501.949    545.601    501.949    505.046    501.949
 55.170    571.074    550.394     20.680    501.992    547.170    501.992    505.217    501.992
 55.270    605.000    552.823     52.177    502.036    549.460    502.036    505.399    502.036
 55.370    585.110    556.077     29.034    502.080    552.562    502.080    505.595    502.080
 55.470    564.000    560.330      3.670    502.125    556.650    502.125    505.806    502.125
 55.570    588.000    565.918     22.082    502.172    562.057    502.172    506.033    502.172
 55.670    613.911    573.539     40.372    502.218    569.479    502.218    506.279    502.218
 55.770    617.615    584.701     32.915    502.266    580.422    502.266    506.544    502.266
 55.870    558.317    602.557    -44.240    502.314    598.038    502.314    506.832    502.314
 55.970    588.000    633.209    -45.209    502.363    628.423    502.363    507.145    502.363
 56.070    675.000    687.169    -12.169    502.413    682.085    502.413    507.486    502.413
 56.170    721.000    780.017    -59.017    502.463    774.600    502.463    507.859    502.463
 56.270    910.000    930.645    -20.645    502.514    924.857    502.514    508.269    502.514
 56.370   1180.000   1155.562     24.438    502.566   1149.361    502.566    508.720    502.566
 56.470   1397.092   1459.335    -62.243    502.619   1452.680    502.619    509.220    502.619
 56.570   1802.518   1823.826    -21.308    502.672   1816.676    502.672    509.774    502.672
 56.670   2140.143   2200.463    -60.320    502.726   2192.777    502.726    510.393    502.726
 56.770   2420.647   2510.611    -89.964    502.780   2502.344    502.780    511.086    502.780
 56.870   2584.000   2664.644    -80.644    502.835   2655.733    502.835    511.868    502.835
 56.970   2624.000   2608.862     15.138    502.891   2599.203    502.891    512.756    502.891
 57.070   2381.870   2365.172     16.698    502.947   2354.607    502.947    513.770    502.947
 57.170   2063.000   2012.794     50.206    503.004   2001.122    503.004    514.940    503.004
 57.270   1606.000   1638.747    -32.747    503.062   1625.735    503.062    516.308    503.062
 57.370   1247.614   1306.459    -58.844    503.120   1291.828    503.120    517.937    503.120
 57.470   1034.499   1048.002    -13.503    503.179   1031.390    503.179    519.924    503.179
 57.570    888.000    868.646     19.354    503.238    849.545    503.238    522.426    503.238
 57.670    773.000    756.853     16.147    503.298    734.516    503.298    525.687    503.298
 57.770    711.000    695.014     15.986    503.358    668.322    503.358    530.079    503.358
 57.870    676.000    667.316      8.684    503.419    634.611    503.419    536.137    503.419
 57.970    640.961    663.458    -22.498    503.481    622.362    503.481    544.578    503.481
 58.070    648.000    679.008    -31.008    503.543    626.265    503.543    556.277    503.543
 58.170    699.108    713.869    -14.761    503.606    645.275    503.606    572.180    503.606
 58.270    760.000    770.000    -10.000    503.669    680.499    503.669    593.139    503.669
 58.370    796.390    849.011    -52.621    503.733    733.030    503.733    619.671    503.733
 58.470    980.105    949.978     30.128    503.797    802.070    503.797    651.653    503.797
 58.570   1027.000   1067.706    -40.706    503.862    883.562    503.862    687.949    503.862
 58.670   1165.000   1192.016    -27.016    503.927    969.949    503.927    725.941    503.927
 58.770   1271.863   1308.883    -37.020    503.993   1051.798    503.993    761.035    503.993
 58.870   1413.000   1403.550      9.450    504.059   1120.815    504.059    786.768    504.059
 58.970   1450.000   1462.985    -12.985    504.126   1170.438    504.126    796.664    504.126
 59.070   1520.000   1477.809     42.191    504.193   1194.219    504.193    787.796    504.193
 59.170   1451.106   1446.499      4.607    504.261   1187.932    504.261    762.856    504.261
 59.270   1474.000   1379.021     94.979    504.329   1155.156    504.329    728.225    504.329
 59.370   1315.000   1293.974     21.026    504.397   1107.977    504.397    690.414    504.397
 59.470   1221.000   1211.188      9.812    504.466   1061.538    504.466    654.112    504.466
 59.570   1153.783   1147.653      6.130    504.536   1030.120    504.536    622.029    504.536
 59.670   1052.978   1117.853    -64.875    504.605   1027.011    504.605    595.364    504.605
 59.770   1135.000   1132.806      2.194    504.676   1063.067    504.676    574.282    504.676
 59.870   1256.000   1195.434     60.566    504.746   1141.701    504.746    558.292    504.746
 59.970   1321.973   1296.046     25.927    504.817   1254.072    504.817    546.553    504.817
 60.070   1461.000   1411.048     49.952    504.888   1377.540    504.888    538.121    504.888
 60.170   1559.000   1505.647     53.353    504.960   1478.205    504.960    532.116    504.960
 60.270   1480.084   1543.077    -62.993    505.032   1520.034    505.032    527.813    505.032
 60.370   1512.699   1501.976     10.723    505.105   1482.200    505.105    524.670    505.105
 60.470   1344.976   1389.365    -44.388    505.177   1372.084    505.177    522.311    505.177
 60.570   1279.785   1233.844     45.941    505.250   1218.516    505.250    520.490    505.250
 60.670   1088.000   1068.428     19.572    505.324   1054.654    505.324    519.051    505.324
 60.770    934.247    918.875     15.372    505.398    906.349    505.398    517.904    505.398
 60.870    848.398    799.773     48.625    505.472    788.245    505.472    516.993    505.472
 60.970    750.113    715.333     34.780    505.546    704.589    505.546    516.287    505.546
 61.070    668.000    662.820      5.180    505.621    652.670    505.621    515.765    505.621
 61.170    667.000    636.892     30.108    505.696    627.162    505.696    515.415    505.696
 61.270    669.362    633.264     36.098    505.771    623.792    505.771    515.223    505.771
 61.370    654.000    650.731      3.269    505.846    641.375    505.846    515.171    505.846
 61.470    705.000    691.345     13.655    505.922    681.987    505.922    515.232    505.922
 61.570    740.936    758.880    -17.943    505.998    749.443    505.998    515.362    505.998
 61.670    847.000    855.969     -8.969    506.074    846.443    506.074    515.499    506.074
 61.770    963.787    980.627    -16.840    506.150    971.086    506.150    515.560    506.150
 61.870   1124.000   1123.195      0.805    506.227   1113.798    506.227    515.465    506.227
 61.970   1256.751   1264.813     -8.062    506.304   1255.772    506.304    515.170    506.304
 62.070   1274.000   1378.631   -104.631    506.381   1370.147    506.381    514.692    506.381
 62.170   1451.426   1436.162     15.265    506.458   1428.377    506.458    514.094    506.458
 62.270   1388.000   1420.138    -32.138    506.536   1413.113    506.536    513.453    506.536
 62.370   1399.238   1335.266     63.971    506.613   1328.988    506.613    512.829    506.613
 62.470   1169.000   1204.861    -35.861    506.691   1199.265    506.691    512.261    506.691
 62.570   1079.000   1057.768     21.232    506.769   1052.766    506.769    511.770    506.769
 62.670    847.000    917.979    -70.979    506.847    913.477    506.847    511.361    506.847
 62.770    761.000    800.532    -39.532    506.926    796.441    506.926    511.032    506.926
 62.870    710.319    711.410     -1.092    507.004    707.652    507.004    510.776    507.004
 62.970    659.000    649.590      9.410    507.083    646.101    507.083    510.580    507.083
 63.070    575.000    610.039    -35.039    507.161    606.771    507.161    510.433    507.161
 63.170    560.000    586.552    -26.552    507.240    583.468    507.240    510.324    507.240
 63.270    600.046    573.676     26.370    507.319    570.748    507.319    510.245    507.319
 63.370    595.000    567.586     27.414    507.398    564.791    507.398    510.188    507.398
 63.470    562.014    566.215     -4.201    507.477    563.538    507.477    510.147    507.477
 63.570    575.000    569.051      5.949    507.556    566.477    507.556    510.120    507.556
 63.670    629.000    576.858     52.142    507.635    574.376    507.635    510.103    507.635
 63.770    589.422    591.400     -1.977    507.714    588.998    507.714    510.096    507.714
 63.870    633.174    615.058     18.117    507.794    612.725    507.794    510.096    507.794
 63.970    687.242    650.218     37.024    507.873    647.945    507.873    510.102    507.873
 64.070    683.731    698.373    -14.642    507.952    696.149    507.952    510.115    507.952
 64.170    782.000    759.047     22.953    508.032    756.865    508.032    510.132    508.032
 64.270    822.000    828.790     -6.790    508.111    826.645    508.111    510.155    508.111
 64.370    914.000    900.534     13.466    508.190    898.424    508.190    510.182    508.190
 64.470   1007.000    963.819     43.181    508.270    961.749    508.270    510.213    508.270
 64.570   1046.414   1006.988     39.426    508.349   1004.965    508.349    510.247    508.349
 64.670   1054.000   1021.696     32.304    508.429   1019.729    508.429    510.285    508.429
 64.770    960.701   1006.610    -45.909    508.508   1004.704    508.508    510.326    508.508
 64.870   1019.000    966.985     52.015    508.587    965.142    508.587    510.371    508.587
 64.970    866.154    911.824    -45.670    508.666    910.040    508.666    510.417    508.666
 65.070    894.000    850.921     43.079    508.746    849.190    508.746    510.467    508.746
 65.170    791.000    792.232     -1.232    508.825    790.547    508.825    510.519    508.825
 65.270    674.000    740.388    -66.388    508.904    738.739    508.904    510.573    508.904
 65.370    662.170    696.904    -34.734    508.983    695.283    508.983    510.630    508.983
 65.470    609.000    661.493    -52.493    509.062    659.892    509.062    510.688    509.062
 65.570    616.000    633.292    -17.292    509.140    631.708    509.140    510.749    509.140
 65.670    653.000    611.356     41.644    509.219    609.783    509.219    510.811    509.219
 65.770    569.998    594.724    -24.725    509.298    593.159    509.298    510.875    509.298
 65.870    590.000    582.488      7.512    509.376    580.931    509.376    510.941    509.376
 65.970    577.000    573.859      3.141    509.454    572.309    509.454    511.009    509.454
 66.070    591.539    568.175     23.364    509.533    566.631    509.533    511.078    509.533
 66.170    547.000    564.889    -17.889    509.611    563.351    509.611    511.149    509.611
 66.270    535.281    563.557    -28.276    509.689    562.023    509.689    511.222    509.689
 66.370    594.000    563.849     30.151    509.766    562.319    509.766    511.296    509.766
 66.470    554.000    565.592    -11.592    509.844    564.065    509.844    511.372    509.844
 66.570    571.431    568.836      2.595    509.921    567.309    509.921    511.449    509.921
 66.670    612.049    573.969     38.080    509.998    572.441    509.998    511.528    509.998
 66.770    584.000    581.936      2.064    510.075    580.404    510.075    511.609    510.075
 66.870    585.000    594.574     -9.574    510.152    593.036    510.152    511.691    510.152
 66.970    564.000    615.078    -51.078    510.228    613.532    510.228    511.775    510.228
 67.070    614.283    648.486    -34.203    510.305    646.928    510.305    511.860    510.305
 67.170    709.572    701.947      7.625    510.381    700.374    510.381    511.947    510.381
 67.270    818.081    784.397     33.684    510.457    782.806    510.457    512.036    510.457
 67.370    876.000    905.246    -29.246    510.532    903.637    510.532    512.127    510.532
 67.470   1044.964   1071.873    -26.908    510.608   1070.246    510.608    512.219    510.608
 67.570   1269.538   1286.171    -16.633    510.683   1284.532    510.683    512.314    510.683
 67.670   1543.000   1540.939      2.061    510.757   1539.297    510.757    512.411    510.757
 67.770   1811.000   1817.148     -6.148    510.832   1815.514    510.832    512.509    510.832
 67.870   2108.000   2083.104     24.896    510.906   2081.494    510.906    512.611    510.906
 67.970   2275.191   2296.932    -21.741    510.980   2295.357    510.980    512.714    510.980
 68.070   2456.203   2415.355     40.848    511.054   2413.819    511.054    512.821    511.054
 68.170   2418.000   2410.044      7.956    511.127   2408.534    511.127    512.930    511.127
 68.270   2215.000   2282.440    -67.440    511.200   2280.929    511.200    513.042    511.200
 68.370   2103.000   2062.866     40.134    511.273   2061.318    511.273    513.157    511.273
 68.470   1793.379   1794.959     -1.579    511.345   1793.340    511.345    513.276    511.345
 68.570   1521.000   1519.915      1.085    511.417   1518.202    511.417    513.399    511.417
 68.670   1321.000   1268.385     52.615    511.488   1266.565    511.488    513.526    511.488
 68.770   1057.000   1058.334     -1.334    511.560   1056.401    511.560    513.658    511.560
 68.870    861.000    896.077    -35.077    511.631    894.032    511.631    513.794    511.631
 68.970    775.061    779.118     -4.056    511.701    776.964    511.701    513.936    511.701
 69.070    710.000    699.791     10.209    511.771    697.532    511.771    514.085    511.771
 69.170    689.000    648.652     40.348    511.841    646.289    511.841    514.239    511.841
 69.270    646.000    616.880     29.120    511.910    614.412    511.910    514.401    511.910
 69.370    603.000    597.492      5.508    511.979    594.916    511.979    514.570    511.979
 69.470    611.464    585.603     25.861    512.047    582.911    512.047    514.749    512.047
 69.570    526.000    578.111    -52.111    512.115    575.295    512.115    514.939    512.115
 69.670    567.000    573.208     -6.208    512.183    570.257    512.183    515.140    512.183
 69.770    554.000    569.907    -15.907    512.250    566.808    512.250    515.353    512.250
 69.870    557.338    567.695    -10.357    512.317    564.434    512.317    515.581    512.317
 69.970    521.074    566.319    -45.245    512.383    562.878    512.383    515.826    512.383
 70.070    572.000    565.659      6.341    512.449    562.020    512.449    516.089    512.449
 70.170    554.000    565.681    -11.681    512.514    561.821    512.514    516.373    512.514
 70.270    518.000    566.416    -48.416    512.579    562.312    512.579    516.682    512.579
 70.370    555.000    567.987    -12.987    512.643    563.610    512.643    517.019    512.643
 70.470    554.000    570.661    -16.661    512.707    565.977    512.707    517.388    512.707
 70.570    548.000    574.955    -26.955    512.770    569.925    512.770    517.795    512.770
 70.670    603.000    581.803     21.197    512.833    576.382    512.833    518.247    512.833
 70.770    599.000    592.783      6.217    512.895    586.913    512.895    518.754    512.895
 70.870    652.000    610.370     41.630    512.957    603.981    512.957    519.328    512.957
 70.970    643.627    638.141      5.486    513.018    631.141    513.018    519.990    513.018
 71.070    673.000    680.776     -7.776    513.079    673.045    513.079    520.768    513.079
 71.170    770.000    743.691     26.309    513.139    735.059    513.139    521.710    513.139
 71.270    810.000    832.150    -22.150    513.199    822.375    513.199    522.889    513.199
 71.370    903.173    949.813    -46.640    513.258    938.544    513.258    524.414    513.258
 71.470   1129.000   1096.957     32.043    513.316   1083.677    513.316    526.453    513.316
 71.570   1313.081   1268.734     44.347    513.374   1252.697    513.374    529.239    513.374
 71.670   1458.948   1453.941      5.007    513.431   1434.090    513.431    533.087    513.431
 71.770   1656.000   1634.713     21.287    513.488   1609.603    513.488    538.391    513.488
 71.870   1822.000   1787.723     34.277    513.544   1755.462    513.544    545.603    513.544
 71.970   1907.831   1888.159     19.672    513.599   1846.395    513.599    555.183    513.599
 72.070   1825.000   1917.481    -92.481    513.654   1863.462    513.654    567.527    513.654
 72.170   1903.559   1871.935     31.624    513.709   1802.677    513.709    582.860    513.709
 72.270   1834.000   1764.659     69.341    513.762   1677.231    513.762    601.119    513.762
 72.370   1624.709   1618.966      5.743    513.815   1510.905    513.815    621.834    513.815
 72.470   1454.000   1459.116     -5.116    513.867   1328.948    513.867    644.013    513.867
 72.570   1290.888   1304.427    -13.539    513.919   1152.294    513.919    666.041    513.919
 72.670   1094.000   1167.053    -73.053    513.970    995.374    513.970    685.643    513.970
 72.770   1027.000   1051.978    -24.978    514.020    865.906    514.020    700.085    514.020
 72.870    923.000    958.564    -35.564    514.070    765.803    514.070    706.823    514.070
 72.970    851.000    883.153    -32.153    514.119    692.761    514.119    704.503    514.119
 73.070    763.000    821.572    -58.572    514.167    642.099    514.167    693.631    514.167
 73.170    731.000    770.497    -39.497    514.215    608.401    514.215    676.302    514.215
 73.270    753.825    727.659     26.166    514.262    586.658    514.262    655.255    514.262
 73.370    655.000    691.586    -36.586    514.308    572.865    514.308    633.023    514.308
 73.470    661.000    661.356     -0.356    514.353    564.163    514.353    611.542    514.353
 73.570    594.898    636.399    -41.501    514.398    558.697    514.398    592.098    514.398
 73.670    638.110    616.333     21.777    514.442    555.372    514.442    575.405    514.442
 73.770    592.000    600.807     -8.807    514.485    553.588    514.485    561.709    514.485
 73.870    602.000    589.407     12.593    514.528    553.033    514.528    550.911    514.528
 73.970    560.789    581.623    -20.833    514.569    553.518    514.569    542.687    514.569
 74.070    601.630    576.841     24.790    514.610    554.872    514.610    536.597    514.610
 74.170    627.000    574.374     52.626    514.651    556.871    514.651    532.178    514.651
 74.270    636.000    573.482     62.518    514.690    559.198    514.690    529.005    514.690
 74.370    611.000    573.400     37.600    514.729    561.442    514.729    526.723    514.729
 74.470    598.937    573.376     25.562    514.767    563.124    514.767    525.060    514.767
 74.570    662.000    572.754     89.246    514.804    563.784    514.804    523.818    514.804
 74.670    624.000    571.113     52.887    514.840    563.136    514.840    522.862    514.840
 74.770    588.000    568.374     19.626    514.876    561.192    514.876    522.100    514.876
 74.870    533.201    564.794    -31.593    514.911    558.267    514.911    521.476    514.911
 74.970    600.555    560.827     39.728    514.945    554.853    514.945    520.952    514.945
 75.070    603.000    556.992     46.008    514.978    551.492    514.978    520.504    514.978
 75.170    593.000    553.793     39.207    515.010    548.707    515.010    520.116    515.010
 75.270    560.000    551.713      8.287    515.042    546.991    515.042    519.777    515.042
 75.370    566.000    551.230     14.770    515.072    546.831    515.072    519.479    515.072
 75.470    591.000    552.834     38.166    515.102    548.723    515.102    519.215    515.102
 75.570    559.340    557.040      2.300    515.131    553.186    515.131    518.981    515.131
 75.670    598.163    564.353     33.810    515.159    560.729    515.159    518.773    515.159
 75.770    590.978    575.190     15.789    515.186    571.772    515.186    518.587    515.186
 75.870    591.000    589.745      1.255    515.213    586.513    515.213    518.420    515.213
 75.970    628.000    607.836     20.164    515.238    604.771    515.238    518.270    515.238
 76.070    606.472    628.746    -22.274    515.263    625.832    515.263    518.135    515.263
 76.170    653.000    651.128      1.872    515.287    648.352    515.287    518.013    515.287
 76.270    644.815    672.978    -28.163    515.310    670.328    515.310    517.902    515.310
 76.370    661.000    691.732    -30.732    515.332    689.200    515.332    517.801    515.332
 76.470    769.000    704.588     64.412    515.353    702.167    515.353    517.710    515.353
 76.570    688.565    709.202    -20.637    515.373    706.887    515.373    517.626    515.373
 76.670    675.000    704.595    -29.595    515.392    702.382    515.392    517.550    515.392
 76.770    696.371    691.629      4.742    515.411    689.512    515.411    517.479    515.411
 76.870    635.947    672.574    -36.627    515.428    670.549    515.428    517.415    515.428
 76.970    629.000    650.210    -21.210    515.445    648.269    515.445    517.355    515.445
 77.070    609.525    627.107    -17.582    515.460    625.245    515.460    517.300    515.460
 77.170    572.844    605.278    -32.435    515.475    603.489    515.475    517.249    515.475
 77.270    576.905    586.070     -9.165    515.489    584.346    515.489    517.201    515.489
 77.370    482.000    570.171    -88.171    515.501    568.509    515.501    517.157    515.501
 77.470    507.000    557.715    -50.715    515.513    556.108    515.513    517.115    515.513
 77.570    552.727    548.424      4.303    515.524    546.869    515.524    517.076    515.524
 77.670    535.000    541.791     -6.791    515.534    540.283    515.534    517.039    515.534
 77.770    557.053    537.222     19.830    515.543    535.759    515.543    517.005    515.543
 77.870    571.330    534.159     37.171    515.551    532.737    515.551    516.972    515.551
 77.970    495.143    532.135    -36.992    515.558    530.752    515.558    516.940    515.558
 78.070    525.573    530.797     -5.224    515.564    529.449    515.564    516.911    515.564
 78.170    528.320    529.900     -1.580    515.569    528.586    515.569    516.882    515.569
 78.270    521.000    529.286     -8.286    515.573    528.003    515.573    516.855    515.573
 78.370    524.542    528.857     -4.315    515.576    527.604    515.576    516.828    515.576
 78.470    528.000    528.544     -0.544    515.578    527.319    515.578    516.803    515.578
 78.570    506.252    528.337    -22.085    515.579    527.137    515.579    516.779    515.579
 78.670    469.000    528.261    -59.261    515.579    527.084    515.579    516.755    515.579
 78.770    494.000    528.301    -34.301    515.578    527.146    515.578    516.733    515.578
 78.870    503.000    528.472    -25.472    515.577    527.336    515.577    516.712    515.577
 78.970    497.000    528.796    -31.796    515.574    527.677    515.574    516.692    515.574
 79.070    515.127    529.304    -14.178    515.570    528.199    515.570    516.673    515.570
 79.170    572.302    530.027     42.275    515.565    528.932    515.565    516.657    515.565
 79.270    535.000    530.991      4.009    515.559    529.904    515.559    516.644    515.559
 79.370    513.000    532.224    -19.224    515.551    531.140    515.551    516.633    515.551
 79.470    539.000    533.754      5.246    515.543    532.667    515.543    516.627    515.543
 79.570    528.995    535.617     -6.622    515.534    534.522    515.534    516.625    515.534
 79.670    498.000    537.866    -39.866    515.524    536.756    515.524    516.629    515.524
 79.770    505.000    540.591    -35.591    515.513    539.460    515.513    516.638    515.513
 79.870    583.700    543.937     39.763    515.501    542.779    515.501    516.653    515.501
 79.970    549.993    548.129      1.864    515.487    546.937    515.487    516.674    515.487
 80.070    559.000    553.494      5.506    515.473    552.263    515.473    516.700    515.473
 80.170    583.000    560.458     22.542    515.457    559.185    515.457    516.728    515.457
 80.270    598.856    569.499     29.356    515.441    568.182    515.441    516.758    515.441
 80.370    560.000    581.051    -21.051    515.423    579.693    515.423    516.784    515.423
 80.470    590.000    595.387     -5.387    515.404    593.995    515.404    516.803    515.404
 80.570    610.272    612.518     -2.246    515.385    611.104    515.385    516.809    515.385
 80.670    594.000    632.104    -38.104    515.364    630.684    515.364    516.799    515.364
 80.770    662.615    653.418      9.197    515.342    652.012    515.342    516.768    515.342
 80.870    685.000    675.364      9.636    515.319    673.992    515.319    516.718    515.319
 80.970    680.000    696.597    -16.597    515.295    695.276    515.295    516.650    515.295
 81.070    721.000    715.715      5.285    515.270    714.456    515.270    516.570    515.270
 81.170    743.000    731.443     11.557    515.243    730.253    515.243    516.482    515.243
 81.270    704.793    742.752    -37.959    515.216    741.632    515.216    516.390    515.216
 81.370    785.342    748.935     36.407    515.188    747.883    515.188    516.299    515.188
 81.470    731.000    749.686    -18.686    515.158    748.697    515.158    516.211    515.158
 81.570    754.621    745.115      9.506    515.127    744.183    515.127    516.127    515.127
 81.670    743.777    735.704      8.073    515.096    734.821    515.096    516.048    515.096
 81.770    740.000    722.283     17.717    515.063    721.440    515.063    515.975    515.063
 81.870    721.000    705.994     15.006    515.029    705.185    515.029    515.907    515.029
 81.970    701.000    688.139     12.861    514.994    687.356    514.994    515.843    514.994
 82.070    696.552    669.907     26.644    514.957    669.144    514.957    515.784    514.957
 82.170    668.000    652.159     15.841    514.920    651.411    514.920    515.728    514.920
 82.270    663.000    635.376     27.624    514.882    634.639    514.882    515.675    514.882
 82.370    636.000    619.768     16.232    514.842    619.038    514.842    515.623    514.842
 82.470    598.000    605.438     -7.438    514.801    604.713    514.801    515.572    514.801
 82.570    566.537    592.510    -25.973    514.760    591.787    514.760    515.522    514.760
 82.670    574.619    581.148     -6.528    514.717    580.425    514.717    515.472    514.717
 82.770    545.000    571.526    -26.526    514.672    570.802    514.672    515.423    514.672
 82.870    570.000    563.794      6.206    514.627    563.067    514.627    515.373    514.627
 82.970    572.000    558.057     13.943    514.581    557.328    514.581    515.322    514.581
 83.070    595.000    554.371     40.629    514.533    553.638    514.533    515.271    514.533
 83.170    587.528    552.720     34.808    514.485    551.982    514.485    515.220    514.485
 83.270    536.000    552.999    -16.999    514.435    552.257    514.435    515.167    514.435
 83.370    501.000    554.999    -53.999    514.384    554.252    514.384    515.114    514.384
 83.470    519.585    558.392    -38.807    514.332    557.639    514.332    515.061    514.332
 83.570    554.000    562.734     -8.734    514.279    561.976    514.279    515.006    514.279
 83.670    546.000    567.476    -21.476    514.225    566.713    514.225    514.951    514.225
 83.770    572.000    571.992      0.008    514.169    571.226    514.169    514.894    514.169
 83.870    546.000    575.628    -29.628    514.113    574.859    514.113    514.837    514.113
 83.970    576.000    577.782     -1.782    514.055    577.013    514.055    514.779    514.055
 84.070    545.338    578.036    -32.697    513.996    577.267    513.996    514.721    513.996
 84.170    565.000    576.261    -11.261    513.936    575.494    513.936    514.661    513.936
 84.270    584.000    572.653     11.347    513.875    571.890    513.875    514.600    513.875
 84.370    611.782    567.649     44.133    513.812    566.890    513.812    514.539    513.812
 84.470    605.764    561.795     43.970    513.749    561.039    513.749    514.477    513.749
 84.570    581.000    555.626     25.374    513.684    554.873    513.684    514.414    513.684
 84.670    573.625    549.603     24.023    513.618    548.853    513.618    514.350    513.618
 84.770    571.389    544.073     27.316    513.551    543.325    513.551    514.285    513.551
 84.870    567.000    539.262     27.738    513.483    538.515    513.483    514.219    513.483
 84.970    548.000    535.282     12.718    513.414    534.535    513.414    514.152    513.414
 85.070    538.328    532.143      6.185    513.344    531.395    513.344    514.085    513.344
 85.170    524.021    529.787     -5.766    513.272    529.038    513.272    514.016    513.272
 85.270    551.000    528.117     22.883    513.199    527.364    513.199    513.947    513.199
 85.370    536.000    527.020      8.980    513.126    526.264    513.126    513.876    513.126
 85.470    541.486    526.394     15.092    513.051    525.635    513.051    513.805    513.051
 85.570    502.727    526.163    -23.437    512.974    525.400    512.974    513.733    512.974
 85.670    528.000    526.285      1.715    512.897    525.516    512.897    513.661    512.897
 85.770    519.139    526.758     -7.618    512.819    525.983    512.819    513.587    512.819
 85.870    510.518    527.622    -17.104    512.739    526.841    512.739    513.512    512.739
 85.970    500.000    528.963    -28.963    512.658    528.175    512.658    513.437    512.658
 86.070    512.000    530.907    -18.907    512.577    530.110    512.577    513.361    512.577
 86.170    518.369    533.613    -15.244    512.494    532.807    512.494    513.284    512.494
 86.270    506.063    537.264    -31.201    512.409    536.447    512.409    513.206    512.409
 86.370    567.117    542.045     25.072    512.324    541.215    512.324    513.127    512.324
 86.470    541.000    548.113     -7.113    512.238    547.269    512.238    513.048    512.238
 86.570    598.000    555.564     42.436    512.150    554.703    512.150    512.968    512.150
 86.670    554.736    564.392     -9.656    512.061    563.513    512.061    512.887    512.061
 86.770    557.911    574.451    -16.541    511.971    573.553    511.971    512.805    511.971
 86.870    539.474    585.426    -45.952    511.880    584.506    511.880    512.723    511.880
 86.970    608.000    596.815     11.185    511.788    595.875    511.788    512.640    511.788
 87.070    617.000    607.936      9.064    511.695    606.976    511.695    512.556    511.695
 87.170    635.441    617.957     17.483    511.601    616.978    511.601    512.471    511.601
 87.270    665.769    625.969     39.799    511.505    624.974    511.505    512.386    511.505
 87.370    657.948    631.130     26.818    511.408    630.123    511.408    512.300    511.408
 87.470    624.724    632.861     -8.136    511.311    631.844    511.311    512.214    511.311
 87.570    668.000    631.012     36.988    511.212    629.990    511.212    512.127    511.212
 87.670    652.000    625.906     26.094    511.112    624.882    511.112    512.040    511.112
 87.770    622.000    618.266      3.734    511.010    617.241    511.010    511.952    511.010
 87.870    624.000    609.006     14.994    510.908    607.980    510.908    511.864    510.908
 87.970    633.000    599.074     33.926    510.805    598.046    510.805    511.775    510.805
 88.070    640.000    589.372     50.628    510.700    588.342    510.700    511.686    510.700
 88.170    603.000    580.681     22.319    510.595    579.647    510.595    511.597    510.595
 88.270    584.000    573.618     10.382    510.488    572.578    510.488    511.507    510.488
 88.370    558.000    568.608    -10.608    510.380    567.559    510.380    511.417    510.380
 88.470    596.234    565.879     30.355    510.271    564.820    510.271    511.327    510.271
 88.570    582.000    565.464     16.536    510.161    564.393    510.161    511.237    510.161
 88.670    571.000    567.214      3.786    510.050    566.130    510.050    511.147    510.050
 88.770    543.524    570.816    -27.292    509.938    569.718    509.938    511.057    509.938
 88.870    625.000    575.813     49.187    509.824    574.698    509.824    510.968    509.824
 88.970    574.712    581.629     -6.917    509.710    580.497    509.710    510.878    509.710
 89.070    611.187    587.598     23.589    509.594    586.447    509.594    510.789    509.594
 89.170    609.558    593.004     16.555    509.478    591.831    509.478    510.701    509.478
 89.270    589.000    597.139     -8.139    509.360    595.943    509.360    510.613    509.360
 89.370    583.374    599.398    -16.024    509.241    598.174    509.241    510.526    509.241
 89.470    604.209    599.392      4.818    509.122    598.137    509.122    510.440    509.122
 89.570    592.998    597.037     -4.039    509.001    595.746    509.001    510.355    509.001
 89.670    581.737    592.563    -10.826    508.879    591.232    508.879    510.272    508.879
 89.770    571.000    586.432    -15.432    508.756    585.055    508.756    510.190    508.756
 89.870    599.427    579.215     20.212    508.632    577.789    508.632    510.110    508.632
 89.970    557.114    571.488    -14.374    508.507    570.008    508.507    510.032    508.507
 90.070    541.125    563.766    -22.640    508.381    562.228    508.381    509.957    508.381
 90.170    530.000    556.461    -26.461    508.253    554.862    508.253    509.885    508.253
 90.270    577.437    549.876     27.561    508.125    548.210    508.125    509.817    508.125
 90.370    549.000    544.193      4.807    507.996    542.457    507.996    509.752    507.996
 90.470    516.000    539.494    -23.494    507.866    537.682    507.866    509.693    507.866
 90.570    511.000    535.772    -24.772    507.734    533.877    507.734    509.641    507.734
 90.670    565.232    532.959     32.273    507.602    530.973    507.602    509.596    507.602
 90.770    503.000    530.951    -27.951    507.469    528.864    507.469    509.560    507.469
 90.870    495.000    529.633    -34.633    507.334    527.433    507.334    509.538    507.334
 90.970    556.806    528.899     27.907    507.199    526.568    507.199    509.531    507.199
 91.070    524.707    528.664     -3.957    507.063    526.181    507.063    509.546    507.063
 91.170    524.000    528.881     -4.881    506.925    526.217    506.925    509.588    506.925
 91.270    511.000    529.538    -18.538    506.787    526.656    506.787    509.667    506.787
 91.370    496.314    530.670    -34.356    506.648    527.522    506.648    509.793    506.648
 91.470    508.000    532.353    -24.353    506.507    528.877    506.507    509.979    506.507
 91.570    532.000    534.676     -2.676    506.366    530.795    506.366    510.242    506.366
 91.670    514.134    537.876    -23.742    506.224    533.493    506.224    510.599    506.224
 91.770    555.281    542.149     13.132    506.081    537.146    506.081    511.074    506.081
 91.870    504.819    547.713    -42.894    505.936    541.946    505.936    511.690    505.936
 91.970    556.000    554.814      1.186    505.791    548.118    505.791    512.470    505.791
 92.070    606.959    563.682     43.276    505.645    555.869    505.645    513.437    505.645
 92.170    545.000    574.513    -29.513    505.498    565.372    505.498    514.612    505.498
 92.270    619.000    587.434     31.566    505.351    576.743    505.351    516.009    505.351
 92.370    609.000    602.480      6.520    505.202    590.009    505.202    517.634    505.202
 92.470    636.000    619.564     16.436    505.052    605.085    505.052    519.485    505.052
 92.570    610.000    638.453    -28.453    504.901    621.757    504.901    521.543    504.901
 92.670    638.000    658.760    -20.760    504.750    639.672    504.750    523.777    504.750
 92.770    737.000    679.937     57.063    504.597    658.332    504.597    526.136    504.597
 92.870    724.788    701.296     23.492    504.444    677.122    504.444    528.546    504.444
 92.970    767.000    722.058     44.942    504.290    695.359    504.290    530.912    504.290
 93.070    720.378    741.452    -21.075    504.135    712.393    504.135    533.115    504.135
 93.170    786.811    758.851     27.961    503.979    727.736    503.979    535.014    503.979
 93.270    778.000    773.870      4.130    503.822    741.152    503.822    536.461    503.822
 93.370    840.850    786.423     54.427    503.665    752.691    503.665    537.318    503.665
 93.470    840.000    796.666     43.334    503.506    762.607    503.506    537.488    503.506
 93.570    804.698    804.903     -0.205    503.347    771.235    503.347    536.941    503.347
 93.670    841.000    811.538     29.462    503.187    778.936    503.187    535.717    503.187
 93.770    814.977    817.056     -2.079    503.026    786.092    503.026    533.921    503.026
 93.870    892.000    822.035     69.965    502.864    793.139    502.864    531.694    502.864
 93.970    848.000    827.135     20.865    502.701    800.589    502.701    529.184    502.701
 94.070    845.000    833.007     11.993    502.538    808.955    502.538    526.530    502.538
 94.170    820.330    840.128    -19.799    502.374    818.596    502.374    523.847    502.374
 94.270    924.000    848.633     75.367    502.209    829.557    502.209    521.229    502.209
 94.370    879.000    858.207     20.793    502.043    841.452    502.043    518.745    502.043
 94.470    896.000    868.058     27.942    501.877    853.443    501.877    516.442    501.877
 94.570    875.000    876.981     -1.981    501.710    864.293    501.710    514.352    501.710
 94.670    944.000    883.489     60.511    501.542    872.502    501.542    512.490    501.542
 94.770    827.494    886.035    -58.540    501.373    876.519    501.373    510.857    501.373
 94.870    911.000    883.301     27.699    501.204    875.036    501.204    509.446    501.204
 94.970    885.619    874.515     11.103    501.034    867.293    501.034    508.241    501.034
 95.070    947.000    859.658     87.342    500.863    853.293    500.863    507.222    500.863
 95.170    837.129    839.485     -2.356    500.691    833.812    500.691    506.365    500.691
 95.270    801.000    815.361    -14.361    500.519    810.239    500.519    505.647    500.519
 95.370    811.000    789.019     21.981    500.346    784.330    500.346    505.045    500.346
 95.470    818.000    762.331     55.669    500.173    757.978    500.173    504.538    500.173
 95.570    770.747    737.163     33.584    499.998    733.065    499.998    504.107    499.998
 95.670    727.000    715.267     11.733    499.824    711.362    499.824    503.737    499.824
 95.770    714.000    698.230     15.770    499.648    694.468    499.648    503.416    499.648
 95.870    735.000    687.435     47.565    499.472    683.775    499.472    503.131    499.472
 95.970    723.600    684.107     39.493    499.295    680.519    499.295    502.877    499.295
 96.070    734.000    689.238     44.762    499.118    685.694    499.118    502.647    499.118
 96.170    728.724    703.617     25.107    498.940    700.097    498.940    502.435    498.940
 96.270    689.540    727.819    -38.279    498.762    724.306    498.762    502.240    498.762
 96.370    766.000    762.160      3.840    498.583    758.638    498.583    502.059    498.583
 96.470    834.000    806.619     27.381    498.403    803.076    498.403    501.890    498.403
 96.570    909.424    860.757     48.668    498.223    857.180    498.223    501.732    498.223
 96.670    920.000    923.610     -3.610    498.042    919.990    498.042    501.584    498.042
 96.770    983.000    993.615    -10.615    497.861    989.942    497.861    501.446    497.861
 96.870   1066.000   1068.545     -2.545    497.679   1064.812    497.679    501.318    497.679
 96.970   1091.000   1145.501    -54.501    497.497   1141.701    497.497    501.199    497.497
 97.070   1199.000   1220.951    -21.951    497.314   1217.076    497.314    501.090    497.314
 97.170   1272.000   1290.845    -18.845    497.131   1286.889    497.131    500.993    497.131
 97.270   1388.000   1350.851     37.149    496.948   1346.807    496.948    500.907    496.948
 97.370   1414.000   1396.774     17.226    496.763   1392.634    496.763    500.833    496.763
 97.470   1411.000   1425.142    -14.142    496.579   1420.896    496.579    500.772    496.579
 97.570   1469.000   1433.822     35.178    496.394   1429.460    496.394    500.724    496.394
 97.670   1497.000   1422.466     74.534    496.209   1417.973    496.209    500.691    496.209
 97.770   1413.000   1392.521     20.479    496.023   1387.877    496.023    500.676    496.023
 97.870   1401.000   1346.853     54.147    495.837   1342.037    495.837    500.680    495.837
 97.970   1297.966   1289.188      8.778    495.650   1284.172    495.650    500.708    495.650
 98.070   1180.000   1223.590    -43.590    495.463   1218.342    495.463    500.762    495.463
 98.170   1151.000   1154.096     -3.096    495.276   1148.578    495.276    500.851    495.276
 98.270   1154.000   1084.475     69.525    495.088   1078.641    495.088    500.981    495.088
 98.370    988.403   1018.089    -29.686    494.900   1011.884    494.900    501.162    494.900
 98.470    973.459    957.817     15.643    494.712    951.171    494.712    501.409    494.712
 98.570    959.000    906.032     52.968    494.523    898.860    494.523    501.740    494.523
 98.670    846.000    864.620    -18.620    494.334    856.814    494.334    502.177    494.334
 98.770    861.000    835.024     25.976    494.145    826.448    494.145    502.749    494.145
 98.870    778.431    818.311    -39.880    493.956    808.793    493.956    503.492    493.956
 98.970    810.000    815.240     -5.240    493.766    804.566    493.766    504.448    493.766
 99.070    807.095    826.320    -19.226    493.576    814.228    493.576    505.668    493.576
 99.170    847.000    851.846     -4.846    493.386    838.014    493.386    507.209    493.386
 99.270    890.149    891.888     -1.738    493.196    875.932    493.196    509.136    493.196
 99.370    963.000    946.260     16.740    493.006    927.727    493.006    511.518    493.006
 99.470    973.000   1014.445    -41.445    492.815    992.812    492.815    514.426    492.815
 99.570   1165.000   1095.501     69.499    492.624   1070.176    492.624    517.928    492.624
 99.670   1223.956   1188.014     35.942    492.433   1158.345    492.433    522.085    492.433
 99.770   1314.000   1289.959     24.041    492.242   1255.243    492.242    526.948    492.242
 99.870   1430.000   1398.655     31.345    492.051   1358.160    492.051    532.546    492.051
 99.970   1512.000   1510.767      1.233    491.860   1463.757    491.860    538.886    491.860
100.070   1624.644   1622.382      2.262    491.669   1568.145    491.669    545.941    491.669
100.170   1717.000   1729.194    -12.194    491.477   1667.082    491.477    553.646    491.477
100.270   1773.000   1826.832    -53.832    491.286   1756.305    491.286    561.895    491.286
100.370   1982.000   1911.245     70.755    491.094   1831.916    491.094    570.532    491.094
100.470   2005.986   1979.039     26.947    490.903   1890.729    490.903    579.347    490.903
100.570   2110.000   2027.624     82.376    490.711   1930.419    490.711    588.075    490.711
100.670   2130.000   2055.204     74.796    490.520   1949.512    490.520    596.392    490.520
100.770   1989.000   2060.736    -71.736    490.329   1947.337    490.329    603.924    490.329
100.870   2017.000   2044.016    -27.016    490.137   1924.101    490.137    610.262    490.137
100.970   2025.000   2005.928     19.072    489.946   1881.088    489.946    615.003    489.946
101.070   1927.000   1948.668    -21.668    489.755   1820.846    489.755    617.796    489.755
101.170   1911.000   1875.754     35.246    489.564   1747.122    489.564    618.412    489.564
101.270   1743.000   1791.705    -48.705    489.373   1664.501    489.373    616.785    489.373
101.370   1646.878   1701.502    -54.623    489.182   1577.850    489.182    613.031    489.182
101.470   1649.000   1610.013     38.987    488.991   1491.768    488.991    607.420    488.991
101.570   1558.829   1521.540     37.289    488.800   1410.183    488.800    600.325    488.800
101.670   1373.000   1439.516    -66.516    488.610   1336.121    488.610    592.157    488.610
101.770   1383.200   1366.369     16.832    488.420   1271.608    488.420    583.316    488.420
101.870   1264.000   1303.475    -39.475    488.230   1217.661    488.230    574.165    488.230
101.970   1229.000   1251.200    -22.200    488.040   1174.337    488.040    565.011    488.040
102.070   1202.000   1208.984     -6.984    487.851   1140.831    487.851    556.102    487.851
102.170   1159.000   1175.476    -16.476    487.662   1115.596    487.662    547.632    487.662
102.270   1157.000   1148.704      8.296    487.473   1096.520    487.473    539.742    487.473
102.370   1160.126   1126.288     33.838    487.284   1081.129    487.284    532.527    487.284
102.470   1052.000   1105.709    -53.709    487.096   1066.850    487.096    526.038    487.096
102.570   1090.000   1084.612      5.388    486.908   1051.311    486.908    520.292    486.908
102.670   1045.000   1061.112    -16.112    486.721   1032.641    486.721    515.277    486.721
102.770    995.000   1034.019    -39.019    486.534   1009.683    486.534    510.954    486.534
102.870   1027.961   1002.913     25.048    486.347    982.074    486.347    507.271    486.347
102.970    891.000    968.065    -77.065    486.161    950.147    486.161    504.164    486.161
103.070    922.397    930.244     -7.847    485.975    914.740    485.975    501.561    485.975
103.170    879.766    890.502    -10.736    485.790    876.975    485.790    499.394    485.790
103.270    805.000    849.993    -44.993    485.605    838.077    485.605    497.594    485.605
103.370    878.000    809.850     68.150    485.421    799.239    485.421    496.099    485.421
103.470    821.000    771.095     49.905    485.237    761.540    485.237    494.852    485.237
103.570    747.000    734.586     12.414    485.054    725.886    485.054    493.806    485.054
103.670    717.242    700.985     16.257    484.871    692.982    484.871    492.921    484.871
103.770    658.000    670.745    -12.745    484.689    663.312    484.689    492.162    484.689
103.870    606.441    644.110    -37.669    484.508    637.148    484.508    491.502    484.508
103.970    611.000    621.133    -10.133    484.327    614.565    484.327    490.921    484.327
104.070    604.000    601.706      2.294    484.147    595.473    484.147    490.402    484.147
104.170    574.000    585.599    -11.599    483.967    579.652    483.967    489.932    483.967
104.270    548.000    572.495    -24.495    483.788    566.796    483.788    489.502    483.788
104.370    558.000    562.036     -4.036    483.610    556.553    483.610    489.103    483.610
104.470    535.680    553.850    -18.169    483.433    548.559    483.433    488.731    483.433
104.570    570.000    547.576     22.424    483.256    542.455    483.256    488.382    483.256
104.670    571.000    542.882     28.118    483.080    537.914    483.080    488.051    483.080
104.770    554.000    539.504     14.496    482.906    534.672    482.906    487.738    482.906
104.870    535.000    537.209     -2.209    482.731    532.500    482.731    487.440    482.731
104.970    544.000    535.825      8.175    482.558    531.226    482.558    487.155    482.558
105.070    530.393    535.232     -4.839    482.386    530.732    482.386    486.883    482.386
105.170    496.884    535.362    -38.477    482.214    530.949    482.214    486.622    482.214
105.270    578.000    536.188     41.812    482.043    531.854    482.043    486.371    482.043
105.370    524.000    537.727    -13.727    481.874    533.462    481.874    486.130    481.874
105.470    537.211    540.026     -2.815    481.705    535.823    481.705    485.899    481.705
105.570    523.194    543.162    -19.967    481.537    539.011    481.537    485.676    481.537
105.670    554.000    547.224      6.776    481.371    543.119    481.371    485.462    481.371
105.770    590.000    552.308     37.692    481.205    548.242    481.205    485.255    481.205
105.870    552.162    558.500     -6.338    481.040    554.466    481.040    485.056    481.040
105.970    546.000    565.861    -19.861    480.877    561.852    480.877    484.864    480.877
106.070    589.000    574.413     14.587    480.714    570.423    480.714    484.679    480.714
106.170    591.000    584.131      6.869    480.553    580.154    480.553    484.501    480.553
106.270    549.000    594.927    -45.927    480.393    590.959    480.393    484.330    480.393
106.370    658.000    606.652     51.348    480.234    602.686    480.234    484.165    480.234
106.470    612.984    619.088     -6.103    480.076    615.120    480.076    484.006    480.076
106.570    645.000    631.953     13.047    479.920    627.979    479.920    483.853    479.920
106.670    648.650    644.907      3.743    479.764    640.922    479.764    483.707    479.764
106.770    620.836    657.564    -36.729    479.610    653.564    479.610    483.567    479.610
106.870    688.794    669.505     19.288    479.458    665.486    479.458    483.432    479.458
106.970    725.910    680.309     45.601    479.306    676.267    479.306    483.304    479.306
107.070    684.000    689.590     -5.590    479.156    685.521    479.156    483.182    479.156
107.170    659.000    697.039    -38.039    479.008    692.939    479.008    483.066    479.008
107.270    696.000    702.482     -6.482    478.860    698.347    478.860    482.956    478.860
107.370    722.370    705.911     16.459    478.715    701.738    478.715    482.852    478.715
107.470    744.865    707.501     37.364    478.570    703.285    478.570    482.755    478.570
107.570    711.000    707.573      3.427    478.427    703.309    478.427    482.664    478.427
107.670    729.533    706.548     22.985    478.286    702.232    478.286    482.579    478.286
107.770    694.406    704.879    -10.474    478.146    700.505    478.146    482.501    478.146
107.870    650.000    702.992    -52.992    478.008    698.555    478.008    482.430    478.008
107.970    645.000    701.244    -56.244    477.871    696.739    477.871    482.366    477.871
108.070    700.000    699.896      0.104    477.736    695.316    477.736    482.310    477.736
108.170    660.000    699.089    -39.089    477.603    694.429    477.603    482.260    477.603
108.270    707.766    698.842      8.924    477.471    694.096    477.471    482.219    477.471
108.370    671.000    699.051    -28.051    477.341    694.211    477.341    482.185    477.341
108.470    648.000    699.494    -51.494    477.213    694.555    477.213    482.160    477.213
108.570    715.878    699.854     16.024    477.087    694.809    477.087    482.143    477.087
108.670    700.000    699.747      0.253    476.962    694.588    476.962    482.135    476.962
108.770    673.119    698.767    -25.648    476.839    693.486    476.839    482.137    476.839
108.870    660.061    696.538    -36.477    476.718    691.127    476.718    482.148    476.718
108.970    665.000    692.776    -27.776    476.599    687.226    476.599    482.170    476.599
109.070    726.000    687.328     38.672    476.481    681.629    476.481    482.203    476.481
109.170    674.000    680.196     -6.196    476.366    674.339    476.366    482.246    476.366
109.270    695.081    671.520     23.561    476.253    665.498    476.253    482.298    476.253
109.370    643.000    661.564    -18.564    476.141    655.362    476.141    482.367    476.141
109.470    661.000    650.647     10.353    476.032    644.252    476.032    482.450    476.032
109.570    657.000    639.122     17.878    475.924    632.522    475.924    482.547    475.924
109.670    577.000    627.340    -50.340    475.819    620.520    475.819    482.659    475.819
109.770    616.000    615.630      0.370    475.716    608.576    475.716    482.789    475.716
109.870    620.000    604.286     15.714    475.615    596.982    475.615    482.936    475.615
109.970    624.000    593.559     30.441    475.516    585.987    475.516    483.103    475.516
110.070    558.877    583.647    -24.770    475.419    575.788    475.419    483.291    475.419
110.170    593.311    574.676     18.635    475.325    566.508    475.325    483.503    475.325
110.270    526.387    566.772    -40.385    475.232    558.271    475.232    483.741    475.232
110.370    561.000    559.997      1.003    475.142    551.144    475.142    484.002    475.142
110.470    571.000    554.353     16.647    475.055    545.109    475.055    484.303    475.055
110.570    552.000    549.803      2.197    474.970    540.130    474.970    484.645    474.970
110.670    591.000    546.291     44.709    474.887    536.146    474.887    485.033    474.887
110.770    566.579    543.743     22.836    474.806    533.074    474.806    485.475    474.806
110.870    570.149    542.075     28.074    474.728    530.820    474.728    485.981    474.728
110.970    570.969    541.197     29.772    474.653    529.283    474.653    486.564    474.653
111.070    525.000    541.025    -16.025    474.580    528.362    474.580    487.239    474.580
111.170    554.477    541.482     12.995    474.509    527.960    474.509    488.025    474.509
111.270    569.000    542.500     26.500    474.441    527.989    474.441    488.946    474.441
111.370    536.000    544.029     -8.029    474.376    528.369    474.376    490.029    474.376
111.470    566.000    546.030     19.970    474.313    529.029    474.313    491.307    474.313
111.570    510.086    548.485    -38.399    474.253    529.912    474.253    492.818    474.253
111.670    561.000    551.390      9.610    474.196    530.968    474.196    494.610    474.196
111.770    574.000    554.761     19.239    474.141    532.160    474.141    496.732    474.141
111.870    600.503    558.628     41.875    474.089    533.464    474.089    499.244    474.089
111.970    594.392    563.043     31.349    474.040    534.864    474.040    502.209    474.040
112.070    577.000    568.070      8.930    473.994    536.356    473.994    505.698    473.994
112.170    575.000    573.791      1.209    473.951    537.946    473.951    509.785    473.951
112.270    590.625    580.299     10.326    473.911    539.650    473.911    514.548    473.911
112.370    560.045    587.694    -27.650    473.873    541.493    473.873    520.063    473.873
112.470    562.419    596.086    -33.667    473.839    543.506    473.839    526.407    473.839
112.570    559.000    605.586    -46.586    473.807    545.732    473.807    533.649    473.807
112.670    569.000    616.307    -47.307    473.779    548.223    473.779    541.850    473.779
112.770    600.104    628.364    -28.261    473.753    551.046    473.753    551.058    473.753
112.870    647.000    641.872      5.128    473.731    554.286    473.731    561.302    473.731
112.970    630.504    656.948    -26.444    473.712    558.054    473.712    572.590    473.712
113.070    635.230    673.720    -38.490    473.696    562.493    473.696    584.905    473.696
113.170    655.000    692.326    -37.326    473.683    567.794    473.683    598.196    473.683
113.270    680.773    712.933    -32.160    473.674    574.204    473.674    612.381    473.674
113.370    727.000    735.743     -8.743    473.668    582.047    473.668    627.339    473.668
113.470    746.000    761.013    -15.013    473.665    591.742    473.665    642.909    473.665
113.570    759.000    789.076    -30.076    473.666    603.826    473.666    658.883    473.666
113.670    827.364    820.361      7.003    473.670    618.982    473.670    675.012    473.670
113.770    840.000    855.421    -15.421    473.677    638.060    473.677    690.995    473.677
113.870    883.000    894.957    -11.957    473.688    662.109    473.688    706.485    473.688
113.970    965.000    939.848     25.152    473.702    692.397    473.702    721.093    473.702
114.070    971.000    991.175    -20.175    473.720    730.432    473.720    734.392    473.720
114.170   1111.000   1050.256     60.744    473.742    777.972    473.742    745.939    473.742
114.270   1095.771   1118.660    -22.889    473.767    837.024    473.767    755.299    473.767
114.370   1213.508   1198.233     15.275    473.796    909.824    473.796    762.080    473.796
114.470   1253.000   1291.096    -38.096    473.828    998.800    473.828    765.976    473.828
114.570   1400.000   1399.619      0.381    473.864   1106.506    473.864    766.801    473.864
114.670   1500.000   1526.358    -26.358    473.904   1235.539    473.904    764.515    473.904
114.770   1719.075   1673.943     45.132    473.948   1388.413    473.948    759.233    473.948
114.870   1911.000   1844.918     66.082    473.996   1567.425    473.996    751.203    473.996
114.970   2120.000   2041.546     78.454    474.047   1774.484    474.047    740.779    474.047
115.070   2355.000   2265.585     89.415    474.103   2010.932    474.103    728.379    474.103
115.170   2607.000   2518.066     88.934    474.162   2277.356    474.162    714.447    474.162
115.270   2799.167   2799.072      0.094    474.226   2573.403    474.226    699.421    474.226
115.370   3077.856   3107.558    -29.702    474.293   2897.620    474.293    683.710    474.293
115.470   3441.000   3441.199     -0.199    474.365   3247.313    474.365    667.686    474.365
115.570   3821.000   3796.295     24.705    474.441   3618.462    474.441    651.670    474.441
115.670   4182.000   4167.728     14.272    474.521   4005.675    474.521    635.939    474.521
115.770   4441.000   4548.983   -107.983    474.605   4402.209    474.605    620.722    474.605
115.870   4816.000   4932.231   -116.231    474.693   4800.055    474.693    606.203    474.693
115.970   5242.591   5308.476    -65.885    474.786   5190.077    474.786    592.522    474.786
116.070   5625.042   5667.784    -42.742    474.883   5562.240    474.883    579.783    474.883
116.170   5965.000   5999.581    -34.581    474.984   5905.907    474.984    568.049    474.984
116.270   6464.000   6293.072    170.928    475.090   6210.249    475.090    557.356    475.090
116.370   6593.000   6537.773     55.227    475.200   6464.777    475.200    547.708    475.200
116.470   6570.293   6724.179   -153.886    475.315   6660.003    475.315    539.085    475.315
116.570   6901.000   6844.523     56.477    475.434   6788.198    475.434    531.449    475.434
116.670   6998.000   6893.518    104.482    475.558   6844.125    475.558    524.744    475.558
116.770   7039.000   6868.929    170.071    475.687   6825.610    475.687    518.907    475.687
116.870   6838.000   6771.825     66.175    475.820   6733.792    475.820    513.862    475.820
116.970   6492.000   6606.437   -114.437    475.958   6572.971    475.958    509.534    475.958
117.070   6433.000   6379.662     53.338    476.100   6350.119    476.100    505.845    476.100
117.170   6116.605   6100.353     16.253    476.248   6074.162    476.248    502.718    476.248
117.270   5652.335   5778.553   -126.217    476.400   5755.214    476.400    500.082    476.400
117.370   5447.644   5424.820     22.824    476.557   5403.900    476.557    497.869    476.557
117.470   4993.462   5049.692    -56.230    476.719   5030.818    476.719    496.018    476.719
117.570   4627.000   4663.151    -36.151    476.886   4646.006    476.886    494.474    476.886
117.670   4215.000   4274.374    -59.374    477.058   4258.691    477.058    493.188    477.058
117.770   3867.000   3891.483    -24.483    477.235   3877.039    477.235    492.119    477.235
117.870   3563.000   3521.381     41.619    477.417   3507.989    477.417    491.230    477.417
117.970   3219.000   3169.666     49.334    477.605   3157.174    477.605    490.492    477.605
118.070   2887.362   2840.611     46.751    477.797   2828.893    477.797    489.879    477.797
118.170   2550.000   2537.204     12.796    477.995   2526.157    477.995    489.370    477.995
118.270   2260.281   2261.233     -0.952    478.198   2250.774    478.198    488.948    478.198
118.370   2020.763   2013.420      7.343    478.406   2003.479    478.406    488.598    478.406
118.470   1712.000   1793.566    -81.566    478.620   1784.089    478.620    488.311    478.620
118.570   1611.000   1600.721     10.279    478.839   1591.662    478.839    488.077    478.839
118.670   1485.677   1433.355     52.323    479.064   1424.677    479.064    487.889    479.064
118.770   1273.000   1289.519    -16.519    479.294   1281.190    479.294    487.741    479.294
118.870   1133.000   1167.007    -34.007    479.530   1159.001    479.530    487.628    479.530
118.970   1064.000   1063.487      0.513    479.771   1055.782    479.771    487.548    479.771
119.070    993.000    976.623     16.377    480.018    969.199    480.018    487.497    480.018
119.170    916.000    904.161     11.839    480.271    896.999    480.271    487.473    480.271
119.270    846.000    843.998      2.002    480.529    837.082    480.529    487.474    480.529
119.370    823.472    794.225     29.247    480.793    787.539    480.793    487.499    480.793
119.470    719.021    753.149    -34.128    481.063    746.679    481.063    487.546    481.063
119.570    760.602    719.299     41.303    481.339    713.031    481.339    487.616    481.339
119.670    707.058    691.423     15.636    481.621    685.342    481.621    487.707    481.621
119.770    674.000    668.466      5.534    481.908    662.560    481.908    487.819    481.908
119.870    670.222    649.558     20.663    482.202    643.812    482.202    487.952    482.202
119.970    642.000    633.988      8.012    482.502    628.388    482.502    488.105    482.502
120.070    625.483    621.179      4.304    482.808    615.711    482.808    488.279    482.808
120.170    624.000    610.670     13.330    483.120    605.319    483.120    488.474    483.120
120.270    572.883    602.094    -29.212    483.439    596.846    483.439    488.690    483.439
120.370    565.000    595.161    -30.161    483.763    590.000    483.763    488.927    483.763
120.470    574.000    589.642    -15.642    484.094    584.554    484.094    489.187    484.094
120.570    558.000    585.360    -27.360    484.432    580.327    484.432    489.469    484.432
120.670    618.894    582.172     36.722    484.776    577.179    484.776    489.774    484.776
120.770    592.000    579.970     12.030    485.126    574.999    485.126    490.102    485.126
120.870    572.000    578.667     -6.667    485.483    573.700    485.483    490.455    485.483
120.970    577.000    578.190     -1.190    485.846    573.211    485.846    490.832    485.846
121.070    605.634    578.482     27.152    486.216    573.472    486.216    491.235    486.216
121.170    582.458    579.490      2.968    486.593    574.430    486.593    491.662    486.593
121.270    618.011    581.165     36.846    486.976    576.037    486.976    492.115    486.976
121.370    593.000    583.457      9.543    487.366    578.242    487.366    492.593    487.366
121.470    619.635    586.314     33.321    487.763    580.996    487.763    493.096    487.763
121.570    576.000    589.680    -13.680    488.167    584.240    488.167    493.623    488.167
121.670    551.000    593.490    -42.490    488.578    587.913    488.578    494.173    488.578
121.770    622.000    597.673     24.327    488.996    591.944    488.996    494.745    488.996
121.870    611.000    602.149      8.851    489.421    596.255    489.421    495.338    489.421
121.970    628.000    606.829     21.171    489.852    600.759    489.852    495.949    489.852
122.070    627.000    611.617     15.383    490.292    605.362    490.292    496.576    490.292
122.170    656.212    616.409     39.804    490.738    609.962    490.738    497.216    490.738
122.270    610.000    621.094    -11.094    491.191    614.453    491.191    497.866    491.191
122.370    586.437    625.558    -39.121    491.652    618.724    491.652    498.523    491.652
122.470    651.000    629.688     21.312    492.120    622.667    492.120    499.181    492.120
122.570    656.000    633.374     22.626    492.596    626.176    492.596    499.837    492.596
122.670    680.000    636.516     43.484    493.079    629.154    493.079    500.485    493.079
122.770    617.000    639.028    -22.028    493.569    631.522    493.569    501.121    493.569
122.870    644.000    640.844      3.156    494.067    633.219    494.067    501.739    494.067
122.970    699.000    641.923     57.077    494.573    634.209    494.573    502.335    494.573
123.070    648.613    642.252      6.362    495.087    634.483    495.087    502.904    495.087
123.170    671.000    641.843     29.157    495.608    634.056    495.608    503.442    495.608
123.270    647.000    640.734      6.266    496.137    632.969    496.137    503.949    496.137
123.370    679.000    638.981     40.019    496.673    631.278    496.673    504.422    496.673
123.470    644.000    636.655      7.345    497.218    629.054    497.218    504.863    497.218
123.570    640.000    633.836      6.164    497.771    626.376    497.771    505.273    497.771
123.670    636.000    630.610      5.390    498.331    623.325    498.331    505.656    498.331
123.770    645.449    627.062     18.387    498.900    619.984    498.900    506.015    498.900
123.870    640.000    623.277     16.723    499.477    616.432    499.477    506.356    499.477
123.970    591.000    619.333    -28.333    500.062    612.743    500.062    506.684    500.062
124.070    582.723    615.302    -32.580    500.655    608.982    500.655    507.004    500.655
124.170    586.000    611.246    -25.246    501.257    605.209    501.257    507.320    501.257
124.270    600.000    607.217     -7.217    501.867    601.469    501.867    507.637    501.867
124.370    589.000    603.255    -14.255    502.485    597.801    502.485    507.959    502.485
124.470    623.681    599.392     24.289    503.112    594.230    503.112    508.291    503.112
124.570    629.000    595.647     33.353    503.747    590.774    503.747    508.634    503.747
124.670    579.000    592.032    -13.032    504.391    587.442    504.391    508.993    504.391
124.770    598.000    588.550      9.450    505.044    584.235    505.044    509.370    505.044
124.870    562.000    585.202    -23.202    505.705    581.150    505.705    509.765    505.705
124.970    584.937    581.982      2.954    506.375    578.182    506.375    510.182    506.375
