neutron_powder_diffraction_0052
R_wp: 3.881
Temperature (K): 656.212
Counts: 83616.00
Wavelength (Ã…): 2.52098
COMMENTS
Test file for demonstrating the .xyy file format in Reel1.0
END OF HEADER
   tth       Y_obs     Y_calc      Y_res    Background    Phase_1_Nuc    Phase_1_Mag    Phase_2_Nuc    Phase_2_Mag
  9.970    619.106    659.749    -40.643    658.273    659.372    658.649    658.273    658.273
 10.070    688.216    659.336     28.879    657.767    658.956    658.146    657.767    657.767
 10.170    653.139    658.940     -5.801    657.259    658.555    657.643    657.259    657.259
 10.270    677.000    658.555     18.445    656.751    658.166    657.140    656.751    656.751
 10.370    625.488    658.186    -32.698    656.242    657.792    656.635    656.242    656.242
 10.470    699.000    657.836     41.164    655.732    657.438    656.129    655.732    655.732
 10.570    640.069    657.512    -17.443    655.221    657.110    655.622    655.221    655.221
 10.670    708.618    657.221     51.397    654.709    656.814    655.115    654.709    654.709
 10.770    657.943    656.970      0.973    654.196    656.559    654.606    654.196    654.196
 10.870    660.000    656.771      3.229    653.682    656.355    654.097    653.682    653.682
 10.970    710.000    656.641     53.359    653.168    656.220    653.587    653.168    653.168
 11.070    616.170    656.600    -40.430    652.652    656.174    653.076    652.652    652.652
 11.170    709.680    656.678     53.001    652.136    656.247    652.565    652.136    652.136
 11.270    672.928    656.924     16.004    651.620    656.488    652.053    651.620    651.620
 11.370    722.000    657.414     64.586    651.102    656.972    651.541    651.102    651.102
 11.470    613.305    658.300    -44.995    650.584    657.852    651.028    650.584    650.584
 11.570    690.000    659.919     30.081    650.065    659.465    650.514    650.065    650.065
 11.670    732.000    663.013     68.987    649.546    662.552    650.000    649.546    649.546
 11.770    726.379    669.021     57.358    649.026    668.551    649.485    649.026    649.026
 11.870    634.012    680.117    -46.105    648.505    679.635    648.970    648.505    648.505
 11.970    813.000    698.489    114.511    647.984    697.991    648.454    647.984    647.984
 12.070    677.595    724.395    -46.800    647.463    723.877    647.938    647.463    647.463
 12.170    696.875    752.973    -56.098    646.940    752.434    647.422    646.940    646.940
 12.270    786.000    771.899     14.101    646.418    771.343    646.905    646.418    646.418
 12.370    812.000    768.782     43.218    645.895    768.221    646.388    645.895    645.895
 12.470    726.000    745.689    -19.689    645.372    745.134    645.872    645.372    645.372
 12.570    713.000    716.020     -3.020    644.848    715.475    645.354    644.848    644.848
 12.670    717.000    690.511     26.489    644.324    689.974    644.836    644.324    644.324
 12.770    686.000    672.718     13.282    643.800    672.184    644.318    643.800    643.800
 12.870    610.537    661.803    -51.266    643.275    661.268    643.800    643.275    643.275
 12.970    650.000    655.487     -5.487    642.750    654.949    643.282    642.750    642.750
 13.070    634.000    651.733    -17.733    642.225    651.190    642.764    642.225    642.225
 13.170    690.654    649.266     41.387    641.700    648.717    642.245    641.700    641.700
 13.270    663.595    647.447     16.148    641.174    646.891    641.727    641.174    641.174
 13.370    645.000    645.986     -0.986    640.649    645.424    641.208    640.649    640.649
 13.470    588.000    644.760    -56.760    640.123    644.191    640.690    640.123    640.123
 13.570    650.000    643.780      6.220    639.597    643.203    640.171    639.597    639.597
 13.670    599.000    642.867    -43.867    639.071    642.284    639.653    639.071    639.071
 13.770    656.000    641.993     14.007    638.545    641.402    639.135    638.545    638.545
 13.870    654.000    641.180     12.820    638.019    640.581    638.617    638.019    638.019
 13.970    668.304    640.417     27.886    637.493    639.811    638.099    637.493    637.493
 14.070    637.000    639.695     -2.695    636.967    639.080    637.581    636.967    636.967
 14.170    637.000    639.004     -2.004    636.442    638.382    637.064    636.442    636.442
 14.270    603.049    638.340    -35.291    635.916    637.709    636.546    635.916    635.916
 14.370    621.000    637.697    -16.697    635.390    637.057    636.029    635.390    635.390
 14.470    648.914    637.072     11.842    634.864    636.423    635.513    634.864    634.864
 14.570    600.000    636.467    -36.467    634.339    635.809    634.996    634.339    634.339
 14.670    596.065    635.869    -39.804    633.813    635.202    634.480    633.813    633.813
 14.770    591.000    635.281    -44.281    633.288    634.605    633.964    633.288    633.288
 14.870    630.006    634.702     -4.696    632.763    634.016    633.449    632.763    632.763
 14.970    598.000    634.131    -36.131    632.239    633.435    632.934    632.239    632.239
 15.070    600.000    633.567    -33.567    631.714    632.860    632.420    631.714    631.714
 15.170    622.000    633.008    -11.008    631.190    632.292    631.906    631.190    631.190
 15.270    591.000    632.456    -41.456    630.666    631.728    631.393    630.666    630.666
 15.370    638.485    631.908      6.577    630.143    631.170    630.880    630.143    630.143
 15.470    635.000    631.365      3.635    629.620    630.616    630.368    629.620    629.620
 15.570    592.000    630.827    -38.827    629.097    630.067    629.857    629.097    629.097
 15.670    669.069    630.314     38.755    628.574    629.542    629.346    628.574    628.574
 15.770    617.000    629.794    -12.794    628.052    629.010    628.836    628.052    628.052
 15.870    600.000    629.265    -29.265    627.531    628.469    628.326    627.531    627.531
 15.970    614.000    628.737    -14.737    627.010    627.929    627.818    627.010    627.010
 16.070    607.000    628.213    -21.213    626.489    627.392    627.310    626.489    626.489
 16.170    616.730    627.691    -10.961    625.969    626.857    626.803    625.969    625.969
 16.270    595.096    627.171    -32.075    625.449    626.324    626.296    625.449    625.449
 16.370    657.808    626.653     31.154    624.930    625.793    625.791    624.930    624.930
 16.470    634.310    626.138      8.172    624.412    625.264    625.286    624.412    624.412
 16.570    628.000    625.627      2.373    623.894    624.738    624.783    623.894    623.894
 16.670    616.000    625.120     -9.120    623.377    624.216    624.280    623.377    623.377
 16.770    595.000    624.647    -29.647    622.860    623.727    623.779    622.860    622.860
 16.870    581.000    624.184    -43.184    622.344    623.248    623.279    622.344    622.344
 16.970    610.000    623.688    -13.688    621.829    622.737    622.780    621.829    621.829
 17.070    612.852    623.195    -10.342    621.314    622.227    622.281    621.314    621.314
 17.170    673.895    622.694     51.201    620.800    621.710    621.784    620.800    620.800
 17.270    659.177    622.195     36.982    620.287    621.194    621.288    620.287    620.287
 17.370    575.000    621.698    -46.698    619.774    620.679    620.793    619.774    619.774
 17.470    604.000    621.203    -17.203    619.262    620.166    620.299    619.262    619.262
 17.570    646.000    620.709     25.291    618.751    619.654    619.806    618.751    618.751
 17.670    619.000    620.218     -1.218    618.241    619.144    619.315    618.241    618.241
 17.770    583.000    619.728    -36.728    617.732    618.634    618.825    617.732    617.732
 17.870    583.000    619.240    -36.240    617.223    618.126    618.337    617.223    617.223
 17.970    615.000    618.754     -3.754    616.715    617.620    617.850    616.715    616.715
 18.070    606.103    618.272    -12.168    616.209    617.116    617.364    616.209    616.209
 18.170    592.000    617.799    -25.799    615.703    616.621    616.880    615.703    615.703
 18.270    595.876    617.323    -21.447    615.198    616.123    616.398    615.198    615.198
 18.370    614.159    616.846     -2.686    614.693    615.622    615.917    614.693    614.693
 18.470    574.000    616.370    -42.370    614.190    615.123    615.437    614.190    614.190
 18.570    606.000    615.901     -9.901    613.688    614.630    614.959    613.688    613.688
 18.670    592.000    615.430    -23.430    613.187    614.134    614.483    613.187    613.187
 18.770    580.000    614.966    -34.966    612.687    613.643    614.010    612.687    612.687
 18.870    641.586    614.552     27.033    612.187    613.192    613.547    612.187    612.187
 18.970    561.000    614.107    -53.107    611.689    612.716    613.080    611.689    611.689
 19.070    569.000    613.647    -44.647    611.192    612.227    612.612    611.192    611.192
 19.170    617.936    613.188      4.748    610.696    611.738    612.145    610.696    610.696
 19.270    583.000    612.731    -29.731    610.201    611.251    611.681    610.201    610.201
 19.370    604.000    612.277     -8.277    609.707    610.766    611.218    609.707    609.707
 19.470    608.000    611.826     -3.826    609.214    610.282    610.758    609.214    609.214
 19.570    618.000    611.379      6.621    608.722    609.802    610.300    608.722    608.722
 19.670    633.000    610.945     22.055    608.232    609.333    609.844    608.232    608.232
 19.770    618.000    610.519      7.481    607.742    608.870    609.391    607.742    607.742
 19.870    583.000    610.096    -27.096    607.254    608.405    608.944    607.254    607.254
 19.970    591.183    609.695    -18.512    606.767    607.961    608.501    606.767    606.767
 20.070    654.697    609.292     45.405    606.281    607.517    608.055    606.281    606.281
 20.170    650.000    608.906     41.094    605.796    607.090    607.612    605.796    605.796
 20.270    646.000    608.501     37.499    605.313    606.642    607.171    605.313    605.313
 20.370    599.000    608.125     -9.125    604.830    606.222    606.733    604.830    604.830
 20.470    610.000    607.727      2.273    604.350    605.777    606.299    604.350    604.350
 20.570    586.000    607.323    -21.323    603.870    605.325    605.869    603.870    603.870
 20.670    604.000    606.916     -2.916    603.391    604.868    605.440    603.391    603.391
 20.770    606.000    606.517     -0.517    602.914    604.418    605.014    602.914    602.914
 20.870    626.000    606.128     19.872    602.439    603.975    604.591    602.439    602.439
 20.970    624.436    605.732     18.704    601.964    603.524    604.172    601.964    601.964
 21.070    603.000    605.343     -2.343    601.491    603.078    603.756    601.491    601.491
 21.170    649.157    604.965     44.193    601.019    602.641    603.343    601.019    601.019
 21.270    578.000    604.583    -26.583    600.549    602.198    602.935    600.549    600.549
 21.370    654.442    604.210     50.232    600.080    601.760    602.530    600.080    600.080
 21.470    578.212    603.840    -25.628    599.612    601.323    602.129    599.612    599.612
 21.570    606.000    603.475      2.525    599.146    600.888    601.733    599.146    599.146
 21.670    621.069    603.117     17.952    598.681    600.457    601.341    598.681    598.681
 21.770    579.000    602.766    -23.766    598.218    600.030    600.954    598.218    598.218
 21.870    599.000    602.422     -3.422    597.756    599.607    600.571    597.756    597.756
 21.970    578.000    602.087    -24.087    597.296    599.189    600.194    597.296    597.296
 22.070    585.000    601.760    -16.760    596.837    598.775    599.821    596.837    596.837
 22.170    563.401    601.442    -38.041    596.379    598.367    599.455    596.379    596.379
 22.270    545.000    601.137    -56.137    595.923    597.966    599.094    595.923    595.923
 22.370    613.000    600.847     12.153    595.469    597.575    598.741    595.469    595.469
 22.470    613.000    600.563     12.437    595.016    597.186    598.392    595.016    595.016
 22.570    560.000    600.293    -40.293    594.564    596.807    598.051    594.564    594.564
 22.670    616.000    600.038     15.962    594.115    596.438    597.716    594.115    594.115
 22.770    603.114    599.798      3.316    593.666    596.076    597.388    593.666    593.666
 22.870    586.000    599.575    -13.575    593.219    595.726    597.069    593.219    593.219
 22.970    617.000    599.372     17.628    592.774    595.389    596.758    592.774    592.774
 23.070    613.000    599.193     13.807    592.331    595.069    596.455    592.331    592.331
 23.170    568.000    599.041    -31.041    591.889    594.768    596.162    591.889    591.889
 23.270    599.000    598.920      0.080    591.448    594.490    595.879    591.448    591.448
 23.370    615.000    598.836     16.164    591.009    594.240    595.607    591.009    591.009
 23.470    595.807    598.797     -2.990    590.572    594.024    595.346    590.572    590.572
 23.570    625.769    598.812     26.957    590.137    593.852    595.098    590.137    590.137
 23.670    640.000    598.893     41.107    589.703    593.736    594.862    589.703    589.703
 23.770    622.000    599.059     22.941    589.271    593.692    594.640    589.271    589.271
 23.870    635.154    599.335     35.819    588.840    593.745    594.432    588.840    588.840
 23.970    623.000    599.761     23.239    588.411    593.933    594.242    588.411    588.411
 24.070    575.000    600.407    -25.407    587.984    594.326    594.068    587.984    587.984
 24.170    622.000    601.418     20.582    587.559    595.066    593.913    587.559    587.559
 24.270    589.000    603.107    -14.107    587.135    596.468    593.779    587.135    587.135
 24.370    611.000    606.115      4.885    586.713    599.167    593.668    586.713    586.713
 24.470    659.314    611.521     47.793    586.293    604.245    593.581    586.293    586.293
 24.570    649.000    620.716     28.284    585.874    613.088    593.520    585.874    585.874
 24.670    580.499    634.716    -54.217    585.457    626.713    593.488    585.457    585.457
 24.770    662.000    652.840      9.160    585.042    644.434    593.488    585.042    585.042
 24.870    710.000    670.802     39.198    584.629    661.960    593.524    584.629    584.629
 24.970    698.000    680.031     17.969    584.217    670.710    593.599    584.217    584.217
 25.070    668.000    674.331     -6.331    583.807    664.477    593.717    583.807    583.807
 25.170    665.000    658.048      6.952    583.399    647.607    593.884    583.399    583.399
 25.270    656.000    639.891     16.109    582.993    628.810    594.105    582.993    582.993
 25.370    611.685    625.179    -13.494    582.589    613.401    594.386    582.589    582.589
 25.470    627.423    615.319     12.104    582.186    602.781    594.736    582.186    582.186
 25.570    618.000    609.602      8.398    581.785    596.231    595.164    581.785    581.785
 25.670    553.145    606.675    -53.529    581.386    592.387    595.679    581.386    581.386
 25.770    599.000    605.378     -6.378    580.989    590.076    596.294    580.989    580.989
 25.870    588.969    604.992    -16.023    580.594    588.563    597.026    580.594    580.594
 25.970    645.000    605.159     39.841    580.201    587.471    597.890    580.201    580.201
 26.070    620.000    605.726     14.274    579.809    586.627    598.908    579.809    579.809
 26.170    637.000    606.640     30.360    579.419    585.952    600.108    579.419    579.419
 26.270    631.607    607.893     23.714    579.031    585.404    601.521    579.031    579.031
 26.370    582.000    609.501    -27.501    578.645    584.960    603.186    578.645    578.645
 26.470    630.000    611.497     18.503    578.261    584.606    605.151    578.261    578.261
 26.570    613.000    613.937     -0.937    577.879    584.336    607.479    577.879    577.879
 26.670    674.000    616.905     57.095    577.499    584.153    610.249    577.499    577.499
 26.770    655.000    620.503     34.497    577.120    584.058    613.563    577.120    577.120
 26.870    654.772    624.867     29.904    576.744    584.055    617.554    576.744    576.744
 26.970    637.642    630.195      7.447    576.369    584.162    622.399    576.369    576.369
 27.070    683.000    636.748     46.252    575.996    584.400    628.340    575.996    575.996
 27.170    669.000    644.890     24.110    575.626    584.803    635.708    575.626    575.626
 27.270    696.628    655.139     41.489    575.257    585.417    644.973    575.257    575.257
 27.370    617.484    668.249    -50.765    574.890    586.309    656.823    574.890    574.890
 27.470    722.000    685.420     36.580    574.525    587.592    672.343    574.525    574.525
 27.570    739.000    708.906     30.094    574.162    589.470    693.586    574.162    574.162
 27.670    776.302    744.345     31.957    573.801    592.456    725.672    573.801    573.801
 27.770    796.000    807.889    -11.889    573.442    598.017    783.284    573.442    573.442
 27.870    884.319    941.856    -57.537    573.085    609.985    904.895    573.085    573.085
 27.970   1162.000   1232.182    -70.182    572.730    636.140   1168.644    572.730    572.730
 28.070   1635.000   1794.321   -159.321    572.376    686.938   1679.518    572.376    572.376
 28.170   2540.000   2682.809   -142.809    572.025    767.340   2487.113    572.025    572.025
 28.270   3755.000   3736.369     18.631    571.676    862.835   3444.742    571.676    571.676
 28.370   4537.422   4491.967     45.455    571.329    931.715   4131.184    571.329    571.329
 28.470   4650.000   4473.963    176.037    570.983    931.351   4113.419    570.983    570.983
 28.570   3856.103   3755.255    100.848    570.640    869.132   3456.768    570.640    570.640
 28.670   2878.622   2887.384     -8.762    570.299    796.290   2661.453    570.299    570.299
 28.770   2242.001   2341.069    -99.068    569.959    756.910   2154.151    569.959    569.959
 28.870   2177.000   2252.566    -75.566    569.622    763.677   2058.502    569.622    569.622
 28.970   2408.000   2474.836    -66.836    569.287    800.535   2243.576    569.287    569.287
 29.070   2779.000   2695.309     83.691    568.954    832.186   2432.126    568.954    568.954
 29.170   2679.000   2626.336     52.664    568.622    825.256   2369.842    568.622    568.622
 29.270   2251.010   2240.789     10.221    568.293    777.657   2031.605    568.293    568.293
 29.370   1686.442   1738.871    -52.429    567.966    715.063   1591.932    567.966    567.966
 29.470   1320.000   1307.000     13.000    567.641    661.096   1213.654    567.641    567.641
 29.570    993.000   1014.058    -21.058    567.318    624.496    956.943    567.318    567.318
 29.670    908.000    845.230     62.770    566.997    603.442    808.817    566.997    566.997
 29.770    780.177    756.461     23.717    566.677    592.424    730.730    566.677    566.677
 29.870    802.000    709.456     92.544    566.360    586.650    689.175    566.360    566.360
 29.970    730.000    681.853     48.147    566.045    583.330    664.573    566.045    566.045
 30.070    764.000    663.425    100.575    565.732    581.201    647.958    565.732    565.732
 30.170    691.114    650.058     41.056    565.422    579.783    635.697    565.422    565.422
 30.270    638.882    640.099     -1.217    565.113    578.930    626.281    565.113    565.113
 30.370    718.000    632.914     85.086    564.806    578.700    619.018    564.806    564.806
 30.470    661.000    628.564     32.436    564.501    579.404    613.656    564.501    564.501
 30.570    636.000    627.875      8.125    564.198    581.731    610.334    564.198    564.198
 30.670    670.000    632.440     37.560    563.898    586.783    609.540    563.898    563.898
 30.770    702.000    644.021     57.979    563.599    595.726    611.870    563.599    563.599
 30.870    708.000    662.999     45.001    563.303    608.866    617.398    563.303    563.303
 30.970    676.808    686.048     -9.239    563.008    624.242    624.763    563.008    563.008
 31.070    653.893    704.272    -50.379    562.716    636.501    630.428    562.716    562.716
 31.170    753.000    706.296     46.704    562.425    638.772    629.892    562.425    562.425
 31.270    696.000    688.921      7.079    562.137    629.140    621.872    562.137    562.137
 31.370    627.000    661.474    -34.474    561.851    613.287    610.005    561.851    561.851
 31.470    664.000    634.990     29.010    561.567    597.926    598.609    561.567    561.567
 31.570    571.118    614.869    -43.752    561.285    586.352    589.789    561.285    561.285
 31.670    626.000    601.742     24.258    561.005    578.958    583.780    561.005    561.005
 31.770    640.000    593.935     46.065    560.727    574.742    579.914    560.727    560.727
 31.870    597.000    589.385      7.615    560.451    572.460    577.372    560.451    560.451
 31.970    618.722    586.580     32.142    560.177    571.203    575.552    560.177    560.177
 32.070    534.007    584.684    -50.677    559.905    570.471    574.116    559.905    559.905
 32.170    616.000    583.311     32.689    559.636    570.038    572.907    559.636    559.636
 32.270    606.077    582.299     23.778    559.368    569.813    571.853    559.368    559.368
 32.370    575.000    581.581     -6.581    559.103    569.762    570.920    559.103    559.103
 32.470    618.000    581.128     36.872    558.839    569.878    570.088    558.839    558.839
 32.570    606.000    580.933     25.067    558.578    570.163    569.346    558.578    558.578
 32.670    618.000    581.005     36.995    558.319    570.637    568.685    558.319    558.319
 32.770    627.302    581.370     45.932    558.061    571.327    568.103    558.061    558.061
 32.870    605.000    582.073     22.927    557.806    572.278    567.599    557.806    557.806
 32.970    582.000    583.181     -1.181    557.553    573.554    567.178    557.553    557.553
 33.070    590.000    584.798      5.202    557.302    575.249    566.849    557.302    557.302
 33.170    637.599    587.087     50.512    557.053    577.509    566.629    557.053    557.053
 33.270    587.000    590.331     -3.331    556.807    580.585    566.550    556.807    556.807
 33.370    565.221    595.107    -29.885    556.562    584.984    566.681    556.562    556.562
 33.470    607.801    602.672      5.129    556.319    591.812    567.175    556.319    556.319
 33.570    572.088    615.700    -43.612    556.079    603.411    568.361    556.079    556.079
 33.670    662.992    639.163     23.829    555.840    624.144    570.849    555.840    555.840
 33.770    683.000    680.550      2.450    555.604    660.575    575.561    555.604    555.604
 33.870    761.725    747.930     13.795    555.369    719.781    583.491    555.369    555.369
 33.970    861.000    844.873     16.127    555.137    804.892    595.078    555.137    555.137
 34.070    899.173    962.603    -63.430    554.906    908.217    609.240    554.906    554.906
 34.170   1061.000   1070.956     -9.956    554.678   1003.318    622.258    554.678    554.678
 34.270   1161.000   1119.396     41.604    554.452   1045.894    627.905    554.452    554.452
 34.370   1062.000   1076.680    -14.680    554.228   1008.553    622.327    554.228    554.228
 34.470    964.000    970.612     -6.612    554.006    915.659    608.951    554.006    554.006
 34.570    821.000    851.697    -30.697    553.786    811.487    593.999    553.786    553.786
 34.670    748.256    751.866     -3.611    553.568    724.032    581.409    553.568    553.568
 34.770    730.000    681.341     48.659    553.352    662.259    572.439    553.352    553.352
 34.870    656.872    637.282     19.590    553.138    623.683    566.740    553.138    553.138
 34.970    653.162    611.795     41.367    552.927    601.383    563.339    552.927    552.927
 35.070    646.000    597.262     48.738    552.717    588.681    561.298    552.717    552.717
 35.170    580.000    588.503     -8.503    552.509    581.035    559.976    552.509    552.509
 35.270    628.979    582.684     46.295    552.304    575.961    559.026    552.304    552.304
 35.370    605.000    578.452     26.548    552.100    572.271    558.280    552.100    552.100
 35.470    546.787    575.186    -28.399    551.898    569.421    557.662    551.898    551.898
 35.570    577.395    572.578      4.817    551.699    567.141    557.135    551.699    551.699
 35.670    585.000    570.453     14.547    551.501    565.277    556.677    551.501    551.501
 35.770    568.000    568.697     -0.697    551.306    563.727    556.275    551.306    551.306
 35.870    528.360    567.229    -38.869    551.112    562.421    555.920    551.112    551.112
 35.970    558.539    565.992     -7.453    550.921    561.308    555.604    550.921    550.921
 36.070    587.000    564.944     22.056    550.732    560.349    555.326    550.732    550.732
 36.170    548.000    564.055    -16.055    550.544    559.517    555.082    550.544    550.544
 36.270    559.000    563.301     -4.301    550.359    558.789    554.871    550.359    550.359
 36.370    555.000    562.668     -7.668    550.175    558.149    554.694    550.175    550.175
 36.470    512.000    562.145    -50.145    549.994    557.586    554.553    549.994    549.994
 36.570    597.303    561.726     35.577    549.815    557.089    554.451    549.815    549.815
 36.670    553.774    561.411     -7.637    549.637    556.654    554.394    549.637    549.637
 36.770    524.217    561.203    -36.986    549.462    556.277    554.388    549.462    549.462
 36.870    570.556    561.116      9.441    549.289    555.959    554.445    549.289    549.289
 36.970    596.000    561.171     34.829    549.117    555.708    554.579    549.117    549.117
 37.070    566.000    561.411      4.589    548.948    555.545    554.814    548.948    548.948
 37.170    599.000    561.921     37.079    548.780    555.516    555.186    548.780    548.780
 37.270    546.000    562.855    -16.855    548.615    555.707    555.763    548.615    548.615
 37.370    544.000    564.491    -20.491    548.452    556.257    556.685    548.452    548.452
 37.470    543.580    567.288    -23.708    548.290    557.339    558.239    548.290    548.290
 37.570    554.000    571.944    -17.944    548.131    559.105    560.970    548.131    548.131
 37.670    586.000    579.368      6.632    547.973    561.576    565.765    547.973    547.973
 37.770    599.798    590.470      9.327    547.817    564.496    573.792    547.817    547.817
 37.870    618.000    605.616     12.384    547.664    567.164    586.115    547.664    547.664
 37.970    632.000    623.939      8.061    547.512    568.500    602.950    547.512    547.512
 38.070    632.784    643.081    -10.296    547.362    567.813    622.629    547.362    547.362
 38.170    637.035    658.768    -21.733    547.215    565.521    640.461    547.215    547.215
 38.270    659.000    664.558     -5.558    547.069    562.540    649.088    547.069    547.069
 38.370    654.384    656.319     -1.936    546.925    559.554    643.694    546.925    546.925
 38.470    617.000    637.536    -20.536    546.783    556.966    627.358    546.783    546.783
 38.570    576.000    615.632    -39.632    546.643    554.960    607.320    546.643    546.643
 38.670    617.435    596.118     21.317    546.504    553.526    589.100    546.504    546.504
 38.770    580.443    581.296     -0.853    546.368    552.547    575.121    546.368    546.368
 38.870    547.000    571.244    -24.244    546.234    551.882    565.597    546.234    546.234
 38.970    532.000    564.943    -32.943    546.101    551.418    559.627    546.101    546.101
 39.070    551.000    561.134    -10.134    545.971    551.075    556.030    545.971    545.971
 39.170    510.057    558.789    -48.732    545.842    550.806    553.825    545.842    545.842
 39.270    579.598    557.247     22.351    545.715    550.583    552.380    545.715    545.715
 39.370    557.319    556.143      1.176    545.590    550.391    551.342    545.590    545.590
 39.470    547.000    555.296     -8.296    545.467    550.224    550.540    545.467    545.467
 39.570    543.000    554.616    -11.616    545.346    550.076    549.887    545.346    545.346
 39.670    567.000    554.055     12.945    545.227    549.944    549.339    545.227    545.227
 39.770    501.000    553.583    -52.583    545.109    549.823    548.869    545.109    545.109
 39.870    561.000    553.184      7.816    544.993    549.718    548.460    544.993    544.993
 39.970    502.903    552.847    -49.944    544.880    549.628    548.100    544.880    544.880
 40.070    541.000    552.560    -11.560    544.768    549.551    547.778    544.768    544.768
 40.170    536.000    552.316    -16.316    544.658    549.486    547.488    544.658    544.658
 40.270    519.000    552.109    -33.109    544.549    549.435    547.224    544.549    544.549
 40.370    555.000    551.935      3.065    544.443    549.397    546.982    544.443    544.443
 40.470    550.000    551.793     -1.793    544.338    549.373    546.759    544.338    544.338
 40.570    511.618    551.681    -40.063    544.235    549.365    546.552    544.235    544.235
 40.670    516.000    551.597    -35.597    544.134    549.373    546.359    544.134    544.134
 40.770    576.451    551.543     24.908    544.035    549.400    546.179    544.035    544.035
 40.870    509.000    551.520    -42.520    543.937    549.449    546.009    543.937    543.937
 40.970    596.794    551.529     45.265    543.842    549.521    545.850    543.842    543.842
 41.070    551.000    551.573     -0.573    543.748    549.622    545.700    543.748    543.748
 41.170    589.000    551.658     37.342    543.656    549.756    545.558    543.656    543.656
 41.270    509.000    551.789    -42.789    543.565    549.931    545.425    543.565    543.565
 41.370    549.000    551.975     -2.975    543.477    550.153    545.299    543.477    543.477
 41.470    508.000    552.226    -44.226    543.390    550.435    545.182    543.390    543.390
 41.570    567.000    552.558     14.442    543.305    550.792    545.072    543.305    543.305
 41.670    537.868    552.993    -15.126    543.221    551.246    544.971    543.221    543.221
 41.770    572.000    553.569     18.431    543.139    551.832    544.879    543.139    543.139
 41.870    516.899    554.349    -37.450    543.060    552.612    544.799    543.060    543.060
 41.970    549.000    555.459     -6.459    542.981    553.709    544.734    542.981    542.981
 42.070    523.000    557.146    -34.146    542.905    555.361    544.694    542.905    542.905
 42.170    515.000    559.869    -44.869    542.830    558.010    544.694    542.830    542.830
 42.270    565.000    564.383      0.617    542.757    562.384    544.762    542.757    542.757
 42.370    540.000    571.735    -31.735    542.685    569.495    544.935    542.685    542.685
 42.470    615.924    583.057     32.867    542.615    580.434    545.254    542.615    542.615
 42.570    620.330    599.073     21.258    542.547    595.899    545.743    542.547    542.547
 42.670    594.000    619.366    -25.366    542.481    615.490    546.389    542.481    542.481
 42.770    650.257    641.480      8.777    542.416    636.836    547.103    542.416    542.416
 42.870    689.161    660.085     29.077    542.353    654.797    547.694    542.353    542.353
 42.970    635.000    667.903    -32.903    542.291    662.352    547.901    542.291    542.291
 43.070    646.000    660.947    -14.947    542.231    655.655    547.582    542.231    542.231
 43.170    606.000    642.821    -36.821    542.173    638.181    546.864    542.173    542.173
 43.270    641.000    620.748     20.252    542.116    616.896    546.008    542.116    542.116
 43.370    546.000    600.223    -54.223    542.061    597.104    545.210    542.061    542.061
 43.470    550.021    583.873    -33.852    542.008    581.339    544.563    542.008    542.008
 43.570    554.372    572.227    -17.855    541.956    570.109    544.088    541.956    541.956
 43.670    597.724    564.614     33.110    541.906    562.769    543.760    541.906    541.906
 43.770    599.710    559.915     39.794    541.857    558.240    543.538    541.857    541.857
 43.870    569.000    557.070     11.930    541.810    555.499    543.386    541.810    541.810
 43.970    521.882    555.304    -33.422    541.764    553.797    543.274    541.764    541.764
 44.070    524.489    554.140    -29.651    541.720    552.676    543.187    541.720    541.720
 44.170    562.000    553.320      8.680    541.678    551.886    543.114    541.678    541.678
 44.270    547.286    552.712     -5.426    541.637    551.300    543.051    541.637    541.637
 44.370    569.000    552.248     16.752    541.597    550.851    542.996    541.597    541.597
 44.470    545.000    551.892     -6.892    541.560    550.505    542.947    541.560    541.560
 44.570    526.000    551.618    -25.618    541.523    550.239    542.903    541.523    541.523
 44.670    553.000    551.412      1.588    541.488    550.037    542.865    541.488    541.488
 44.770    560.000    551.262      8.738    541.455    549.887    542.830    541.455    541.455
 44.870    550.000    551.160     -1.160    541.423    549.783    542.800    541.423    541.423
 44.970    510.952    551.099    -40.146    541.392    549.717    542.774    541.392    541.392
 45.070    565.000    551.074     13.926    541.363    549.686    542.752    541.363    541.363
 45.170    535.888    551.082    -15.194    541.336    549.685    542.733    541.336    541.336
 45.270    524.860    551.121    -26.261    541.310    549.712    542.719    541.310    541.310
 45.370    550.845    551.189     -0.344    541.285    549.766    542.708    541.285    541.285
 45.470    494.000    551.284    -57.284    541.262    549.845    542.701    541.262    541.262
 45.570    544.000    551.407     -7.407    541.240    549.949    542.698    541.240    541.240
 45.670    507.000    551.556    -44.556    541.220    550.077    542.699    541.220    541.220
 45.770    533.000    551.734    -18.734    541.201    550.230    542.704    541.201    541.201
 45.870    545.000    551.940     -6.940    541.183    550.409    542.714    541.183    541.183
 45.970    597.000    552.177     44.823    541.167    550.616    542.728    541.167    541.167
 46.070    576.198    552.447     23.751    541.152    550.851    542.748    541.152    541.152
 46.170    551.000    552.752     -1.752    541.139    551.118    542.772    541.139    541.139
 46.270    544.000    553.097     -9.097    541.127    551.420    542.803    541.127    541.127
 46.370    518.000    553.486    -35.486    541.116    551.762    542.839    541.116    541.116
 46.470    496.000    553.924    -57.924    541.107    552.147    542.883    541.107    541.107
 46.570    559.000    554.421      4.579    541.099    552.584    542.934    541.099    541.099
 46.670    523.293    554.985    -31.692    541.092    553.082    542.994    541.092    541.092
 46.770    569.000    555.631     13.369    541.086    553.652    543.064    541.086    541.086
 46.870    531.000    556.381    -25.381    541.082    554.315    543.146    541.082    541.082
 46.970    528.000    557.267    -29.267    541.079    555.101    543.244    541.079    541.079
 47.070    591.355    558.353     33.002    541.078    556.066    543.362    541.078    541.078
 47.170    560.000    559.751      0.249    541.078    557.315    543.510    541.078    541.078
 47.270    572.000    561.665     10.335    541.079    559.032    543.707    541.079    541.079
 47.370    514.721    564.426    -49.705    541.081    561.521    543.979    541.081    541.081
 47.470    558.000    568.517    -10.517    541.084    565.224    544.368    541.084    541.084
 47.570    566.979    574.530     -7.551    541.089    570.683    544.924    541.089    541.089
 47.670    592.000    583.023      8.977    541.095    578.406    545.693    541.095    541.095
 47.770    623.123    594.264     28.859    541.102    588.641    546.699    541.102    541.102
 47.870    617.000    607.898      9.102    541.110    601.059    547.914    541.110    541.110
 47.970    591.337    622.552    -31.215    541.120    614.403    549.224    541.120    541.120
 48.070    669.000    635.522     33.478    541.131    626.193    550.407    541.131    541.131
 48.170    612.000    643.187    -31.187    541.143    633.112    551.162    541.143    541.143
 48.270    634.057    643.044     -8.987    541.156    632.863    551.283    541.156    541.156
 48.370    659.000    635.825     23.175    541.170    626.114    550.835    541.170    541.170
 48.470    610.000    624.807    -14.807    541.185    615.862    550.093    541.185    541.185
 48.570    637.961    613.421     24.540    541.202    605.247    549.348    541.202    541.202
 48.670    594.000    603.920     -9.920    541.219    596.326    548.793    541.219    541.219
 48.770    584.858    597.340    -12.482    541.238    590.043    548.521    541.238    541.238
 48.870    561.224    593.869    -32.644    541.258    586.559    548.557    541.258    541.258
 48.970    588.117    593.227     -5.109    541.279    585.606    548.891    541.279    541.279
 49.070    569.000    594.999    -25.999    541.301    586.789    549.505    541.301    541.301
 49.170    563.826    598.887    -35.061    541.324    589.805    550.400    541.324    541.324
 49.270    602.000    604.910     -2.910    541.348    594.630    551.623    541.348    541.348
 49.370    660.774    613.694     47.079    541.373    601.744    553.318    541.373    541.373
 49.470    658.247    627.086     31.161    541.400    612.632    555.846    541.400    541.400
 49.570    644.000    649.427     -5.427    541.427    630.819    560.023    541.427    541.427
 49.670    658.000    689.617    -31.617    541.455    663.541    567.512    541.455    541.455
 49.770    727.360    763.364    -36.003    541.485    723.573    581.241    541.485    541.485
 49.870    867.000    893.574    -26.574    541.515    829.553    605.476    541.515    541.515
 49.970   1105.692   1105.751     -0.059    541.546   1002.231    644.969    541.546    541.546
 50.070   1427.000   1416.178     10.822    541.579   1254.864    702.754    541.579    541.579
 50.170   1784.000   1814.881    -30.881    541.612   1579.347    776.971    541.612    541.612
 50.270   2201.000   2249.951    -48.951    541.646   1933.463    857.950    541.646    541.646
 50.370   2581.000   2622.250    -41.250    541.681   2236.568    927.216    541.681    541.681
 50.470   2771.000   2808.159    -37.159    541.718   2388.098    961.724    541.718    541.718
 50.570   2812.100   2731.332     80.769    541.755   2325.934    947.217    541.755    541.755
 50.670   2355.000   2427.288    -72.288    541.793   2078.978    890.260    541.793    541.793
 50.770   2017.959   2009.792      8.167    541.832   1739.839    811.981    541.832    541.832
 50.870   1522.678   1592.606    -69.927    541.871   1401.200    733.464    541.871    541.871
 50.970   1297.378   1248.211     49.167    541.912   1122.043    668.233    541.912    541.912
 51.070    970.000   1003.067    -33.067    541.954    923.885    621.249    541.954    541.954
 51.170    903.920    849.712     54.208    541.996    800.632    591.155    541.996    541.996
 51.270    750.554    764.118    -13.564    542.039    732.552    573.663    542.039    542.039
 51.370    712.000    719.995     -7.995    542.083    697.912    564.211    542.083    542.083
 51.470    646.169    696.561    -50.392    542.128    679.361    559.366    542.128    542.128
 51.570    717.472    680.912     36.560    542.174    666.047    557.071    542.174    542.174
 51.670    679.000    667.311     11.689    542.221    653.260    556.299    542.221    542.221
 51.770    680.000    654.659     25.341    542.268    640.366    556.583    542.268    542.268
 51.870    648.000    643.609      4.391    542.316    628.297    557.643    542.316    542.316
 51.970    637.000    634.797      2.203    542.365    618.009    559.163    542.365    542.365
 52.070    631.000    628.267      2.733    542.415    610.021    560.666    542.415    542.415
 52.170    585.000    623.504    -38.504    542.465    604.432    561.540    542.465    542.465
 52.270    695.000    619.810     75.190    542.517    601.064    561.263    542.517    542.517
 52.370    618.000    616.815      1.185    542.569    599.631    559.753    542.569    542.569
 52.470    638.000    614.692     23.308    542.621    599.891    557.423    542.621    542.621
 52.570    665.000    613.957     51.043    542.675    601.773    554.859    542.675    542.675
 52.670    613.000    615.297     -2.297    542.729    605.501    552.525    542.729    542.729
 52.770    625.000    619.642      5.358    542.783    611.747    550.679    542.783    542.783
 52.870    628.000    628.398     -0.398    542.839    621.825    549.412    542.839    542.839
 52.970    635.000    643.703     -8.703    542.895    637.891    548.707    542.895    542.895
 53.070    636.831    668.576    -31.745    542.952    663.017    548.510    542.952    542.952
 53.170    733.266    706.714     26.552    543.009    700.948    548.773    543.009    543.009
 53.270    790.000    761.750     28.250    543.067    755.342    549.471    543.067    543.067
 53.370    807.574    835.925    -28.351    543.126    828.461    550.585    543.126    543.126
 53.470    917.000    928.329    -11.329    543.185    919.443    552.064    543.185    543.185
 53.570   1023.178   1032.937     -9.759    543.245   1022.390    553.787    543.245    543.245
 53.670   1186.000   1136.617     49.383    543.306   1124.405    555.515    543.306    543.306
 53.770   1237.517   1218.338     19.179    543.367   1204.830    556.878    543.367    543.367
 53.870   1222.483   1254.253    -31.770    543.428   1240.232    557.460    543.428    543.428
 53.970   1273.586   1231.640     41.946    543.491   1218.113    557.038    543.491    543.491
 54.070   1171.000   1159.181     11.819    543.553   1147.001    555.761    543.553    543.553
 54.170   1075.000   1059.496     15.504    543.617   1049.126    554.015    543.617    543.617
 54.270    970.535    954.737     15.799    543.681    946.290    552.153    543.681    543.681
 54.370    812.000    859.833    -47.833    543.745    853.128    550.471    543.745    543.745
 54.470    772.000    782.283    -10.283    543.810    776.982    549.128    543.810    543.810
 54.570    710.000    723.936    -13.936    543.875    719.699    548.125    543.875    543.875
 54.670    672.000    683.065    -11.065    543.941    679.587    547.428    543.941    543.941
 54.770    676.466    656.156     20.310    544.007    653.193    546.976    544.007    544.007
 54.870    684.000    639.349     44.651    544.074    636.725    546.702    544.074    544.074
 54.970    615.000    629.335    -14.335    544.141    626.932    546.547    544.141    544.141
 55.070    615.000    623.698     -8.698    544.208    621.440    546.468    544.208    544.208
 55.170    576.314    620.884    -44.570    544.276    618.723    546.439    544.276    544.276
 55.270    612.054    619.998     -7.944    544.345    617.903    546.442    544.345    544.345
 55.370    661.000    620.582     40.418    544.414    618.528    546.468    544.414    544.414
 55.470    632.496    622.444     10.053    544.483    620.414    546.513    544.483    544.483
 55.570    579.394    625.562    -46.169    544.553    623.539    546.576    544.553    544.553
 55.670    651.000    630.053     20.947    544.623    628.021    546.654    544.623    544.623
 55.770    645.000    636.203      8.797    544.693    634.145    546.751    544.693    544.693
 55.870    624.000    644.589    -20.589    544.763    642.482    546.869    544.763    544.763
 55.970    663.000    656.327      6.673    544.834    654.143    547.016    544.834    544.834
 56.070    634.310    673.510    -39.201    544.906    671.207    547.205    544.906    544.906
 56.170    729.073    699.848     29.225    544.977    697.355    547.463    544.977    544.977
 56.270    723.874    741.385    -17.511    545.049    738.591    547.831    545.049    545.049
 56.370    818.184    806.982     11.202    545.122    803.711    548.371    545.122    545.122
 56.470    900.000    907.953     -7.953    545.194    903.954    549.160    545.194    545.194
 56.570   1033.000   1056.233    -23.233    545.267   1051.171    550.282    545.267    545.267
 56.670   1269.195   1260.707      8.488    545.340   1254.189    551.798    545.340    545.340
 56.770   1507.000   1522.089    -15.089    545.413   1513.720    553.714    545.413    545.413
 56.870   1907.639   1827.299     80.340    545.487   1816.780    555.941    545.487    545.487
 56.970   2278.000   2144.466    133.534    545.560   2131.723    558.259    545.560    545.560
 57.070   2319.658   2420.741   -101.083    545.634   2406.070    560.307    545.634    545.634
 57.170   2584.000   2590.312     -6.312    545.708   2574.458    561.630    545.708    545.708
 57.270   2688.233   2601.769     86.465    545.783   2585.812    561.878    545.783    545.783
 57.370   2517.000   2451.476     65.524    545.857   2436.494    561.028    545.857    545.857
 57.470   2266.000   2186.542     79.458    545.932   2173.271    559.410    545.932    545.932
 57.570   1886.773   1873.220     13.552    546.006   1861.935    557.487    546.006    546.006
 57.670   1644.892   1566.892     78.000    546.081   1557.485    555.654    546.081    546.081
 57.770   1241.000   1302.083    -61.083    546.156   1294.193    554.176    546.156    546.156
 57.870   1029.000   1094.132    -65.132    546.232   1087.248    553.211    546.232    546.232
 57.970    880.000    944.159    -64.159    546.307    937.662    552.868    546.307    546.307
 58.070    852.000    844.824      7.176    546.382    837.961    553.284    546.382    546.382
 58.170    802.000    785.773     16.227    546.458    777.554    554.697    546.458    546.458
 58.270    761.000    757.662      3.338    546.533    746.718    557.482    546.533    546.533
 58.370    814.673    754.177     60.495    546.609    738.649    562.130    546.609    546.609
 58.470    814.223    772.162     42.062    546.685    749.724    569.102    546.685    546.685
 58.570    794.000    810.418    -16.418    546.760    778.551    578.596    546.760    546.760
 58.670    829.963    867.891    -37.927    546.836    824.433    590.253    546.836    546.836
 58.770    952.000    941.804     10.196    546.912    885.739    602.929    546.912    546.912
 58.870   1015.000   1026.198    -11.198    546.987    958.518    614.620    546.987    546.987
 58.970   1125.000   1111.568     13.432    547.063   1035.866    622.726    547.063    547.063
 59.070   1139.734   1186.935    -47.201    547.139   1109.125    624.925    547.139    547.139
 59.170   1258.000   1244.073     13.927    547.215   1170.760    620.522    547.215    547.215
 59.270   1206.185   1279.259    -73.074    547.290   1215.580    610.983    547.290    547.290
 59.370   1247.000   1290.559    -43.559    547.366   1239.032    598.924    547.366    547.366
 59.470   1340.000   1277.185     62.815    547.441   1237.871    586.797    547.441    547.441
 59.570   1204.306   1243.747    -39.441    547.517   1215.035    576.268    547.517    547.517
 59.670   1234.679   1202.184     32.495    547.592   1181.669    568.130    547.592    547.592
 59.770   1191.133   1166.966     24.167    547.668   1152.183    562.443    547.668    547.668
 59.870   1173.000   1149.445     23.555    547.743   1138.340    558.803    547.743    547.743
 59.970   1150.983   1156.327     -5.345    547.818   1147.429    556.626    547.818    547.818
 60.070   1261.000   1190.902     70.098    547.893   1183.286    555.370    547.893    547.893
 60.170   1284.230   1253.372     30.857    547.968   1246.502    554.651    547.968    547.968
 60.270   1313.615   1338.475    -24.859    548.042   1332.049    554.237    548.042    548.042
 60.370   1430.085   1432.664     -2.579    548.117   1426.514    554.004    548.117    548.117
 60.470   1566.102   1513.778     52.324    548.191   1507.815    553.880    548.191    548.191
 60.570   1526.000   1555.451    -29.451    548.265   1549.632    553.824    548.265    548.265
 60.670   1470.858   1537.948    -67.090    548.339   1532.255    553.809    548.339    548.339
 60.770   1489.000   1459.780     29.220    548.413   1454.188    553.831    548.413    548.413
 60.870   1376.000   1338.226     37.774    548.487   1332.684    553.902    548.487    548.487
 60.970   1196.000   1198.294     -2.294    548.560   1192.721    554.046    548.560    548.560
 61.070   1030.000   1062.019    -32.019    548.633   1056.299    554.295    548.633    548.633
 61.170    994.000    944.235     49.765    548.706    938.208    554.694    548.706    548.706
 61.270    905.603    852.561     53.043    548.779    845.995    555.315    548.779    548.779
 61.370    792.000    789.038      2.962    548.851    781.585    556.278    548.851    548.851
 61.470    754.811    752.463      2.348    548.923    743.572    557.785    548.923    548.923
 61.570    798.609    740.773     57.836    548.995    729.593    560.138    548.995    548.995
 61.670    803.000    752.833     50.167    549.066    738.095    563.754    549.066    549.066
 61.770    817.000    789.125     27.875    549.137    769.063    569.131    549.137    549.137
 61.870    880.000    851.194     28.806    549.208    823.559    576.751    549.208    549.208
 61.970    982.429    940.071     42.357    549.279    902.301    586.929    549.279    549.279
 62.070   1105.000   1054.117     50.883    549.349   1003.704    599.611    549.349    549.349
 62.170   1139.000   1186.872    -47.872    549.419   1121.933    614.180    549.419    549.419
 62.270   1314.000   1325.405    -11.405    549.488   1245.397    629.300    549.488    549.488
 62.370   1372.000   1449.698    -77.698    549.557   1356.189    642.867    549.557    549.557
 62.470   1496.000   1534.751    -38.751    549.626   1431.951    652.241    549.626    549.626
 62.570   1490.330   1558.357    -68.027    549.694   1452.823    655.075    549.694    549.694
 62.670   1462.000   1513.107    -51.107    549.762   1412.167    650.587    549.762    549.762
 62.770   1457.814   1411.584     46.229    549.829   1321.218    640.117    549.829    549.829
 62.870   1208.000   1278.099    -70.099    549.896   1201.696    626.249    549.896    549.896
 62.970   1087.000   1136.748    -49.748    549.963   1075.138    611.544    549.963    549.963
 63.070    977.000   1005.334    -28.334    550.029    957.450    597.896    550.029    550.029
 63.170    850.000    894.346    -44.346    550.095    858.008    586.423    550.095    550.095
 63.270    772.000    807.882    -35.882    550.160    780.471    577.564    550.160    550.160
 63.370    707.000    745.259    -38.259    550.225    724.224    571.252    550.225    550.225
 63.470    743.022    702.933     40.089    550.289    686.095    567.118    550.289    550.289
 63.570    632.000    676.329    -44.329    550.353    661.987    564.684    550.353    550.353
 63.670    649.000    661.212    -12.212    550.416    648.102    563.515    550.416    550.416
 63.770    653.000    654.467     -1.467    550.479    641.627    563.304    550.479    550.479
 63.870    700.000    654.377     45.623    550.541    640.978    563.923    550.541    550.541
 63.970    607.153    660.595    -53.443    550.602    645.741    565.436    550.602    550.602
 64.070    652.000    673.941    -21.941    550.664    656.465    568.112    550.664    550.664
 64.170    663.017    696.100    -33.083    550.724    674.361    572.426    550.724    550.724
 64.270    725.000    729.194     -4.194    550.784    700.889    579.039    550.784    550.784
 64.370    814.374    775.279     39.095    550.843    737.324    588.732    550.843    550.843
 64.470    812.151    835.487    -23.335    550.902    784.061    602.241    550.902    550.902
 64.570   1003.000    909.228     93.772    550.960    840.034    620.044    550.960    550.960
 64.670   1050.000    993.286     56.714    551.018    902.098    642.073    551.018    551.018
 64.770   1117.000   1081.047     35.953    551.075    964.536    667.434    551.075    551.075
 64.870   1257.000   1162.342     94.658    551.131   1019.131    694.178    551.131    551.131
 64.970   1218.634   1224.853     -6.219    551.187   1056.669    719.205    551.187    551.187
 65.070   1240.000   1257.578    -17.578    551.242   1070.181    738.486    551.242    551.242
 65.170   1329.000   1254.775     74.225    551.296   1057.972    747.969    551.296    551.296
 65.270   1208.733   1218.018     -9.284    551.350   1023.994    745.275    551.350    551.350
 65.370   1222.000   1155.504     66.496    551.403    975.782    731.058    551.403    551.403
 65.470   1024.959   1078.915    -53.956    551.455    921.698    708.634    551.455    551.455
 65.570    970.000    999.458    -29.458    551.507    868.685    682.265    551.507    551.507
 65.670    891.000    925.252    -34.252    551.558    821.129    655.683    551.558    551.558
 65.770    828.512    860.686    -32.174    551.608    780.811    631.497    551.608    551.608
 65.870    799.000    807.093     -8.093    551.658    747.601    611.171    551.658    551.658
 65.970    699.000    763.987    -64.987    551.707    720.520    595.195    551.707    551.707
 66.070    692.627    730.162    -37.535    551.755    698.585    583.352    551.755    551.755
 66.170    678.000    704.243    -26.243    551.802    681.060    575.001    551.802    551.802
 66.270    664.000    684.845    -20.845    551.848    667.365    569.341    551.848    551.848
 66.370    628.000    670.696    -42.696    551.894    656.998    565.601    551.894    551.894
 66.470    618.019    660.749    -42.730    551.939    649.546    563.147    551.939    551.939
 66.570    604.000    654.234    -50.234    551.983    644.703    561.516    551.983    551.983
 66.670    608.000    650.638    -42.638    552.026    642.268    560.398    552.026    552.026
 66.770    647.875    649.674     -1.799    552.069    642.143    559.600    552.069    552.069
 66.870    672.088    651.277     20.811    552.111    644.376    559.011    552.111    552.111
 66.970    696.000    655.672     40.328    552.152    649.249    558.574    552.152    552.152
 67.070    626.000    663.517    -37.517    552.192    657.448    558.260    552.192    552.192
 67.170    711.988    676.116     35.872    552.231    670.279    558.065    552.231    552.231
 67.270    689.503    695.685     -6.182    552.269    689.947    558.004    552.269    552.269
 67.370    721.000    725.611     -4.611    552.307    719.803    558.109    552.307    552.307
 67.470    823.000    770.592     52.408    552.343    764.497    558.429    552.343    552.343
 67.570    791.369    836.504    -45.135    552.379    829.840    559.030    552.379    552.379
 67.670    951.658    929.814     21.844    552.414    922.225    559.985    552.414    552.414
 67.770   1064.000   1056.419      7.581    552.448   1047.483    561.362    552.448    552.448
 67.870   1193.000   1219.956    -26.956    552.481   1209.213    563.203    552.481    552.481
 67.970   1391.000   1419.792    -28.792    552.513   1406.793    565.496    552.513    552.513
 68.070   1581.000   1649.026    -68.026    552.544   1633.413    568.156    552.544    552.544
 68.170   1887.000   1892.826     -5.826    552.574   1874.422    571.004    552.574    552.574
 68.270   2120.000   2127.418     -7.418    552.604   2106.335    573.752    552.604    552.604
 68.370   2266.724   2320.882    -54.158    552.632   2297.618    576.014    552.632    552.632
 68.470   2449.671   2438.502     11.169    552.659   2413.968    577.372    552.659    552.659
 68.570   2427.000   2454.565    -27.565    552.686   2429.970    577.514    552.686    552.686
 68.670   2414.000   2365.135     48.865    552.711   2341.724    576.394    552.711    552.711
 68.770   2236.000   2190.441     45.559    552.736   2169.208    574.253    552.736    552.736
 68.870   1933.000   1964.158    -31.158    552.759   1945.694    571.496    552.759    552.759
 68.970   1745.000   1720.032     24.968    552.782   1704.531    568.528    552.782    552.782
 69.070   1519.974   1484.500     35.475    552.803   1471.843    565.668    552.803    552.803
 69.170   1237.000   1274.952    -37.952    552.824   1264.820    563.124    552.824    552.824
 69.270   1140.000   1100.449     39.551    552.843   1092.417    561.005    552.843    552.843
 69.370    931.000    963.249    -32.249    552.861    956.869    559.338    552.861    552.861
 69.470    843.000    860.731    -17.731    552.879    855.588    558.091    552.879    552.879
 69.570    827.000    787.435     39.565    552.895    783.180    557.198    552.895    552.895
 69.670    743.000    736.875      6.125    552.910    733.238    556.581    552.910    552.910
 69.770    729.423    702.869     26.555    552.924    699.650    556.166    552.924    552.924
 69.870    721.000    680.275     40.725    552.938    677.338    555.890    552.938    552.938
 69.970    626.216    665.240    -39.025    552.950    662.493    555.708    552.950    552.950
 70.070    683.000    655.109     27.891    552.961    652.491    555.586    552.961    552.961
 70.170    618.000    648.177    -30.177    552.970    645.646    555.506    552.970    552.970
 70.270    651.000    643.412      7.588    552.979    640.941    555.453    552.979    552.979
 70.370    651.000    640.231     10.769    552.987    637.797    555.422    552.987    552.987
 70.470    629.072    638.324     -9.252    552.993    635.909    555.408    552.993    552.993
 70.570    615.203    637.562    -22.360    552.999    635.151    555.408    552.999    552.999
 70.670    693.000    637.966     55.034    553.003    635.537    555.428    553.003    553.003
 70.770    629.000    639.688    -10.688    553.006    637.219    555.471    553.006    553.006
 70.870    653.980    643.072     10.908    553.008    640.533    555.540    553.008    553.008
 70.970    698.426    648.734     49.692    553.009    646.087    555.646    553.009    553.009
 71.070    704.503    657.683     46.820    553.009    654.871    555.807    553.009    553.009
 71.170    711.289    671.457     39.832    553.007    668.397    556.049    553.007    553.007
 71.270    694.646    692.248      2.398    553.004    688.818    556.408    553.004    553.004
 71.370    751.596    722.951     28.645    553.001    718.980    556.935    553.001    553.001
 71.470    750.000    767.067    -17.067    552.996    762.325    557.686    552.996    552.996
 71.570    846.197    828.377     17.820    552.989    822.568    558.728    552.989    552.989
 71.670    972.360    910.344     62.016    552.982    903.115    560.117    552.982    552.982
 71.770    997.000   1015.265    -18.265    552.973   1006.222    561.894    552.973    552.973
 71.870   1177.000   1143.259     33.741    552.963   1132.008    564.060    552.963    552.963
 71.970   1283.000   1291.257     -8.257    552.952   1277.456    566.567    552.952    552.952
 72.070   1508.000   1452.120     55.880    552.940   1435.548    569.294    552.940    552.940
 72.170   1661.000   1613.988     47.012    552.927   1594.627    572.044    552.927    552.927
 72.270   1738.292   1760.153    -21.861    552.912   1738.270    574.539    552.912    552.912
 72.370   1858.000   1870.443    -12.443    552.896   1846.644    576.441    552.896    552.896
 72.470   1947.709   1925.630     22.079    552.879   1900.846    577.429    552.879    552.879
 72.570   1875.000   1914.574    -39.574    552.860   1889.918    577.318    552.860    552.860
 72.670   1775.000   1839.591    -64.591    552.840   1816.130    576.144    552.840    552.840
 72.770   1796.000   1715.190     80.810    552.819   1693.740    574.153    552.819    552.819
 72.870   1501.545   1561.490    -59.945    552.797   1542.528    571.678    552.797    552.797
 72.970   1385.000   1397.785    -12.785    552.773   1381.466    569.039    552.773    552.773
 73.070   1261.481   1239.253     22.228    552.748   1225.486    566.483    552.748    552.748
 73.170   1123.000   1096.190     26.810    552.722   1084.718    564.175    552.722    552.722
 73.270    979.000    974.344      4.656    552.695    964.826    562.203    552.695    552.695
 73.370    912.741    875.661     37.080    552.666    867.727    560.594    552.666    552.666
 73.470    822.000    799.228     22.772    552.636    792.524    559.336    552.636    552.636
 73.570    765.429    742.309     23.120    552.604    736.518    558.392    552.604    552.604
 73.670    717.000    701.311     15.689    552.572    696.161    557.719    552.572    552.572
 73.770    687.000    672.551     14.449    552.538    667.811    557.274    552.538    552.538
 73.870    603.817    652.761    -48.944    552.502    648.237    557.024    552.502    552.502
 73.970    596.106    639.334    -43.228    552.466    634.851    556.947    552.466    552.466
 74.070    594.000    630.359    -36.359    552.427    625.754    557.033    552.427    552.427
 74.170    636.000    624.535     11.465    552.388    619.645    557.281    552.388    552.388
 74.270    602.000    621.023    -19.023    552.347    615.681    557.694    552.347    552.347
 74.370    655.294    619.289     36.005    552.305    613.329    558.274    552.305    552.305
 74.470    635.000    618.975     16.025    552.262    612.236    559.014    552.262    552.262
 74.570    684.000    619.790     64.210    552.217    612.130    559.895    552.217    552.217
 74.670    574.941    621.437    -46.496    552.171    612.753    560.879    552.171    552.171
 74.770    630.000    623.568      6.432    552.123    613.816    561.904    552.123    552.123
 74.870    591.223    625.755    -34.531    552.074    614.974    562.889    552.074    552.074
 74.970    692.000    627.504     64.496    552.024    615.834    563.733    552.024    552.024
 75.070    592.814    628.327    -35.513    551.972    616.007    564.334    551.972    551.972
 75.170    660.000    627.882     32.118    551.919    615.220    564.624    551.919    551.919
 75.270    585.006    626.132    -41.126    551.864    613.431    564.607    551.864    551.864
 75.370    676.475    623.384     53.091    551.809    610.866    564.364    551.809    551.809
 75.470    684.000    620.200     63.800    551.751    607.942    564.042    551.751    551.751
 75.570    673.412    617.249     56.163    551.693    605.153    563.815    551.693    551.693
 75.670    625.164    615.224      9.940    551.632    603.003    563.874    551.632    551.632
 75.770    606.000    614.814     -8.814    551.571    601.980    564.418    551.571    551.571
 75.870    612.313    616.705     -4.392    551.508    602.563    565.656    551.508    551.508
 75.970    569.718    621.576    -51.858    551.444    605.212    567.805    551.444    551.444
 76.070    623.571    630.064     -6.493    551.378    610.356    571.076    551.378    551.378
 76.170    706.000    642.704     63.296    551.310    618.343    575.651    551.310    551.310
 76.270    668.000    659.826      8.174    551.242    629.389    581.650    551.242    551.242
 76.370    626.931    681.444    -54.513    551.172    643.489    589.087    551.172    551.172
 76.470    665.239    707.124    -41.886    551.100    660.346    597.829    551.100    551.100
 76.570    708.000    735.875    -27.875    551.027    679.286    607.556    551.027    551.027
 76.670    812.000    766.047     45.953    550.953    699.201    617.728    550.953    550.953
 76.770    811.000    795.280     15.720    550.877    718.510    627.567    550.877    550.877
 76.870    821.000    820.548      0.452    550.799    735.189    636.074    550.799    550.799
 76.970    868.000    838.482     29.518    550.721    746.985    642.132    550.721    550.721
 77.070    854.000    846.148      7.852    550.640    751.936    644.769    550.640    550.640
 77.170    817.858    842.092    -24.233    550.559    749.070    643.503    550.559    550.559
 77.270    782.061    826.982    -44.921    550.475    738.831    638.559    550.475    550.475
 77.370    835.700    803.288     32.412    550.391    722.866    630.756    550.391    550.391
 77.470    777.000    774.285      2.715    550.305    703.360    621.184    550.305    550.305
 77.570    768.744    743.146     25.598    550.217    682.431    610.896    550.217    550.217
 77.670    713.000    712.450      0.550    550.128    661.799    600.751    550.128    550.128
 77.770    672.000    684.057    -12.057    550.037    642.707    591.366    550.037    550.037
 77.870    628.000    659.125    -31.125    549.945    625.925    583.130    549.945    549.945
 77.970    624.199    638.212    -14.013    549.852    611.828    576.224    549.852    549.852
 78.070    581.000    621.370    -40.370    549.757    600.449    570.669    549.757    549.757
 78.170    615.000    608.296      6.704    549.661    591.586    566.364    549.661    549.661
 78.270    592.000    598.473     -6.473    549.563    584.892    563.138    549.563    549.563
 78.370    548.286    591.293    -43.006    549.463    579.961    560.790    549.463    549.463
 78.470    563.000    586.157    -23.157    549.362    576.393    559.122    549.362    549.362
 78.570    574.000    582.540     -8.540    549.260    573.836    557.960    549.260    549.260
 78.670    589.716    580.015      9.701    549.156    572.005    557.163    549.156    549.156
 78.770    585.431    578.263      7.168    549.051    570.685    556.626    549.051    549.051
 78.870    594.000    577.059     16.941    548.944    569.725    556.274    548.944    548.944
 78.970    564.000    576.254    -12.254    548.835    569.026    556.060    548.835    548.835
 79.070    623.581    575.758     47.822    548.725    568.526    555.955    548.725    548.725
 79.170    562.000    575.526    -13.526    548.614    568.194    555.944    548.614    548.614
 79.270    563.000    575.542    -12.542    548.501    568.016    556.025    548.501    548.501
 79.370    531.259    575.815    -44.555    548.387    567.995    556.204    548.387    548.387
 79.470    542.000    576.373    -34.373    548.271    568.144    556.498    548.271    548.271
 79.570    574.000    577.271     -3.271    548.154    568.483    556.938    548.154    548.154
 79.670    574.000    578.588     -4.588    548.035    569.044    557.575    548.035    548.035
 79.770    563.000    580.445    -17.445    547.914    569.866    558.489    547.914    547.914
 79.870    559.955    583.016    -23.061    547.793    571.002    559.802    547.793    547.793
 79.970    591.939    586.556      5.383    547.669    572.522    561.697    547.669    547.669
 80.070    559.000    591.420    -32.420    547.544    574.519    564.438    547.544    547.544
 80.170    604.000    598.091      5.909    547.418    577.119    568.381    547.418    547.418
 80.270    632.484    607.189     25.295    547.290    580.484    573.983    547.290    547.290
 80.370    587.000    619.458    -32.458    547.161    584.815    581.790    547.161    547.161
 80.470    616.819    635.725    -18.906    547.030    590.345    592.393    547.030    547.030
 80.570    605.296    656.823    -51.527    546.897    597.335    606.366    546.897    546.897
 80.670    651.969    683.475    -31.506    546.764    606.054    624.161    546.764    546.764
 80.770    671.866    716.154    -44.289    546.628    616.765    645.991    546.628    546.628
 80.870    732.129    754.908    -22.779    546.491    629.673    671.699    546.491    546.491
 80.970    741.986    799.161    -57.175    546.353    644.851    700.634    546.353    546.353
 81.070    907.687    847.542     60.145    546.213    662.159    731.567    546.213    546.213
 81.170    921.430    897.786     23.645    546.072    681.175    762.657    546.072    546.072
 81.270    926.938    946.774    -19.836    545.929    701.165    791.518    545.929    545.929
 81.370    948.342    990.811    -42.469    545.785    721.124    815.460    545.785    545.785
 81.470   1016.194   1026.220    -10.026    545.639    739.906    831.954    545.639    545.639
 81.570   1074.000   1050.120     23.880    545.491    756.408    839.219    545.491    545.491
 81.670   1046.442   1060.970    -14.528    545.343    769.723    836.619    545.343    545.343
 81.770   1006.619   1058.646    -52.027    545.192    779.216    824.666    545.192    545.192
 81.870   1047.000   1044.230      2.770    545.040    784.550    804.777    545.040    545.040
 81.970   1100.000   1019.744     80.256    544.887    785.693    779.004    544.887    544.887
 82.070    968.786    987.780    -18.994    544.732    782.839    749.747    544.732    544.732
 82.170    995.681    950.992     44.689    544.576    776.259    719.387    544.576    544.576
 82.270    922.000    911.875     10.125    544.418    766.385    689.987    544.418    544.418
 82.370    905.000    872.426     32.574    544.259    753.711    663.052    544.259    544.259
 82.470    813.000    834.254    -21.254    544.099    738.932    639.498    544.099    544.099
 82.570    780.000    798.565    -18.565    543.936    722.867    619.708    543.936    543.936
 82.670    773.000    766.069      6.931    543.773    706.271    603.640    543.773    543.773
 82.770    748.228    736.986     11.242    543.608    689.701    590.956    543.608    543.608
 82.870    736.137    711.196     24.941    543.441    673.540    581.154    543.441    543.441
 82.970    678.000    688.466    -10.466    543.273    658.102    573.687    543.273    543.273
 83.070    720.803    668.612     52.190    543.104    643.712    568.047    543.104    543.104
 83.170    627.455    651.556    -24.101    542.933    630.716    563.809    542.933    542.933
 83.270    639.808    637.279      2.530    542.760    619.429    560.639    542.760    542.760
 83.370    603.000    625.778    -22.778    542.586    610.090    558.295    542.586    542.586
 83.470    650.000    617.032     32.968    542.411    602.849    556.606    542.411    542.411
 83.570    626.317    610.975     15.341    542.234    597.758    555.456    542.234    542.234
 83.670    584.000    607.488    -23.488    542.056    594.775    554.765    542.056    542.056
 83.770    577.000    606.371    -29.371    541.877    593.766    554.470    541.877    541.877
 83.870    557.000    607.336    -50.336    541.696    594.500    554.512    541.696    541.696
 83.970    572.000    609.992    -37.992    541.513    596.656    554.822    541.513    541.513
 84.070    581.000    613.849    -32.849    541.329    599.824    555.320    541.329    541.329
 84.170    605.000    618.318    -13.318    541.144    603.513    555.909    541.144    541.144
 84.270    582.391    622.731    -40.340    540.957    607.168    556.476    540.957    540.957
 84.370    579.000    626.375    -47.375    540.769    610.197    556.900    540.769    540.769
 84.470    588.000    628.570    -40.570    540.580    612.037    557.064    540.580    540.580
 84.570    624.000    628.798     -4.798    540.389    612.260    556.878    540.389    540.389
 84.670    590.000    626.837    -36.837    540.196    610.681    556.307    540.196    540.196
 84.770    612.000    622.823    -10.823    540.003    607.407    555.377    540.003    540.003
 84.870    604.294    617.179    -12.885    539.807    602.780    554.168    539.807    539.807
 84.970    599.000    610.471    -11.471    539.611    597.260    552.789    539.611    539.611
 85.070    622.000    603.277     18.723    539.413    591.311    551.350    539.413    539.413
 85.170    623.794    596.110     27.683    539.214    585.344    549.956    539.214    539.214
 85.270    603.000    589.384     13.616    539.013    579.681    548.696    539.013    539.013
 85.370    595.000    583.407     11.593    538.811    574.556    547.646    538.811    538.811
 85.470    576.000    578.386     -2.386    538.608    570.111    546.869    538.608    538.608
 85.570    530.000    574.436    -44.436    538.403    566.408    546.418    538.403    538.403
 85.670    582.026    571.598     10.427    538.197    563.449    546.335    538.197    538.197
 85.770    569.632    569.860     -0.227    537.990    561.185    546.653    537.990    537.990
 85.870    581.000    569.172     11.828    537.781    559.545    547.397    537.781    537.781
 85.970    553.000    569.469    -16.469    537.571    558.451    548.576    537.571    537.571
 86.070    535.211    570.673    -35.462    537.359    557.835    550.184    537.359    537.359
 86.170    593.000    572.703     20.297    537.147    557.643    552.191    537.147    537.147
 86.270    559.000    575.479    -16.479    536.933    557.858    554.535    536.933    536.933
 86.370    589.000    578.915     10.085    536.717    558.490    557.122    536.717    536.717
 86.470    600.026    582.918     17.108    536.501    559.579    559.816    536.501    536.501
 86.570    546.000    587.388    -41.388    536.283    561.199    562.444    536.283    536.283
 86.670    580.000    592.214    -12.214    536.064    563.450    564.796    536.064    536.064
 86.770    661.000    597.285     63.715    535.843    566.450    566.642    535.843    535.843
 86.870    604.000    602.508      1.492    535.622    570.326    567.763    535.622    535.622
 86.970    658.000    607.842     50.158    535.399    575.198    567.996    535.399    535.399
 87.070    601.709    613.325    -11.616    535.174    581.159    567.287    535.174    535.174
 87.170    651.033    619.074     31.959    534.949    588.259    565.702    534.949    534.949
 87.270    648.000    625.230     22.770    534.722    596.475    563.407    534.722    534.722
 87.370    647.440    631.891     15.549    534.494    605.693    560.612    534.494    534.494
 87.470    649.000    639.043      9.957    534.265    615.685    557.532    534.265    534.265
 87.570    632.892    646.522    -13.630    534.035    626.098    554.357    534.035    534.035
 87.670    656.869    653.996      2.873    533.803    636.443    551.244    533.803    533.803
 87.770    670.565    660.964      9.601    533.571    646.101    548.313    533.571    533.571
 87.870    673.000    666.793      6.207    533.337    654.357    545.646    533.337    533.337
 87.970    633.000    670.806    -37.806    533.101    660.487    543.291    533.101    533.101
 88.070    638.907    672.427    -33.520    532.865    663.900    541.264    532.865    532.865
 88.170    656.000    671.354    -15.354    532.628    664.303    539.556    532.628    532.628
 88.270    680.678    667.656     13.021    532.389    661.790    538.140    532.389    532.389
 88.370    651.000    661.754    -10.754    532.149    656.818    536.982    532.149    532.149
 88.470    659.000    654.295      4.705    531.908    650.070    536.043    531.908    531.908
 88.570    628.000    646.016    -18.016    531.666    642.320    535.286    531.666    531.666
 88.670    622.000    637.640    -15.640    531.423    634.326    534.676    531.423    531.423
 88.770    649.000    629.825     19.175    531.179    626.768    534.188    531.179    531.179
 88.870    576.306    623.121    -46.815    530.933    620.222    533.798    530.933    530.933
 88.970    583.000    617.948    -34.948    530.687    615.123    533.490    530.687    530.687
 89.070    593.000    614.575    -21.575    530.440    611.754    533.250    530.440    530.440
 89.170    595.970    613.108    -17.137    530.191    610.232    533.066    530.191    530.191
 89.270    600.000    613.488    -13.488    529.941    610.511    532.928    529.941    529.941
 89.370    611.096    615.502     -4.405    529.691    612.387    532.824    529.691    529.691
 89.470    606.000    618.794    -12.794    529.439    615.519    532.741    529.439    529.439
 89.570    590.000    622.885    -32.885    529.186    619.442    532.666    529.186    529.186
 89.670    619.000    627.196     -8.196    528.932    623.592    532.581    528.932    528.932
 89.770    585.000    631.083    -46.083    528.678    627.343    532.469    528.678    528.678
 89.870    654.000    633.898     20.102    528.422    630.064    532.312    528.422    528.422
 89.970    652.000    635.081     16.919    528.165    631.213    532.094    528.165    528.165
 90.070    602.000    634.270    -32.270    527.907    630.434    531.807    527.907    527.907
 90.170    643.000    631.379     11.621    527.649    627.642    531.449    527.649    527.649
 90.270    600.000    626.600    -26.600    527.389    623.023    531.027    527.389    527.389
 90.370    610.000    620.333    -10.333    527.128    616.963    530.556    527.128    527.128
 90.470    618.000    613.072      4.928    526.867    609.940    530.051    526.867    526.867
 90.570    625.000    605.314     19.686    526.605    602.435    529.530    526.605    526.605
 90.670    588.000    597.502     -9.502    526.341    594.878    529.006    526.341    526.341
 90.770    584.883    589.999     -5.116    526.077    587.619    528.492    526.077    526.077
 90.870    589.000    583.079      5.921    525.812    580.924    527.995    525.812    525.812
 90.970    581.623    576.928      4.696    525.546    574.973    527.523    525.546    525.546
 91.070    604.000    571.650     32.350    525.279    569.869    527.078    525.279    525.279
 91.170    555.000    567.282    -12.282    525.012    565.645    526.662    525.012    525.012
 91.270    536.000    563.803    -27.803    524.743    562.282    526.274    524.743    524.743
 91.370    575.000    561.161     13.839    524.474    559.729    525.912    524.474    524.474
 91.470    558.000    559.281     -1.281    524.204    557.914    525.574    524.204    524.204
 91.570    579.132    558.085     21.047    523.933    556.763    525.257    523.933    523.933
 91.670    544.000    557.509    -13.509    523.662    556.211    524.960    523.662    523.662
 91.770    579.000    557.510     21.490    523.389    556.217    524.680    523.389    523.389
 91.870    542.000    558.075    -16.075    523.116    556.770    524.418    523.116    523.116
 91.970    580.000    559.226     20.774    522.842    557.890    524.174    522.842    522.842
 92.070    522.876    561.022    -38.147    522.568    559.635    523.949    522.568    522.568
 92.170    567.000    563.558      3.442    522.292    562.096    523.746    522.292    522.292
 92.270    614.022    566.960     47.063    522.017    565.397    523.568    522.017    522.017
 92.370    596.251    571.378     24.873    521.740    569.684    523.421    521.740    521.740
 92.470    545.000    576.980    -31.980    521.463    575.118    523.306    521.463    521.463
 92.570    560.000    583.932    -23.932    521.185    581.866    523.230    521.185    521.185
 92.670    595.000    592.389      2.611    520.906    590.076    523.193    520.906    520.906
 92.770    616.390    602.475     13.916    520.627    599.871    523.199    520.627    520.627
 92.870    598.000    614.262    -16.262    520.347    611.326    523.245    520.347    520.347
 92.970    609.000    627.760    -18.760    520.067    624.451    523.331    520.067    520.067
 93.070    677.000    642.894     34.106    519.786    639.178    523.449    519.786    519.786
 93.170    652.000    659.498     -7.498    519.505    655.350    523.594    519.505    519.505
 93.270    700.237    677.302     22.935    519.223    672.704    523.753    519.223    519.223
 93.370    720.577    695.929     24.649    518.940    690.877    523.918    518.940    518.940
 93.470    756.000    714.903     41.097    518.657    709.404    524.075    518.657    518.657
 93.570    689.000    733.691    -44.691    518.374    727.764    524.215    518.374    518.374
 93.670    778.503    751.780     26.724    518.090    745.444    524.335    518.090    518.090
 93.770    766.000    768.786     -2.786    517.805    762.058    524.440    517.805    517.805
 93.870    728.000    784.566    -56.566    517.520    777.442    524.551    517.520    517.520
 93.970    761.019    799.257    -38.238    517.235    791.696    524.702    517.235    517.235
 94.070    818.000    813.210      4.790    516.949    805.124    524.942    516.949    516.949
 94.170    780.914    826.858    -45.944    516.663    818.106    525.323    516.663    516.663
 94.270    810.417    840.576    -30.158    516.377    830.960    525.902    516.377    516.377
 94.370    908.624    854.589     54.035    516.090    843.867    526.722    516.090    516.090
 94.470    828.468    868.969    -40.501    515.803    856.865    527.818    515.803    515.803
 94.570    927.408    883.682     43.726    515.515    869.908    529.203    515.515    515.515
 94.670    941.000    898.653     42.347    515.228    882.931    530.865    515.228    515.228
 94.770    929.619    913.777     15.842    514.940    895.868    532.767    514.940    514.940
 94.870    898.000    928.856    -30.856    514.651    908.586    534.843    514.651    514.651
 94.970    925.000    943.486    -18.486    514.363    920.778    536.996    514.363    514.363
 95.070    971.000    956.965     14.035    514.074    931.865    539.104    514.074    514.074
 95.170   1028.633    968.278     60.355    513.785    940.975    541.024    513.785    513.785
 95.270    944.587    976.162    -31.574    513.496    947.000    542.600    513.496    513.496
 95.370    989.224    979.269      9.954    513.206    948.745    543.681    513.206    513.206
 95.470   1013.792    976.514     37.278    512.917    945.248    544.144    512.917    512.917
 95.570    978.000    967.255     10.745    512.627    935.938    543.914    512.627    512.627
 95.670    953.000    951.573      1.427    512.338    920.904    542.987    512.338    512.338
 95.770    904.000    930.306    -26.306    512.048    900.917    541.425    512.048    512.048
 95.870    943.000    904.885     38.115    511.758    877.291    539.346    511.758    511.758
 95.970    874.000    877.106     -3.106    511.468    851.671    536.901    511.468    511.468
 96.070    843.000    848.863     -5.863    511.178    825.800    534.242    511.178    511.178
 96.170    854.000    822.018     31.982    510.888    801.392    531.516    510.888    510.888
 96.270    819.000    798.301     20.699    510.598    780.049    528.850    510.598    510.598
 96.370    826.000    779.264     46.736    510.308    763.221    526.348    510.308    510.308
 96.470    702.000    766.264    -64.264    510.018    752.183    524.090    510.018    510.018
 96.570    749.536    760.445    -10.909    509.728    748.030    522.129    509.728    509.728
 96.670    754.000    762.739     -8.739    509.438    751.662    520.493    509.438    509.438
 96.770    738.704    773.860    -35.156    509.149    763.786    519.191    509.149    509.149
 96.870    870.000    794.295     75.705    508.859    784.898    518.215    508.859    508.859
 96.970    817.000    824.291     -7.291    508.570    815.262    517.546    508.570    508.570
 97.070    858.000    863.824     -5.824    508.281    854.883    517.158    508.281    508.281
 97.170    967.376    912.563     54.812    507.992    903.459    517.020    507.992    507.992
 97.270   1001.557    969.817     31.740    507.703    960.335    517.098    507.703    507.703
 97.370   1069.000   1034.483     34.517    507.415   1024.443    517.355    507.415    507.415
 97.470   1148.604   1104.993     43.611    507.126   1094.259    517.752    507.126    507.126
 97.570   1186.000   1179.271      6.729    506.838   1167.750    518.244    506.838    506.838
 97.670   1216.089   1254.685    -38.596    506.551   1242.333    518.783    506.551    506.551
 97.770   1264.534   1328.129    -63.595    506.263   1314.959    519.313    506.263    506.263
 97.870   1390.000   1396.069     -6.069    505.976   1382.150    519.777    505.976    505.976
 97.970   1497.000   1454.629     42.371    505.690   1440.094    520.114    505.690    505.690
 98.070   1520.000   1500.014     19.986    505.404   1485.055    520.265    505.404    505.404
 98.170   1578.000   1529.026     48.974    505.118   1513.880    520.182    505.118    505.118
 98.270   1551.000   1539.618     11.382    504.833   1524.553    519.835    504.833    504.833
 98.370   1505.000   1531.320    -26.320    504.548   1516.607    519.218    504.548    504.548
 98.470   1481.000   1505.317    -24.317    504.263   1491.206    518.351    504.263    504.263
 98.570   1429.000   1464.159    -35.159    503.980   1450.859    517.274    503.980    503.980
 98.670   1362.000   1411.271    -49.271    503.696   1398.938    516.038    503.696    503.696
 98.770   1322.000   1350.449    -28.449    503.414   1339.184    514.699    503.414    503.414
 98.870   1318.590   1285.479     33.112    503.132   1275.329    513.309    503.132    503.132
 98.970   1156.380   1219.896    -63.517    502.850   1210.862    511.916    502.850    502.850
 99.070   1160.184   1156.860      3.324    502.569   1148.903    510.559    502.569    502.569
 99.170   1044.000   1099.095    -55.095    502.289   1092.144    509.270    502.289    502.289
 99.270   1030.000   1048.884    -18.884    502.010   1042.847    508.072    502.010    502.010
 99.370    975.300   1008.090    -32.791    501.731   1002.858    506.983    501.731    501.731
 99.470   1013.000    978.188     34.812    501.453    973.644    506.010    501.453    501.453
 99.570    897.768    960.290    -62.522    501.176    956.315    505.156    501.176    501.176
 99.670    930.000    955.178    -25.178    500.899    951.655    504.420    500.899    500.899
 99.770   1022.000    963.312     58.688    500.624    960.131    503.794    500.624    500.624
 99.870   1048.000    984.846     63.154    500.349    981.907    503.271    500.349    500.349
 99.970    964.523   1019.630    -55.106    500.075   1016.845    502.838    500.075    500.075
100.070   1065.679   1067.204     -1.525    499.802   1064.497    502.484    499.802    499.802
100.170   1160.000   1126.786     33.214    499.530   1124.093    502.195    499.530    499.530
100.270   1256.000   1197.241     58.759    499.259   1194.513    501.959    499.259    499.259
100.370   1263.252   1277.053    -13.801    498.989   1274.254    501.764    498.989    498.989
100.470   1436.440   1364.294     72.146    498.720   1361.399    501.597    498.720    498.720
100.570   1469.000   1456.597     12.403    498.452   1453.593    501.446    498.452    498.452
100.670   1494.209   1551.171    -56.962    498.185   1548.059    501.300    498.185    498.185
100.770   1653.690   1644.886      8.804    497.919   1641.674    501.149    497.919    497.919
100.870   1760.871   1734.445     26.426    497.654   1731.152    500.984    497.654    497.654
100.970   1837.000   1816.658     20.342    497.390   1813.308    500.798    497.390    497.390
101.070   1954.421   1888.787     65.634    497.128   1885.406    500.588    497.128    497.128
101.170   1945.000   1948.756     -3.756    496.867   1945.371    500.353    496.867    496.867
101.270   2010.000   1995.160     14.840    496.607   1991.790    500.099    496.607    496.607
101.370   2056.000   2027.146     28.854    496.348   2023.804    499.830    496.348    496.348
101.470   2072.000   2044.175     27.825    496.090   2040.865    499.556    496.090    496.090
101.570   2024.000   2045.874    -21.874    495.834   2042.592    499.286    495.834    495.834
101.670   2027.000   2032.096     -5.096    495.580   2028.827    499.028    495.580    495.580
101.770   2035.000   2003.162     31.838    495.326   1999.887    498.788    495.326    495.326
101.870   1997.000   1960.168     36.832    495.074   1956.861    498.571    495.074    495.074
101.970   1895.000   1905.147    -10.147    494.824   1901.780    498.381    494.824    494.824
102.070   1801.000   1840.987    -39.987    494.575   1837.532    498.217    494.575    494.575
102.170   1717.000   1771.100    -54.100    494.327   1767.532    498.078    494.327    494.327
102.270   1614.000   1698.985    -84.985    494.081   1695.281    497.959    494.081    494.081
102.370   1582.000   1627.825    -45.825    493.837   1623.972    497.854    493.837    493.837
102.470   1555.000   1560.217     -5.217    493.594   1556.210    497.753    493.594    493.594
102.570   1463.651   1498.045    -34.394    493.353   1493.889    497.650    493.353    493.353
102.670   1419.410   1442.441    -23.031    493.113   1438.150    497.534    493.113    493.113
102.770   1275.000   1393.817   -118.817    492.875   1389.413    497.399    492.875    492.875
102.870   1302.227   1351.921    -49.694    492.639   1347.433    497.239    492.639    492.639
102.970   1258.000   1315.913    -57.913    492.405   1311.373    497.048    492.405    492.405
103.070   1280.000   1284.463     -4.463    492.172   1279.909    496.824    492.172    492.172
103.170   1237.950   1255.900    -17.950    491.942   1251.373    496.563    491.942    491.942
103.270   1189.000   1228.402    -39.402    491.713   1223.944    496.263    491.713    491.713
103.370   1258.119   1200.244     57.875    491.486   1195.898    495.923    491.486    491.486
103.470   1142.000   1170.041    -28.041    491.261   1165.851    495.542    491.261    491.261
103.570   1142.006   1136.944      5.062    491.038   1132.948    495.124    491.038    491.038
103.670   1066.000   1100.703    -34.703    490.816   1096.933    494.675    490.816    490.816
103.770   1116.230   1061.604     54.626    490.597   1058.087    494.201    490.597    490.597
103.870   1026.000   1020.318      5.682    490.380   1017.070    493.712    490.380    490.380
103.970   1001.000    977.725     23.275    490.165    974.753    493.217    490.165    490.165
104.070    926.000    934.763     -8.763    489.952    932.067    492.723    489.952    489.952
104.170    863.000    892.337    -29.337    489.741    889.910    492.238    489.741    489.741
104.270    798.147    851.260    -53.113    489.533    849.089    491.768    489.533    489.533
104.370    771.321    812.220    -40.900    489.327    810.288    491.316    489.327    489.327
104.470    737.000    775.772    -38.772    489.123    774.059    490.886    489.123    489.123
104.570    755.000    742.322     12.678    488.921    740.807    490.481    488.921    488.921
104.670    749.000    712.135     36.865    488.721    710.795    490.100    488.721    488.721
104.770    665.000    685.337    -20.337    488.524    684.150    489.745    488.524    488.524
104.870    631.000    661.929    -30.929    488.330    660.873    489.414    488.330    488.330
104.970    641.000    641.806     -0.806    488.137    640.860    489.106    488.137    488.137
105.070    690.000    624.781     65.219    487.947    623.927    488.820    487.947    487.947
105.170    665.000    610.604     54.396    487.760    609.826    488.554    487.760    487.760
105.270    601.000    598.987      2.013    487.575    598.270    488.304    487.575    487.575
105.370    590.167    589.684      0.484    487.393    589.013    488.073    487.393    487.393
105.470    583.073    582.391      0.682    487.214    581.753    487.857    487.214    487.214
105.570    601.000    576.861     24.139    487.037    576.247    487.655    487.037    487.037
105.670    581.000    572.868      8.132    486.863    572.267    487.465    486.863    486.863
105.770    580.000    570.228      9.772    486.691    569.631    487.287    486.691    486.691
105.870    584.000    568.801     15.199    486.522    568.200    487.121    486.522    486.522
105.970    576.000    568.487      7.513    486.357    567.873    486.966    486.357    486.357
106.070    613.000    569.222     43.778    486.193    568.587    486.822    486.193    486.193
106.170    611.610    570.978     40.632    486.033    570.312    486.690    486.033    486.033
106.270    620.000    573.749     46.251    485.876    573.043    486.570    485.876    485.876
106.370    606.000    577.550     28.450    485.722    576.795    486.462    485.722    485.722
106.470    538.008    582.406    -44.398    485.570    581.591    486.368    485.570    485.570
106.570    627.000    588.346     38.654    485.422    587.460    486.288    485.422    485.422
106.670    628.000    595.391     32.609    485.277    594.422    486.221    485.277    485.277
106.770    615.000    603.544     11.456    485.135    602.482    486.169    485.135    485.135
106.870    631.000    612.785     18.215    484.996    611.618    486.131    484.996    484.996
106.970    663.283    623.054     40.229    484.860    621.773    486.106    484.860    484.860
107.070    683.000    634.250     48.750    484.727    632.846    486.093    484.727    484.727
107.170    682.335    646.224     36.111    484.598    644.690    486.091    484.598    484.598
107.270    680.892    658.775     22.117    484.472    657.106    486.095    484.472    484.472
107.370    699.000    671.648     27.352    484.349    669.844    486.105    484.349    484.349
107.470    709.000    684.541     24.459    484.230    682.605    486.115    484.230    484.230
107.570    654.459    697.108    -42.648    484.114    695.047    486.122    484.114    484.114
107.670    742.000    708.969     33.031    484.002    706.795    486.121    484.002    484.002
107.770    684.794    719.734    -34.940    483.893    717.464    486.108    483.893    483.893
107.870    709.000    729.030    -20.030    483.788    726.686    486.077    483.788    483.788
107.970    722.000    736.550    -14.550    483.686    734.157    486.026    483.686    483.686
108.070    742.000    742.096     -0.096    483.588    739.683    485.950    483.588    483.588
108.170    714.559    745.620    -31.061    483.494    743.217    485.849    483.494    483.494
108.270    738.000    747.241     -9.241    483.403    744.876    485.724    483.403    483.403
108.370    776.486    747.226     29.260    483.317    744.926    485.577    483.317    483.317
108.470    752.000    745.951      6.049    483.233    743.737    485.412    483.233    483.233
108.570    699.556    743.847    -44.291    483.154    741.737    485.234    483.154    483.154
108.670    687.000    741.343    -54.343    483.079    739.350    485.047    483.079    483.079
108.770    749.389    738.831     10.558    483.008    736.960    484.857    483.008    483.008
108.870    698.288    736.628    -38.340    482.940    734.884    484.667    482.940    482.940
108.970    695.970    734.967    -38.996    482.877    733.349    484.482    482.877    482.877
109.070    715.000    733.982    -18.982    482.818    732.487    484.304    482.818    482.818
109.170    751.000    733.709     17.291    482.762    732.330    484.136    482.762    482.762
109.270    691.000    734.077    -43.077    482.711    732.807    483.981    482.711    482.711
109.370    710.000    734.922    -24.922    482.665    733.751    483.838    482.665    482.665
109.470    759.248    735.987     23.262    482.622    734.906    483.708    482.622    482.622
109.570    712.000    736.944    -24.944    482.584    735.944    483.592    482.584    482.584
109.670    764.000    737.418     26.582    482.550    736.490    483.489    482.550    482.550
109.770    739.000    737.024      1.976    482.520    736.160    483.398    482.520    482.520
109.870    790.379    735.413     54.966    482.495    734.606    483.318    482.495    482.495
109.970    699.000    732.319    -33.319    482.474    731.563    483.248    482.474    482.474
110.070    777.317    727.595     49.722    482.458    726.886    483.188    482.458    482.458
110.170    772.688    721.232     51.456    482.447    720.565    483.135    482.447    482.447
110.270    766.000    713.350     52.650    482.440    712.721    483.091    482.440    482.440
110.370    730.165    704.170     25.995    482.437    703.575    483.054    482.437    482.437
110.470    643.000    693.975    -50.975    482.440    693.412    483.023    482.440    482.440
110.570    674.000    683.072     -9.072    482.447    682.543    482.996    482.447    482.447
110.670    698.009    671.784     26.226    482.459    671.284    482.978    482.459    482.459
110.770    650.000    660.405    -10.405    482.476    659.931    482.968    482.476    482.476
110.870    690.265    649.198     41.067    482.498    648.746    482.966    482.498    482.498
110.970    653.598    638.390     15.208    482.524    637.958    482.971    482.524    482.524
111.070    615.000    628.173    -13.173    482.556    627.758    482.982    482.556    482.556
111.170    589.462    618.700    -29.238    482.593    618.301    483.002    482.593    482.593
111.270    591.000    610.086    -19.086    482.634    609.700    483.028    482.634    482.634
111.370    647.000    602.408     44.592    482.681    602.034    483.061    482.681    482.681
111.470    545.182    595.711    -50.529    482.733    595.346    483.102    482.733    482.733
111.570    618.000    590.006     27.994    482.791    589.649    483.150    482.791    482.791
111.670    608.000    585.279     22.721    482.853    584.927    483.206    482.853    482.853
111.770    618.591    581.491     37.100    482.921    581.144    483.268    482.921    482.921
111.870    586.000    578.582      7.418    482.995    578.237    483.337    482.995    482.995
111.970    531.417    576.497    -45.079    483.074    576.153    483.413    483.074    483.074
112.070    639.000    575.160     63.840    483.158    574.816    483.497    483.158    483.158
112.170    586.000    574.491     11.509    483.248    574.146    483.586    483.248    483.248
112.270    574.802    574.412      0.390    483.343    574.066    483.682    483.343    483.343
112.370    577.000    574.849      2.151    483.444    574.500    483.785    483.444    483.444
112.470    616.552    575.733     40.819    483.551    575.380    483.894    483.551    483.551
112.570    612.000    577.003     34.997    483.664    576.648    484.009    483.664    483.664
112.670    572.000    578.611     -6.611    483.782    578.252    484.130    483.782    483.782
112.770    527.722    580.517    -52.795    483.906    580.155    484.257    483.906    483.906
112.870    555.000    582.695    -27.695    484.036    582.329    484.390    484.036    484.036
112.970    572.000    585.132    -13.132    484.172    584.763    484.529    484.172    484.172
113.070    547.201    587.830    -40.629    484.314    587.457    484.675    484.314    484.314
113.170    627.000    590.805     36.195    484.462    590.428    484.827    484.462    484.462
113.270    567.000    594.086    -27.086    484.616    593.704    484.986    484.616    484.616
113.370    555.000    597.719    -42.719    484.777    597.330    485.152    484.777    484.777
113.470    562.000    601.766    -39.766    484.943    601.369    485.325    484.943    484.943
113.570    610.000    606.308      3.692    485.116    605.903    485.507    485.116    485.116
113.670    609.000    611.455     -2.455    485.295    611.038    485.697    485.295    485.295
113.770    621.000    617.345      3.655    485.481    616.914    485.896    485.481    485.481
113.870    628.873    624.158      4.715    485.673    623.709    486.105    485.673    485.673
113.970    656.000    632.124     23.876    485.871    631.653    486.324    485.871    485.871
114.070    631.505    641.537    -10.031    486.076    641.038    486.553    486.076    486.076
114.170    641.000    652.768    -11.768    486.288    652.237    486.795    486.288    486.288
114.270    658.000    666.285     -8.285    486.506    665.715    487.048    486.506    486.506
114.370    680.534    682.669     -2.135    486.731    682.053    487.315    486.731    486.731
114.470    665.000    702.635    -37.635    486.963    701.964    487.596    486.963    486.963
114.570    770.619    727.051     43.569    487.201    726.315    487.892    487.201    487.201
114.670    750.000    756.954     -6.954    487.447    756.144    488.203    487.447    487.447
114.770    789.000    793.573     -4.573    487.699    792.676    488.530    487.699    487.699
114.870    844.000    838.329      5.671    487.959    837.335    488.873    487.959    487.959
114.970    893.666    892.847      0.819    488.225    891.741    489.235    488.225    488.225
115.070    937.142    958.942    -21.800    488.498    957.711    489.613    488.498    488.498
115.170   1035.000   1038.601     -3.601    488.779   1037.231    490.010    488.779    488.779
115.270   1171.000   1133.947     37.053    489.067   1132.424    490.424    489.067    489.067
115.370   1315.318   1247.192     68.126    489.362   1245.501    490.856    489.362    489.362
115.470   1443.000   1380.553     62.447    489.665   1378.680    491.306    489.665    489.665
115.570   1524.618   1536.171    -11.552    489.975   1534.102    491.772    489.975    489.975
115.670   1642.640   1715.998    -73.358    490.292   1713.722    492.254    490.292    490.292
115.770   2037.000   1921.676    115.324    490.617   1919.183    492.750    490.617    490.617
115.870   2259.000   2154.403    104.597    490.950   2151.683    493.260    490.950    490.950
115.970   2462.000   2414.789     47.211    491.290   2411.838    493.781    491.290    491.290
116.070   2795.017   2702.724     92.293    491.637   2699.538    494.312    491.637    491.637
116.170   3088.000   3017.248     70.752    491.993   3013.828    494.850    491.993    491.993
116.270   3325.000   3356.440    -31.440    492.356   3352.792    495.393    492.356    492.356
116.370   3637.734   3717.338    -79.604    492.728   3713.469    495.940    492.728    492.728
116.470   4101.000   4095.880      5.120    493.107   4091.804    496.488    493.107    493.107
116.570   4430.000   4486.890    -56.890    493.494   4482.621    497.037    493.494    493.494
116.670   4851.000   4884.092    -33.092    493.889   4879.648    497.585    493.889    493.889
116.770   5234.000   5280.167    -46.167    494.293   5275.567    498.133    494.293    494.293
116.870   5805.000   5666.853    138.147    494.704   5662.119    498.680    494.704    494.704
116.970   5813.000   6035.077   -222.077    495.124   6030.232    499.228    495.124    495.124
117.070   6289.000   6375.239    -86.239    495.552   6370.306    499.776    495.552    495.552
117.170   6621.000   6677.547    -56.547    495.988   6672.549    500.326    495.988    495.988
117.270   7090.436   6932.341    158.095    496.433   6927.302    500.877    496.433    496.433
117.370   7090.606   7130.794    -40.188    496.887   7125.737    501.428    496.887    496.887
117.470   7117.692   7265.566   -147.874    497.349   7260.513    501.979    497.349    497.349
117.570   7266.283   7331.488    -65.205    497.819   7326.457    502.529    497.819    497.819
117.670   7308.000   7326.109    -18.109    498.298   7321.116    503.076    498.298    498.298
117.770   7370.000   7249.979    120.021    498.786   7245.038    503.619    498.786    498.786
117.870   7032.000   7106.575    -74.575    499.283   7101.696    504.156    499.283    499.283
117.970   6966.000   6901.902     64.098    499.789   6897.093    504.686    499.789    499.789
118.070   6775.517   6643.868    131.649    500.303   6639.136    505.207    500.303    500.303
118.170   6315.000   6341.589    -26.589    500.827   6336.940    505.717    500.827    500.827
118.270   5826.000   6004.731   -178.731    501.359   6000.174    506.214    501.359    501.359
118.370   5475.000   5642.981   -167.981    501.901   5638.524    506.698    501.901    501.901
118.470   5270.000   5265.638      4.362    502.452   5261.290    507.167    502.452    502.452
118.570   4764.355   4881.331   -116.977    503.012   4877.104    507.622    503.012    503.012
118.670   4544.513   4497.823     46.689    503.582   4493.726    508.065    503.582    503.582
118.770   4202.479   4121.880     80.599    504.161   4117.922    508.497    504.161    504.161
118.870   3753.000   3759.190     -6.190    504.749   3755.381    508.922    504.749    504.749
118.970   3509.000   3414.337     94.663    505.347   3410.682    509.343    505.347    505.347
119.070   3079.000   3090.804    -11.804    505.955   3087.307    509.764    505.955    505.955
119.170   2865.208   2791.021     74.187    506.572   2787.684    510.190    506.572    506.572
119.270   2434.755   2516.448    -81.693    507.199   2513.270    510.625    507.199    507.199
119.370   2290.000   2267.681     22.319    507.836   2264.659    511.072    507.836    507.836
119.470   2033.000   2044.576    -11.576    508.482   2041.705    511.535    508.482    508.482
119.570   1900.000   1846.384     53.616    509.139   1843.655    512.017    509.139    509.139
119.670   1699.000   1671.877     27.123    509.805   1669.281    512.522    509.805    509.805
119.770   1522.000   1519.480      2.520    510.482   1517.005    513.051    510.482    510.482
119.870   1447.000   1387.381     59.619    511.169   1385.014    513.607    511.169    511.169
119.970   1273.000   1273.640     -0.640    511.866   1271.365    514.192    511.866    511.866
120.070   1201.447   1176.273     25.174    512.573   1174.073    514.807    512.573    512.573
120.170   1134.000   1093.327     40.673    513.291   1091.184    515.454    513.291    513.291
120.270    956.995   1022.942    -65.947    514.019   1020.837    516.133    514.019    514.019
120.370    907.000    963.387    -56.387    514.757    961.300    516.846    514.757    514.757
120.470    930.000    913.092     16.908    515.506    911.002    517.592    515.506    515.506
120.570    874.000    870.662      3.338    516.266    868.548    518.372    516.266    516.266
120.670    862.000    834.878     27.122    517.036    832.717    519.186    517.036    517.036
120.770    771.197    804.695    -33.498    517.817    802.464    520.036    517.817    517.817
120.870    736.581    779.228    -42.647    518.609    776.904    520.921    518.609    518.609
120.970    753.000    757.738     -4.738    519.412    755.297    521.842    519.412    519.412
121.070    747.000    739.614      7.386    520.226    737.031    522.799    520.226    520.226
121.170    698.000    724.357    -26.357    521.051    721.606    523.793    521.051    521.051
121.270    727.000    711.561     15.439    521.887    708.615    524.825    521.887    521.887
121.370    654.442    700.895    -46.453    522.735    697.727    525.896    522.735    522.735
121.470    663.981    692.095    -28.114    523.593    688.676    527.007    523.593    523.593
121.570    660.000    684.944    -24.944    524.463    681.245    528.158    524.463    524.463
121.670    635.157    679.266    -44.109    525.344    675.257    529.352    525.344    525.344
121.770    658.000    674.918    -16.918    526.237    670.567    530.589    526.237    526.237
121.870    701.490    671.778     29.712    527.142    667.051    531.870    527.142    527.142
121.970    650.000    669.742    -19.742    528.058    664.605    533.198    528.058    528.058
122.070    649.687    668.719    -19.032    528.986    663.138    534.572    528.986    528.986
122.170    639.560    668.627    -29.067    529.925    662.565    535.994    529.925    529.925
122.270    651.551    669.389    -17.837    530.877    662.809    537.465    530.877    530.877
122.370    673.685    670.928      2.757    531.840    663.795    538.984    531.840    531.840
122.470    632.000    673.169    -41.169    532.816    665.447    540.550    532.816    532.816
122.570    692.000    676.035     15.965    533.803    667.691    542.162    533.803    533.803
122.670    656.167    679.443    -23.276    534.803    670.446    543.816    534.803    534.803
122.770    702.000    683.306     18.694    535.815    673.631    545.509    535.815    535.815
122.870    655.000    687.531    -32.531    536.839    677.159    547.234    536.839    536.839
122.970    707.731    692.021     15.711    537.876    680.936    548.985    537.876    537.876
123.070    661.255    696.667    -35.413    538.925    684.867    550.754    538.925    538.925
123.170    700.000    701.360     -1.360    539.987    688.847    552.530    539.987    539.987
123.270    684.000    705.980    -21.980    541.061    692.771    554.304    541.061    541.061
123.370    680.000    710.405    -30.405    542.148    696.527    556.063    542.148    542.148
123.470    704.274    714.514    -10.239    543.248    700.006    557.795    543.248    543.248
123.570    748.000    718.183     29.817    544.361    703.098    559.488    544.361    544.361
123.670    667.145    721.299    -54.154    545.487    705.702    561.129    545.487    545.487
123.770    742.025    723.760     18.265    546.626    707.726    562.706    546.626    546.626
123.870    680.323    725.481    -45.158    547.778    709.098    564.209    547.778    547.778
123.970    682.544    726.402    -43.858    548.943    709.764    565.631    548.943    548.943
124.070    756.000    726.490     29.510    550.121    709.697    566.965    550.121    550.121
124.170    740.000    725.740     14.260    551.313    708.895    568.210    551.313    551.313
124.270    695.000    724.175    -29.175    552.518    707.380    569.365    552.518    552.518
124.370    740.604    721.839     18.766    553.737    705.194    570.432    553.737    553.737
124.470    712.863    718.797     -5.934    554.969    702.400    571.417    554.969    554.969
124.570    725.000    715.124      9.876    556.215    699.065    572.324    556.215    556.215
124.670    703.000    710.882     -7.882    557.474    695.244    573.161    557.474    557.474
124.770    713.000    706.201      6.799    558.748    691.060    573.936    558.748    558.748
124.870    734.000    701.180     32.820    560.035    686.602    574.658    560.035    560.035
124.970    681.000    695.895    -14.895    561.337    681.937    575.336    561.337    561.337
