neutron_powder_diffraction_0001
R_wp: 3.669
Temperature (K): 430.806
Counts: 83643.00
Wavelength (Ã…): 2.52098
COMMENTS
Test file for demonstrating the .xyy file format in Reel1.0
END OF HEADER
   tth       Y_obs     Y_calc      Y_res    Background    Phase_1_Nuc    Phase_1_Mag    Phase_2_Nuc    Phase_2_Mag
  9.970    828.000    775.704     52.296    773.979    774.978    774.706    773.979    773.979
 10.070    815.000    774.470     40.530    772.658    773.736    773.392    772.658    772.658
 10.170    827.000    773.255     53.745    771.344    772.513    772.086    771.344    771.344
 10.270    730.799    772.061    -41.262    770.039    771.311    770.788    770.039    770.039
 10.370    798.000    770.891     27.109    768.741    770.133    769.499    768.741    768.741
 10.470    796.092    769.748     26.344    767.452    768.982    768.218    767.452    767.452
 10.570    763.000    768.636     -5.636    766.170    767.861    766.944    766.170    766.170
 10.670    798.000    767.561     30.439    764.897    766.778    765.679    764.897    764.897
 10.770    783.000    766.530     16.470    763.631    765.738    764.423    763.631    763.631
 10.870    741.000    765.552    -24.552    762.374    764.751    763.174    762.374    762.374
 10.970    744.000    764.641    -20.641    761.124    763.831    761.933    761.124    761.124
 11.070    730.587    763.813    -33.226    759.882    762.994    760.700    759.882    759.882
 11.170    755.000    763.094     -8.094    758.648    762.265    759.475    758.648    758.648
 11.270    820.000    762.521     57.479    757.422    761.682    758.259    757.422    757.422
 11.370    747.000    762.151    -15.151    756.204    761.302    757.050    756.204    756.204
 11.470    784.000    762.097     21.903    754.993    761.238    755.849    754.993    754.993
 11.570    791.025    762.653     28.372    753.791    761.783    754.656    753.791    753.791
 11.670    716.455    764.218    -47.763    752.596    763.337    753.471    752.596    752.596
 11.770    818.000    767.801     50.199    751.408    766.907    752.294    751.408    751.408
 11.870    807.000    775.259     31.741    750.228    774.349    751.125    750.228    750.228
 11.970    811.832    788.877     22.954    749.056    787.949    749.964    749.056    749.056
 12.070    896.000    810.067     85.933    747.892    809.115    748.810    747.892    747.892
 12.170    887.000    836.768     50.232    746.735    835.790    747.664    746.735    746.735
 12.270    901.000    860.302     40.698    745.586    859.298    746.526    745.586    745.586
 12.370    941.000    866.719     74.281    744.444    865.700    745.395    744.444    744.444
 12.470    905.000    850.043     54.957    743.310    849.021    744.273    743.310    743.310
 12.570    784.000    821.204    -37.204    742.183    820.186    743.158    742.183    742.183
 12.670    787.000    793.591     -6.591    741.064    792.576    742.051    741.064    741.064
 12.770    734.000    773.070    -39.070    739.952    772.053    740.951    739.952    739.952
 12.870    773.000    759.889     13.111    738.848    758.867    739.859    738.848    738.848
 12.970    738.907    752.006    -13.099    737.751    750.975    738.775    737.751    737.751
 13.070    695.000    747.203    -52.203    736.662    746.161    737.698    736.662    736.662
 13.170    793.945    743.970     49.975    735.579    742.917    736.629    735.579    735.579
 13.270    722.000    741.507    -19.507    734.504    740.440    735.568    734.504    734.504
 13.370    749.974    739.458     10.516    733.437    738.378    734.514    733.437    733.437
 13.470    680.712    737.664    -56.952    732.377    736.571    733.467    732.377    732.377
 13.570    729.422    736.046     -6.624    731.324    734.939    732.428    731.324    731.324
 13.670    716.000    734.556    -18.556    730.278    733.435    731.397    730.278    730.278
 13.770    682.000    733.164    -51.164    729.239    732.028    730.373    729.239    729.239
 13.870    704.000    731.847    -27.847    728.208    730.696    729.357    728.208    728.208
 13.970    720.955    730.590     -9.634    727.183    729.424    728.348    727.183    727.183
 14.070    748.000    729.381     18.619    726.166    728.200    727.346    726.166    726.166
 14.170    737.809    728.213      9.596    725.156    727.016    726.352    725.156    725.156
 14.270    736.000    727.080      8.920    724.153    725.867    725.366    724.153    724.153
 14.370    775.464    725.975     49.489    723.157    724.745    724.386    723.157    723.157
 14.470    766.455    724.899     41.556    722.168    723.652    723.415    722.168    722.168
 14.570    740.310    723.864     16.447    721.186    722.599    722.451    721.186    721.186
 14.670    711.000    722.827    -11.827    720.212    721.544    721.493    720.212    720.212
 14.770    681.000    721.805    -40.805    719.244    720.505    720.544    719.244    719.244
 14.870    664.718    720.802    -56.084    718.283    719.483    719.601    718.283    718.283
 14.970    702.000    719.813    -17.813    717.328    718.476    718.666    717.328    717.328
 15.070    684.000    718.836    -34.836    716.381    717.479    717.738    716.381    716.381
 15.170    742.000    717.871     24.129    715.441    716.494    716.817    715.441    715.441
 15.270    715.145    716.918     -1.774    714.507    715.522    715.904    714.507    714.507
 15.370    658.528    715.977    -57.449    713.581    714.560    714.998    713.581    713.581
 15.470    735.000    715.047     19.953    712.661    713.608    714.099    712.661    712.661
 15.570    705.000    714.127     -9.127    711.747    712.667    713.207    711.747    711.747
 15.670    675.000    713.217    -38.217    710.841    711.735    712.323    710.841    710.841
 15.770    672.000    712.317    -40.317    709.941    710.812    711.446    709.941    709.941
 15.870    712.000    711.426      0.574    709.048    709.898    710.576    709.048    709.048
 15.970    676.000    710.544    -34.544    708.162    708.993    709.713    708.162    708.162
 16.070    684.000    709.672    -25.672    707.282    708.097    708.857    707.282    707.282
 16.170    666.000    708.808    -42.808    706.409    707.208    708.009    706.409    706.409
 16.270    677.000    707.954    -30.954    705.542    706.328    707.168    705.542    705.542
 16.370    722.000    707.107     14.893    704.682    705.456    706.334    704.682    704.682
 16.470    706.000    706.269     -0.269    703.829    704.591    705.507    703.829    703.829
 16.570    702.326    705.440     -3.114    702.982    703.735    704.687    702.982    702.982
 16.670    671.818    704.618    -32.800    702.141    702.885    703.874    702.141    702.141
 16.770    692.000    703.805    -11.805    701.307    702.043    703.069    701.307    701.307
 16.870    719.000    703.000     16.000    700.480    701.209    702.271    700.480    700.480
 16.970    690.000    702.210    -12.210    699.659    700.389    701.480    699.659    699.659
 17.070    673.000    701.426    -28.426    698.844    699.574    700.696    698.844    698.844
 17.170    658.000    700.656    -42.656    698.036    698.772    699.919    698.036    698.036
 17.270    649.157    699.884    -50.727    697.234    697.967    699.150    697.234    697.234
 17.370    669.032    699.124    -30.092    696.438    697.173    698.389    696.438    696.438
 17.470    733.000    698.418     34.582    695.649    696.430    697.636    695.649    695.649
 17.570    701.000    697.694      3.306    694.866    695.671    696.889    694.866    694.866
 17.670    718.000    696.954     21.046    694.089    694.895    696.148    694.089    694.089
 17.770    745.619    696.220     49.399    693.318    694.124    695.414    693.318    693.318
 17.870    642.000    695.495    -53.495    692.554    693.360    694.688    692.554    692.554
 17.970    673.000    694.790    -21.790    691.795    692.616    693.969    691.795    691.795
 18.070    643.068    694.097    -51.029    691.043    691.883    693.257    691.043    691.043
 18.170    672.000    693.395    -21.395    690.297    691.140    692.553    690.297    690.297
 18.270    743.528    692.700     50.828    689.557    690.402    691.855    689.557    689.557
 18.370    683.000    692.012     -9.012    688.824    689.670    691.165    688.824    688.824
 18.470    626.000    691.332    -65.332    688.096    688.945    690.482    688.096    688.096
 18.570    678.000    690.660    -12.660    687.374    688.227    689.807    687.374    687.374
 18.670    691.568    689.995      1.573    686.658    687.515    689.139    686.658    686.658
 18.770    666.916    689.339    -22.423    685.949    686.809    688.478    685.949    685.949
 18.870    722.339    688.690     33.650    685.245    686.110    687.825    685.245    685.245
 18.970    690.000    688.050      1.950    684.547    685.417    687.180    684.547    684.547
 19.070    657.000    687.425    -30.425    683.855    684.739    686.542    683.855    683.855
 19.170    660.000    686.805    -26.805    683.169    684.063    685.911    683.169    683.169
 19.270    694.229    686.189      8.040    682.489    683.390    685.288    682.489    682.489
 19.370    660.000    685.583    -25.583    681.815    682.724    684.674    681.815    681.815
 19.470    643.000    685.011    -42.011    681.146    682.081    684.076    681.146    681.146
 19.570    677.000    684.471     -7.471    680.484    681.461    683.493    680.484    680.484
 19.670    634.367    683.909    -49.543    679.827    680.833    682.904    679.827    679.827
 19.770    691.000    683.345      7.655    679.176    680.200    682.320    679.176    679.176
 19.870    661.608    682.780    -21.172    678.530    679.567    681.744    678.530    678.530
 19.970    688.395    682.235      6.160    677.891    678.949    681.177    677.891    677.891
 20.070    707.000    681.696     25.304    677.257    678.335    680.617    677.257    677.257
 20.170    642.000    681.159    -39.159    676.628    677.720    680.067    676.628    676.628
 20.270    669.000    680.655    -11.655    676.005    677.121    679.539    676.005    676.005
 20.370    627.000    680.176    -53.176    675.388    676.541    679.023    675.388    675.388
 20.470    672.000    679.685     -7.685    674.777    675.963    678.499    674.777    674.777
 20.570    638.278    679.236    -40.958    674.171    675.423    677.983    674.171    674.171
 20.670    682.000    678.766      3.234    673.570    674.861    677.475    673.570    673.570
 20.770    670.912    678.294     -7.381    672.975    674.293    676.976    672.975    672.975
 20.870    656.579    677.823    -21.244    672.386    673.723    676.486    672.386    672.386
 20.970    697.271    677.377     19.894    671.802    673.173    676.006    671.802    671.802
 21.070    659.845    676.959    -17.114    671.223    672.646    675.536    671.223    671.223
 21.170    676.000    676.521     -0.521    670.650    672.097    675.074    670.650    670.650
 21.270    669.000    676.094     -7.094    670.082    671.554    674.622    670.082    670.082
 21.370    694.000    675.684     18.316    669.520    671.022    674.183    669.520    669.520
 21.470    651.000    675.299    -24.299    668.963    670.504    673.759    668.963    668.963
 21.570    685.000    674.914     10.086    668.411    669.986    673.339    668.411    668.411
 21.670    714.393    674.537     39.856    667.865    669.472    672.929    667.865    667.865
 21.770    669.000    674.170     -5.170    667.323    668.964    672.530    667.323    667.323
 21.870    635.000    673.816    -38.816    666.788    668.462    672.142    666.788    666.788
 21.970    666.000    673.475     -7.475    666.257    667.966    671.766    666.257    666.257
 22.070    702.607    673.150     29.456    665.731    667.479    671.403    665.731    665.731
 22.170    606.000    672.841    -66.841    665.211    667.001    671.052    665.211    665.211
 22.270    670.000    672.549     -2.549    664.696    666.531    670.714    664.696    664.696
 22.370    713.250    672.275     40.975    664.186    666.072    670.389    664.186    664.186
 22.470    665.000    672.018     -7.018    663.681    665.621    670.078    663.681    663.681
 22.570    669.000    671.780     -2.780    663.181    665.180    669.782    663.181    663.181
 22.670    672.000    671.564      0.436    662.687    664.750    669.501    662.687    662.687
 22.770    630.000    671.374    -41.374    662.197    664.335    669.237    662.197    662.197
 22.870    636.000    671.210    -35.210    661.713    663.933    668.989    661.713    661.713
 22.970    695.375    671.068     24.307    661.233    663.544    668.758    661.233    661.233
 23.070    661.177    670.956     -9.779    660.758    663.170    668.545    660.758    660.758
 23.170    656.000    670.877    -14.877    660.289    662.815    668.351    660.289    660.289
 23.270    677.537    670.836      6.701    659.824    662.482    668.178    659.824    659.824
 23.370    671.519    670.835      0.684    659.364    662.174    668.025    659.364    659.364
 23.470    590.000    670.882    -80.882    658.909    661.897    667.895    658.909    658.909
 23.570    723.892    670.984     52.907    658.459    661.656    667.788    658.459    658.459
 23.670    611.000    671.153    -60.153    658.014    661.460    667.707    658.014    658.014
 23.770    692.000    671.400     20.600    657.573    661.322    667.653    657.573    657.573
 23.870    652.286    671.745    -19.460    657.138    661.257    667.627    657.138    657.138
 23.970    644.000    672.215    -28.215    656.707    661.291    667.633    656.707    656.707
 24.070    662.490    672.849    -10.359    656.281    661.461    667.671    656.281    656.281
 24.170    666.000    673.720     -7.720    655.859    661.836    667.746    655.859    655.859
 24.270    639.373    674.970    -35.597    655.443    662.558    667.858    655.443    655.443
 24.370    677.000    676.923      0.077    655.031    663.947    668.012    655.031    655.031
 24.470    713.000    680.249     32.751    654.623    666.670    668.210    654.623    654.623
 24.570    704.000    686.108     17.892    654.221    671.882    668.457    654.221    654.221
 24.670    721.000    695.995     25.005    653.822    681.077    668.758    653.822    653.822
 24.770    698.390    710.951    -12.561    653.429    695.291    669.117    653.429    653.429
 24.870    785.000    730.014     54.986    653.040    713.556    669.540    653.040    653.040
 24.970    768.000    748.124     19.876    652.656    730.801    670.033    652.656    652.656
 25.070    768.000    755.914     12.086    652.276    737.646    670.604    652.276    652.276
 25.170    715.000    747.908    -32.908    651.900    728.601    671.261    651.900    651.900
 25.270    772.311    730.539     41.772    651.529    710.095    672.014    651.529    651.529
 25.370    737.000    713.107     23.893    651.163    691.424    672.874    651.163    651.163
 25.470    701.000    700.169      0.831    650.801    677.133    673.853    650.801    650.801
 25.570    740.052    692.355     47.697    650.443    667.841    674.968    650.443    650.443
 25.670    662.492    688.516    -26.024    650.090    662.377    676.236    650.090    650.090
 25.770    716.000    687.183     28.817    649.741    659.252    677.677    649.741    649.741
 25.870    717.000    687.280     29.720    649.397    657.363    679.317    649.397    649.397
 25.970    673.000    688.226    -15.226    649.057    656.099    681.186    649.057    649.057
 26.070    711.000    689.762     21.238    648.721    655.164    683.321    648.721    648.721
 26.170    711.000    691.800     19.200    648.389    654.432    685.758    648.389    648.389
 26.270    662.169    694.331    -32.162    648.062    653.845    688.550    648.062    648.062
 26.370    713.000    697.391     15.609    647.739    653.369    691.761    647.739    647.739
 26.470    706.000    701.038      4.962    647.420    652.986    695.471    647.420    647.420
 26.570    707.793    705.357      2.435    647.105    652.685    699.777    647.105    647.105
 26.670    711.000    710.468      0.532    646.794    652.460    704.802    646.794    646.794
 26.770    729.000    716.526     12.474    646.488    652.308    710.704    646.488    646.488
 26.870    680.261    723.738    -43.477    646.186    652.235    717.688    646.186    646.186
 26.970    792.490    732.380     60.110    645.888    652.246    726.020    645.888    645.888
 27.070    722.000    742.822    -20.822    645.593    652.353    736.059    645.593    645.593
 27.170    751.040    755.569     -4.529    645.303    652.577    748.292    645.303    645.303
 27.270    728.790    771.325    -42.535    645.017    652.945    763.393    645.017    645.017
 27.370    800.000    791.090      8.910    644.735    653.496    782.323    644.735    644.735
 27.470    775.000    816.319    -41.319    644.457    654.291    806.477    644.457    644.457
 27.570    823.000    849.372    -26.372    644.183    655.426    838.118    644.183    644.183
 27.670    905.000    894.932     10.068    643.913    657.094    881.736    643.913    643.913
 27.770    926.000    965.737    -39.737    643.647    659.816    949.544    643.647    643.647
 27.870   1100.000   1101.576     -1.576    643.385    665.213   1079.700    643.385    643.385
 27.970   1366.369   1412.363    -45.994    643.126    677.759   1377.622    643.126    643.126
 28.070   2200.553   2124.881     75.672    642.872    706.676   2060.829    642.872    642.872
 28.170   3206.000   3531.320   -325.320    642.621    763.852   3409.597    642.621    642.621
 28.270   5499.000   5716.022   -217.022    642.374    852.746   5504.864    642.374    642.374
 28.370   8088.682   8149.091    -60.409    642.131    951.899   7838.389    642.131    642.131
 28.470   9354.000   9592.130   -238.130    641.892   1011.164   9222.145    641.892    641.892
 28.570   9277.000   9064.398    212.602    641.656    991.124   8714.753    641.656    641.656
 28.670   7049.218   7130.227    -81.009    641.424    915.655   6856.228    641.424    641.424
 28.770   5228.000   5182.319     45.681    641.196    842.964   4980.881    641.196    641.196
 28.870   4152.000   4168.329    -16.329    640.972    813.252   3996.297    640.972    640.972
 28.970   4174.000   4224.635    -50.635    640.751    832.119   4033.436    640.751    640.751
 29.070   4864.440   4875.927    -11.487    640.534    876.405   4640.263    640.534    640.534
 29.170   5372.795   5343.655     29.140    640.320    906.038   5078.313    640.320    640.320
 29.270   5156.000   5038.566    117.434    640.110    889.938   4789.296    640.110    640.110
 29.370   3997.000   4064.224    -67.224    639.904    835.055   3869.663    639.904    639.904
 29.470   2936.526   2930.968      5.559    639.701    770.854   2800.290    639.701    639.701
 29.570   2047.000   2020.623     26.377    639.502    719.240   1941.199    639.502    639.502
 29.670   1436.000   1440.902     -4.902    639.306    686.413   1393.974    639.306    639.306
 29.770   1198.000   1127.010     70.990    639.114    668.711   1097.506    639.114    639.114
 29.870    908.088    970.279    -62.190    638.925    659.958    949.296    638.925    638.925
 29.970    959.000    889.338     69.662    638.740    655.532    872.576    638.740    638.740
 30.070    946.000    841.585    104.415    638.558    653.021    827.143    638.558    638.558
 30.170    826.556    809.183     17.373    638.380    651.431    796.147    638.380    638.380
 30.270    815.834    785.328     30.506    638.205    650.407    773.136    638.205    638.205
 30.370    811.000    767.259     43.741    638.033    649.859    755.440    638.033    638.033
 30.470    784.687    753.798     30.889    637.864    649.871    741.796    637.864    637.864
 30.570    765.000    744.818     20.182    637.699    650.780    731.739    637.699    637.699
 30.670    715.885    741.332    -25.447    637.538    653.323    725.543    637.538    637.538
 30.770    773.000    745.450     27.550    637.379    658.664    724.153    637.379    637.379
 30.870    777.000    759.437     17.563    637.224    667.986    728.650    637.224    637.224
 30.970    761.000    783.403    -22.403    637.072    681.449    738.986    637.072    637.072
 31.070    820.000    812.056      7.944    636.923    696.710    752.214    636.923    636.923
 31.170    852.000    832.734     19.266    636.778    708.034    761.416    636.778    636.778
 31.270    818.000    831.195    -13.195    636.636    708.945    758.827    636.636    636.636
 31.370    816.000    805.581     10.419    636.496    698.632    743.401    636.496    636.496
 31.470    817.000    768.838     48.162    636.360    683.055    722.114    636.360    636.360
 31.570    732.281    734.662     -2.382    636.227    668.517    702.355    636.227    636.227
 31.670    706.617    709.367     -2.750    636.098    657.932    687.523    636.098    636.098
 31.770    774.000    693.228     80.772    635.971    651.445    677.748    635.971    635.971
 31.870    712.547    683.757     28.791    635.847    647.932    671.669    635.847    635.847
 31.970    724.000    678.211     45.789    635.726    646.150    667.786    635.726    635.726
 32.070    654.302    674.706    -20.404    635.609    645.246    665.068    635.609    635.609
 32.170    652.905    672.260    -19.355    635.494    644.781    662.972    635.494    635.494
 32.270    705.986    670.437     35.549    635.382    644.565    661.254    635.382    635.382
 32.370    695.000    669.061     25.939    635.274    644.527    659.807    635.274    635.274
 32.470    696.000    668.053     27.947    635.168    644.640    658.581    635.168    635.168
 32.570    734.000    667.382     66.618    635.065    644.898    657.548    635.065    635.065
 32.670    722.000    667.036     54.964    634.965    645.308    656.693    634.965    634.965
 32.770    695.000    667.027     27.973    634.868    645.885    656.010    634.868    634.868
 32.870    694.000    667.381     26.619    634.774    646.656    655.499    634.774    634.774
 32.970    717.000    668.150     48.850    634.682    647.662    655.170    634.682    634.682
 33.070    622.365    669.413    -47.047    634.594    648.962    655.045    634.594    634.594
 33.170    727.000    671.287     55.713    634.508    650.639    655.156    634.508    634.508
 33.270    671.000    673.962     -2.962    634.425    652.825    655.561    634.425    634.425
 33.370    727.000    677.764     49.236    634.344    655.745    656.364    634.344    634.344
 33.470    649.533    683.365    -33.833    634.267    659.854    657.778    634.267    634.267
 33.570    703.000    692.275     10.725    634.192    666.175    660.291    634.192    634.192
 33.670    700.261    707.829     -7.569    634.120    676.966    664.982    634.120    634.120
 33.770    757.000    736.499     20.501    634.050    696.600    673.946    634.050    634.050
 33.870    784.479    788.412     -3.933    633.983    731.924    690.465    633.983    633.983
 33.970    901.000    874.907     26.093    633.919    790.602    718.212    633.919    633.919
 34.070   1032.000   1001.452     30.548    633.857    876.333    758.960    633.857    633.857
 34.170   1115.000   1156.658    -41.658    633.798    981.421    809.016    633.798    633.798
 34.270   1324.000   1300.323     23.677    633.742   1078.703    855.350    633.742    633.742
 34.370   1403.000   1365.206     37.794    633.688   1122.735    876.164    633.688    633.688
 34.470   1269.000   1309.466    -40.466    633.637   1085.238    857.893    633.637    633.637
 34.570   1159.000   1169.706    -10.706    633.588    990.939    812.396    633.588    633.588
 34.670   1060.486   1013.112     47.373    633.541    885.243    761.451    633.541    633.541
 34.770    945.773    882.586     63.187    633.497    797.149    718.965    633.497    633.497
 34.870    833.400    791.759     41.640    633.456    735.876    689.361    633.456    633.456
 34.970    759.186    736.296     22.890    633.417    698.495    671.231    633.417    633.417
 35.070    754.588    705.099     49.489    633.380    677.508    660.980    633.380    633.380
 35.170    703.000    687.810     15.190    633.346    665.912    655.249    633.346    633.346
 35.270    748.000    677.622     70.378    633.314    659.108    651.831    633.314    633.314
 35.370    643.060    670.952    -27.891    633.285    654.674    649.565    633.285    633.285
 35.470    697.780    666.153     31.627    633.258    651.495    647.917    633.258    633.258
 35.570    688.919    662.490     26.429    633.233    649.076    646.649    633.233    633.233
 35.670    630.000    659.605    -29.605    633.210    647.172    645.645    633.210    633.210
 35.770    705.000    657.292     47.708    633.190    645.646    644.838    633.190    633.190
 35.870    600.397    655.417    -55.020    633.172    644.404    644.186    633.172    633.172
 35.970    716.000    653.887     62.113    633.156    643.384    643.660    633.156    633.156
 36.070    608.000    652.633    -44.633    633.143    642.539    643.238    633.143    633.143
 36.170    624.000    651.608    -27.608    633.131    641.833    642.907    633.131    633.131
 36.270    647.000    650.775     -3.775    633.122    641.242    642.657    633.122    633.122
 36.370    673.000    650.110     22.890    633.115    640.745    642.482    633.115    633.115
 36.470    690.000    649.595     40.405    633.110    640.327    642.379    633.110    633.110
 36.570    665.000    649.220     15.780    633.108    639.979    642.350    633.108    633.108
 36.670    650.000    648.979      1.021    633.107    639.691    642.396    633.107    633.107
 36.770    683.000    648.874     34.126    633.109    639.457    642.527    633.109    633.109
 36.870    679.854    648.914     30.940    633.112    639.276    642.752    633.112    633.112
 36.970    636.000    649.115    -13.115    633.118    639.145    643.088    633.118    633.118
 37.070    677.000    649.505     27.495    633.125    639.071    643.561    633.125    633.125
 37.170    674.000    650.134     23.866    633.135    639.065    644.205    633.135    633.135
 37.270    689.000    651.095     37.905    633.147    639.163    645.080    633.147    633.147
 37.370    674.000    652.563     21.437    633.160    639.431    646.294    633.160    633.160
 37.470    644.000    654.883    -10.883    633.176    639.993    648.068    633.176    633.176
 37.570    665.000    658.705      6.295    633.193    641.029    650.871    633.193    633.193
 37.670    690.000    665.160     24.840    633.213    642.731    655.645    633.213    633.213
 37.770    670.000    675.983     -5.983    633.234    645.205    664.016    633.234    633.234
 37.870    713.824    693.318     20.505    633.257    648.302    678.279    633.257    633.257
 37.970    726.410    718.890      7.519    633.282    651.422    700.757    633.282    633.282
 38.070    733.000    752.535    -19.535    633.309    653.481    732.374    633.309    633.309
 38.170    772.063    790.757    -18.695    633.338    653.550    770.561    633.338    633.338
 38.270    847.000    825.345     21.655    633.368    651.754    806.981    633.368    633.368
 38.370    800.159    843.258    -43.099    633.401    648.991    827.697    633.401    633.401
 38.470    809.014    834.531    -25.517    633.435    646.086    821.913    633.435    633.435
 38.570    730.000    803.108    -73.108    633.471    643.543    793.068    633.471    633.471
 38.670    782.000    762.689     19.311    633.508    641.596    754.628    633.508    633.508
 38.770    704.000    725.160    -21.160    633.547    640.256    718.471    633.547    633.547
 38.870    630.000    696.193    -66.193    633.588    639.404    690.392    633.588    633.588
 38.970    669.000    676.562     -7.562    633.631    638.890    671.313    633.631    633.631
 39.070    682.000    664.468     17.532    633.675    638.591    659.558    633.675    633.675
 39.170    648.670    657.409     -8.739    633.721    638.422    652.713    633.721    633.721
 39.270    643.000    653.286    -10.286    633.769    638.329    648.730    633.769    633.769
 39.370    622.835    650.737    -27.902    633.818    638.282    646.275    633.818    633.818
 39.470    634.827    649.019    -14.192    633.869    638.267    644.623    633.869    633.869
 39.570    703.139    647.770     55.370    633.921    638.275    643.418    633.921    633.921
 39.670    698.095    646.815     51.279    633.975    638.300    642.492    633.975    633.975
 39.770    659.000    646.065     12.935    634.031    638.337    641.760    634.031    634.031
 39.870    616.000    645.474    -29.474    634.088    638.392    641.170    634.088    634.088
 39.970    676.000    645.004     30.996    634.146    638.460    640.691    634.146    634.146
 40.070    653.000    644.631      8.369    634.206    638.540    640.298    634.206    634.206
 40.170    630.000    644.336    -14.336    634.268    638.632    639.974    634.268    634.268
 40.270    656.673    644.108     12.565    634.331    638.734    639.705    634.331    634.331
 40.370    679.000    643.935     35.065    634.395    638.848    639.483    634.395    634.395
 40.470    648.000    643.811      4.189    634.461    638.974    639.299    634.461    634.461
 40.570    635.000    643.730     -8.730    634.528    639.112    639.146    634.528    634.528
 40.670    651.108    643.688      7.420    634.596    639.264    639.021    634.596    634.596
 40.770    620.060    643.683    -23.623    634.666    639.430    638.920    634.666    634.666
 40.870    621.000    643.713    -22.713    634.737    639.613    638.838    634.737    634.737
 40.970    642.000    643.777     -1.777    634.810    639.814    638.774    634.810    634.810
 41.070    662.000    643.877     18.123    634.884    640.036    638.726    634.884    634.884
 41.170    633.583    644.014    -10.431    634.959    640.282    638.692    634.959    634.959
 41.270    606.665    644.191    -37.526    635.035    640.558    638.670    635.035    635.035
 41.370    589.357    644.413    -55.057    635.113    640.867    638.660    635.113    635.113
 41.470    666.000    644.687     21.313    635.192    641.218    638.662    635.192    635.192
 41.570    632.000    645.020    -13.020    635.272    641.621    638.673    635.272    635.272
 41.670    614.000    645.427    -31.427    635.353    642.087    638.695    635.353    635.353
 41.770    650.000    645.925      4.075    635.435    642.635    638.727    635.435    635.435
 41.870    599.000    646.541    -47.541    635.519    643.293    638.769    635.519    635.519
 41.970    610.124    647.326    -37.202    635.604    644.108    638.824    635.604    635.604
 42.070    630.000    648.371    -18.371    635.690    645.170    638.894    635.690    635.690
 42.170    621.000    649.866    -28.866    635.777    646.661    638.986    635.777    635.777
 42.270    617.000    652.182    -35.182    635.865    648.939    639.113    635.865    635.865
 42.370    614.368    655.981    -41.613    635.955    652.642    639.301    635.955    635.955
 42.470    653.000    662.271     -9.271    636.045    658.739    639.587    636.045    636.045
 42.570    605.000    672.288    -67.288    636.136    668.421    640.017    636.136    636.136
 42.670    714.621    687.072     27.549    636.229    682.690    640.632    636.229    636.229
 42.770    680.210    706.731    -26.521    636.322    701.650    641.433    636.322    636.322
 42.870    699.000    729.475    -30.475    636.417    723.578    642.355    636.417    636.417
 42.970    694.690    750.672    -55.982    636.512    744.015    643.222    636.512    636.512
 43.070    735.071    763.151    -28.080    636.609    756.059    643.762    636.609    636.609
 43.170    702.464    761.272    -58.809    636.706    754.278    643.764    636.706    636.706
 43.270    737.000    746.105     -9.105    636.804    739.700    643.266    636.804    636.804
 43.370    735.000    724.227     10.773    636.903    718.659    642.518    636.903    636.903
 43.470    691.000    702.269    -11.269    637.004    697.537    641.769    637.004    637.004
 43.570    710.000    684.060     25.940    637.105    680.024    641.165    637.105    637.105
 43.670    683.000    670.817     12.183    637.207    667.289    640.751    637.207    637.207
 43.770    630.734    662.118    -31.384    637.309    658.927    640.511    637.309    637.309
 43.870    668.000    656.819     11.181    637.413    653.837    640.402    637.413    637.413
 43.970    654.000    653.724      0.276    637.517    650.867    640.379    637.517    637.517
 44.070    648.146    651.913     -3.767    637.623    649.132    640.407    637.623    637.623
 44.170    673.000    650.809     22.191    637.729    648.076    640.465    637.729    637.729
 44.270    683.000    650.095     32.905    637.835    647.394    640.539    637.835    637.835
 44.370    671.000    649.613     21.387    637.943    646.934    640.625    637.943    637.943
 44.470    640.000    649.283     -9.283    638.051    646.617    640.719    638.051    638.051
 44.570    683.000    649.063     33.937    638.160    646.405    640.820    638.160    638.160
 44.670    591.000    648.927    -57.927    638.270    646.272    640.926    638.270    638.270
 44.770    643.000    648.859     -5.859    638.381    646.203    641.038    638.381    638.381
 44.870    628.751    648.847    -20.095    638.492    646.185    641.155    638.492    638.492
 44.970    632.000    648.881    -16.881    638.603    646.210    641.276    638.603    638.603
 45.070    659.000    648.956     10.044    638.716    646.271    641.402    638.716    638.716
 45.170    684.428    649.067     35.361    638.829    646.365    641.532    638.829    638.829
 45.270    683.000    649.209     33.791    638.943    646.487    641.666    638.943    638.943
 45.370    642.000    649.381     -7.381    639.057    646.634    641.805    639.057    639.057
 45.470    688.000    649.580     38.420    639.172    646.805    641.947    639.172    639.172
 45.570    666.632    649.805     16.827    639.287    646.998    642.095    639.287    639.287
 45.670    682.000    650.056     31.944    639.403    647.213    642.247    639.403    639.403
 45.770    668.603    650.333     18.270    639.520    647.449    642.404    639.520    639.520
 45.870    686.000    650.635     35.365    639.637    647.706    642.566    639.637    639.637
 45.970    651.651    650.964      0.687    639.755    647.986    642.734    639.755    639.755
 46.070    685.000    651.322     33.678    639.873    648.288    642.907    639.873    639.873
 46.170    648.000    651.710     -3.710    639.991    648.615    643.087    639.991    639.991
 46.270    600.160    652.130    -51.970    640.111    648.967    643.273    640.111    640.111
 46.370    615.819    652.587    -36.768    640.230    649.349    643.468    640.230    640.230
 46.470    652.158    653.083     -0.925    640.350    649.763    643.670    640.350    640.350
 46.570    654.055    653.625      0.430    640.470    650.213    643.882    640.470    640.470
 46.670    619.795    654.219    -34.424    640.591    650.705    644.104    640.591    640.591
 46.770    602.205    654.873    -52.668    640.712    651.247    644.338    640.712    640.712
 46.870    641.000    655.599    -14.599    640.834    651.846    644.586    640.834    640.834
 46.970    641.000    656.412    -15.412    640.956    652.517    644.849    640.956    640.956
 47.070    634.000    657.335    -23.335    641.078    653.280    645.132    641.078    641.078
 47.170    678.117    658.409     19.708    641.201    654.169    645.439    641.201    641.201
 47.270    636.655    659.708    -23.052    641.324    655.249    645.780    641.324    641.324
 47.370    672.486    661.371     11.115    641.447    656.642    646.173    641.447    641.447
 47.470    630.023    663.653    -33.630    641.570    658.572    646.647    641.570    641.570
 47.570    696.000    666.977     29.023    641.694    661.411    647.254    641.694    641.694
 47.670    671.000    671.951     -0.951    641.818    665.694    648.066    641.818    641.818
 47.770    685.969    679.297      6.672    641.942    672.059    649.168    641.942    641.942
 47.870    678.000    689.636    -11.636    642.067    681.048    650.635    642.067    642.067
 47.970    708.128    703.119      5.009    642.192    692.796    652.487    642.192    642.192
 48.070    719.000    718.980      0.020    642.317    706.622    654.638    642.317    642.317
 48.170    747.000    735.073     11.927    642.442    720.629    656.841    642.442    642.442
 48.270    791.299    747.696     43.604    642.567    731.545    658.667    642.567    642.567
 48.370    749.000    752.723     -3.723    642.692    735.722    659.642    642.692    642.692
 48.470    781.449    748.563     32.886    642.818    731.750    659.586    642.818    642.818
 48.570    716.144    737.797    -21.653    642.944    721.897    658.806    642.944    642.944
 48.670    723.000    724.804     -1.804    643.070    710.022    657.823    643.070    643.070
 48.770    683.000    713.007    -30.007    643.196    699.134    657.047    643.196    643.196
 48.870    667.000    704.217    -37.217    643.322    690.819    656.706    643.322    643.322
 48.970    690.000    698.998     -8.998    643.448    685.553    656.883    643.448    643.448
 49.070    688.000    697.147     -9.147    643.574    683.132    657.581    643.574    643.574
 49.170    691.000    698.144     -7.144    643.700    683.065    658.774    643.700    643.700
 49.270    655.311    701.520    -46.209    643.827    684.883    660.459    643.827    643.827
 49.370    661.622    707.116    -45.494    643.953    688.358    662.707    643.953    643.953
 49.470    747.833    715.378     32.455    644.079    693.700    665.753    644.079    644.079
 49.570    681.000    727.915    -46.915    644.206    701.921    670.193    644.206    644.206
 49.670    741.000    748.708     -7.708    644.332    715.616    677.414    644.332    644.332
 49.770    833.496    786.208     47.288    644.458    740.343    690.303    644.458    644.458
 49.870    852.000    855.867     -3.867    644.584    786.368    714.045    644.584    644.584
 49.970   1007.811    982.265     25.546    644.711    869.662    757.245    644.711    644.711
 50.070   1200.000   1195.241      4.759    644.837   1009.900    830.069    644.837    644.837
 50.170   1480.000   1519.558    -39.558    644.963   1223.422    940.945    644.963    644.963
 50.270   1870.000   1956.779    -86.779    645.089   1511.275   1090.407    645.089    645.089
 50.370   2452.000   2465.749    -13.749    645.214   1846.391   1264.389    645.214    645.214
 50.470   2926.000   2952.337    -26.337    645.340   2166.845   1430.705    645.340    645.340
 50.570   3306.000   3282.554     23.446    645.466   2384.478   1543.530    645.466    645.466
 50.670   3271.383   3337.591    -66.207    645.591   2421.109   1562.202    645.591    645.591
 50.770   3045.000   3094.599    -49.599    645.716   2261.713   1478.836    645.716    645.716
 50.870   2727.000   2647.389     79.611    645.841   1968.092   1325.410    645.841    645.841
 50.970   2198.000   2135.346     62.654    645.966   1632.100   1149.466    645.966    645.966
 51.070   1645.000   1670.632    -25.632    646.091   1327.708    989.219    646.091    646.091
 51.170   1334.000   1312.705     21.295    646.215   1094.178    864.888    646.215    646.215
 51.270   1134.161   1072.724     61.437    646.339    938.889    780.274    646.339    646.339
 51.370    948.000    930.978     17.022    646.463    848.704    728.805    646.463    646.463
 51.470    919.000    856.380     62.620    646.587    802.713    700.304    646.587    646.587
 51.570    808.888    820.052    -11.164    646.711    781.102    685.702    646.711    646.711
 51.670    785.000    801.143    -16.143    646.834    769.130    678.884    646.834    646.834
 51.770    783.000    787.888     -4.888    646.957    758.367    676.510    646.957    646.957
 51.870    737.854    776.159    -38.305    647.079    746.238    677.025    647.079    647.079
 51.970    719.289    766.014    -46.725    647.202    733.561    679.671    647.202    647.202
 52.070    785.046    758.351     26.696    647.324    721.899    683.784    647.324    647.324
 52.170    713.000    753.290    -40.290    647.445    712.342    688.395    647.445    647.445
 52.270    786.661    749.872     36.789    647.566    705.331    692.104    647.566    647.566
 52.370    726.000    746.484    -20.484    647.687    700.807    693.359    647.687    647.687
 52.470    749.000    741.930      7.070    647.808    698.435    691.298    647.808    647.808
 52.570    767.079    736.308     30.771    647.928    697.822    686.410    647.928    647.928
 52.670    722.221    730.711     -8.490    648.048    698.681    680.077    648.048    648.048
 52.770    685.085    726.448    -41.363    648.167    700.936    673.680    648.167    648.167
 52.870    759.000    724.695     34.305    648.286    704.830    668.152    648.286    648.286
 52.970    741.000    726.596     14.404    648.404    711.072    663.931    648.404    648.404
 53.070    805.000    733.605     71.395    648.522    721.064    661.066    648.522    648.522
 53.170    732.368    747.897    -15.529    648.640    737.162    659.377    648.640    648.640
 53.270    827.872    772.609     55.262    648.757    762.821    658.547    648.757    648.757
 53.370    816.000    812.048      3.952    648.874    802.361    658.563    648.874    648.874
 53.470    912.457    870.371     42.087    648.990    860.056    659.306    648.990    648.990
 53.570    929.000    950.063    -21.063    649.105    938.507    660.665    649.105    649.105
 53.670   1038.643   1049.781    -11.139    649.221   1036.470    662.539    649.221    649.221
 53.770   1185.000   1161.888     23.112    649.335   1146.504    664.734    649.335    649.335
 53.870   1234.000   1270.275    -36.275    649.449   1252.856    666.893    649.449    649.449
 53.970   1299.000   1350.299    -51.299    649.563   1331.410    668.490    649.563    649.563
 54.070   1384.999   1376.285      8.714    649.676   1357.034    668.977    649.676    649.676
 54.170   1365.860   1338.159     27.701    649.788   1319.864    668.140    649.788    649.788
 54.270   1311.064   1250.415     60.650    649.900   1234.091    666.279    649.900    649.900
 54.370   1172.023   1139.981     32.042    650.011   1126.082    663.959    650.011    650.011
 54.470   1023.000   1030.156     -7.156    650.121   1018.651    661.667    650.121    650.121
 54.570    975.308    935.098     40.210    650.231    925.661    659.699    650.231    650.231
 54.670    845.206    860.823    -15.616    650.341    853.005    658.180    650.341    650.341
 54.770    845.000    807.538     37.462    650.449    800.888    657.115    650.449    650.449
 54.870    768.000    772.030     -4.030    650.557    766.164    656.435    650.557    650.557
 54.970    728.000    749.796    -21.796    650.665    744.424    656.045    650.665    650.665
 55.070    755.000    736.561     18.439    650.772    731.485    655.855    650.772    650.772
 55.170    741.199    729.034     12.165    650.878    724.122    655.795    650.878    650.878
 55.270    714.000    725.032    -11.032    650.983    720.199    655.821    650.983    650.983
 55.370    767.000    723.275     43.725    651.088    718.460    655.906    651.088    651.088
 55.470    663.569    723.086    -59.518    651.191    718.245    656.037    651.191    651.191
 55.570    750.176    724.156     26.019    651.295    719.247    656.208    651.295    651.295
 55.670    700.363    726.382    -26.019    651.397    721.364    656.420    651.397    651.397
 55.770    729.805    729.797      0.008    651.499    724.625    656.674    651.499    651.499
 55.870    723.000    734.562    -11.562    651.600    729.185    656.981    651.600    651.600
 55.970    738.000    741.031     -3.031    651.700    735.382    657.353    651.700    651.700
 56.070    792.561    749.907     42.655    651.799    743.891    657.819    651.799    651.799
 56.170    753.000    762.552     -9.552    651.898    756.021    658.432    651.898    651.898
 56.270    756.693    781.505    -24.813    651.996    774.212    659.292    651.996    651.996
 56.370    792.000    811.186    -19.186    652.093    802.710    660.570    652.093    652.093
 56.470    766.000    858.610    -92.610    652.189    848.259    662.539    652.189    652.189
 56.570    911.000    933.699    -22.699    652.284    920.395    665.583    652.284    652.284
 56.670   1050.136   1048.514      1.622    652.379   1030.712    670.170    652.379    652.379
 56.770   1283.908   1214.795     69.113    652.473   1190.496    676.757    652.473    652.473
 56.870   1342.000   1439.660    -97.660    652.566   1406.592    685.620    652.566    652.566
 56.970   1669.000   1720.120    -51.120    652.658   1676.129    696.643    652.658    652.658
 57.070   2134.052   2037.626     96.425    652.749   1981.281    709.111    652.749    652.749
 57.170   2420.000   2353.893     66.107    652.839   2285.249    721.540    652.839    652.839
 57.270   2722.117   2610.802    111.315    652.928   2532.166    731.681    652.928    652.928
 57.370   2829.000   2743.051     85.949    653.017   2659.252    737.004    653.017    653.017
 57.470   2817.000   2709.901    107.099    653.104   2627.327    735.934    653.104    653.104
 57.570   2656.000   2523.067    132.933    653.191   2447.625    728.927    653.191    653.191
 57.670   2316.000   2237.498     78.502    653.276   2172.953    718.116    653.276    653.276
 57.770   1963.000   1917.833     45.167    653.361   1865.444    706.016    653.361    653.361
 57.870   1622.000   1614.685      7.315    653.445   1573.747    694.603    653.445    653.445
 57.970   1350.000   1358.340     -8.340    653.528   1326.952    685.086    653.528    653.528
 58.070   1179.817   1160.951     18.866    653.610   1136.680    678.003    653.610    653.610
 58.170   1046.000   1021.477     24.523    653.691   1001.811    673.439    653.691    653.691
 58.270    906.000    931.494    -25.494    653.770    914.032    671.286    653.770    653.770
 58.370    925.964    880.507     45.456    653.849    862.913    671.474    653.849    653.849
 58.470    867.104    859.620      7.484    653.927    839.439    674.122    653.927    653.927
 58.570    837.000    863.121    -26.121    654.004    837.599    679.526    654.004    654.004
 58.670    907.000    888.253     18.747    654.080    854.300    688.020    654.080    654.080
 58.770    906.735    933.829    -27.094    654.155    888.261    699.699    654.155    654.155
 58.870   1020.000    998.396     21.604    654.229    938.468    714.123    654.229    654.229
 58.970   1111.917   1078.501     33.416    654.301   1002.678    730.087    654.301    654.301
 59.070   1232.559   1167.500     65.059    654.373   1076.280    745.557    654.373    654.373
 59.170   1223.752   1255.726    -31.974    654.444   1152.158    757.984    654.444    654.444
 59.270   1298.000   1332.927    -34.927    654.513   1222.248    765.180    654.513    654.513
 59.370   1387.903   1391.476     -3.573    654.582   1279.761    766.304    654.582    654.582
 59.470   1485.081   1426.826     58.255    654.649   1319.555    761.946    654.649    654.649
 59.570   1446.000   1435.961     10.039    654.716   1337.389    753.330    654.716    654.716
 59.670   1401.000   1418.901    -17.901    654.781   1331.953    741.781    654.781    654.781
 59.770   1350.812   1382.574    -31.763    654.845   1308.695    728.774    654.845    654.845
 59.870   1309.000   1340.492    -31.492    654.908   1279.577    715.855    654.908    654.908
 59.970   1295.000   1307.221    -12.221    654.970   1257.944    704.249    654.970    654.970
 60.070   1324.000   1293.264     30.736    655.030   1253.679    694.578    655.030    655.030
 60.170   1309.590   1303.821      5.769    655.090   1271.894    686.934    655.090    655.090
 60.270   1411.239   1340.490     70.749    655.148   1314.389    681.119    655.148    655.148
 60.370   1433.483   1402.143     31.339    655.205   1380.316    676.857    655.205    655.205
 60.470   1509.000   1482.556     26.444    655.262   1463.729    673.873    655.262    655.262
 60.570   1623.318   1567.559     55.759    655.316   1550.729    671.905    655.316    655.316
 60.670   1670.422   1635.298     35.123    655.370   1619.700    670.719    655.370    655.370
 60.770   1673.000   1661.617     11.383    655.423   1646.676    670.132    655.423    655.423
 60.870   1652.000   1630.916     21.084    655.474   1616.182    670.014    655.474    655.474
 60.970   1603.041   1545.347     57.694    655.524   1530.440    670.284    655.524    655.524
 61.070   1410.000   1422.706    -12.706    655.573   1407.277    670.901    655.573    655.573
 61.170   1303.000   1286.056     16.944    655.621   1269.742    671.869    655.621    655.621
 61.270   1185.000   1155.251     29.749    655.667   1137.623    673.255    655.667    655.667
 61.370   1027.000   1043.749    -16.749    655.712   1024.215    675.222    655.712    655.712
 61.470    973.618    958.655     14.964    655.756    936.298    678.095    655.756    655.756
 61.570    916.000    902.226     13.774    655.799    875.556    682.450    655.799    655.799
 61.670    939.000    874.107     64.893    655.841    840.697    689.225    655.841    655.841
 61.770    895.624    873.584     22.040    655.881    829.628    699.800    655.881    655.881
 61.870    933.000    901.149     31.851    655.920    841.028    715.988    655.920    655.920
 61.970    934.000    958.858    -24.858    655.957    874.896    739.844    655.957    655.957
 62.070    995.929   1049.331    -53.402    655.994    931.991    773.232    655.994    655.994
 62.170   1139.919   1173.653    -33.735    656.029   1012.403    817.147    656.029    656.029
 62.270   1258.072   1328.734    -70.662    656.063   1113.717    870.919    656.063    656.063
 62.370   1398.000   1504.859   -106.859    656.095   1229.289    931.479    656.095    656.095
 62.470   1663.000   1684.033    -21.033    656.126   1347.088    992.873    656.126    656.126
 62.570   1854.587   1839.929     14.658    656.156   1449.608   1046.286    656.156    656.156
 62.670   1920.000   1941.565    -21.565    656.185   1516.279   1081.306    656.185    656.185
 62.770   1949.000   1963.494    -14.494    656.212   1530.209   1089.376    656.212    656.212
 62.870   1935.000   1899.253     35.747    656.238   1487.088   1068.327    656.238    656.238
 62.970   1855.000   1765.685     89.315    656.263   1398.062   1023.850    656.263    656.263
 63.070   1604.000   1592.773     11.227    656.286   1282.989    966.062    656.286    656.286
 63.170   1479.787   1410.155     69.632    656.308   1161.503    904.968    656.308    656.308
 63.270   1249.000   1240.080      8.920    656.328   1048.346    848.078    656.328    656.328
 63.370   1149.188   1095.926     53.262    656.347    952.378    799.912    656.347    656.347
 63.470    929.374    983.173    -53.799    656.365    877.227    762.324    656.365    656.365
 63.570    922.000    901.145     20.855    656.381    822.444    735.091    656.381    656.381
 63.670    875.000    845.459     29.541    656.396    785.122    716.737    656.396    656.396
 63.770    844.530    810.312     34.217    656.410    761.418    705.304    656.410    656.410
 63.870    767.000    790.241    -23.241    656.422    747.717    698.943    656.422    656.422
 63.970    818.000    781.155     36.845    656.433    741.307    696.275    656.433    656.433
 64.070    722.955    780.766    -57.811    656.443    740.650    696.549    656.443    656.443
 64.170    830.575    788.604     41.971    656.451    745.352    699.690    656.451    656.451
 64.270    849.000    805.840     43.160    656.457    755.983    706.295    656.457    656.457
 64.370    802.000    834.970    -32.970    656.462    773.793    717.611    656.462    656.462
 64.470    881.000    879.323      1.677    656.466    800.312    735.438    656.466    656.466
 64.570    957.000    942.321     14.679    656.468    836.836    761.900    656.468    656.468
 64.670    988.000   1026.428    -38.428    656.469    883.806    799.022    656.469    656.469
 64.770   1126.000   1131.857     -5.857    656.469    940.154    848.085    656.469    656.469
 64.870   1237.000   1255.202    -18.202    656.467   1002.699    908.869    656.467    656.467
 64.970   1414.000   1388.235     25.765    656.463   1065.698    978.890    656.463    656.463
 65.070   1538.000   1517.426     20.574    656.458   1120.944   1052.830    656.458    656.458
 65.170   1584.517   1625.143    -40.626    656.452   1159.197   1122.302    656.452    656.452
 65.270   1778.000   1693.388     84.612    656.444   1173.333   1176.429    656.444    656.444
 65.370   1702.000   1709.288     -7.288    656.435   1161.473   1204.216    656.435    656.435
 65.470   1611.000   1670.064    -59.064    656.424   1127.549   1198.944    656.424    656.424
 65.570   1588.750   1584.622      4.128    656.412   1079.230   1161.842    656.412    656.412
 65.670   1454.942   1469.942    -15.001    656.398   1025.037   1101.365    656.398    656.398
 65.770   1380.000   1344.480     35.520    656.383    972.062   1028.877    656.383    656.383
 65.870   1100.000   1223.045   -123.045    656.366    924.803    954.689    656.366    656.366
 65.970   1088.000   1114.900    -26.900    656.348    885.037    886.291    656.348    656.348
 66.070   1024.000   1024.140     -0.140    656.328    852.440    828.102    656.328    656.328
 66.170    881.000    951.177    -70.177    656.307    825.704    781.844    656.307    656.307
 66.270    856.557    894.450    -37.893    656.284    803.600    747.187    656.284    656.284
 66.370    818.048    851.607    -33.559    656.260    785.392    722.517    656.260    656.260
 66.470    826.935    820.085      6.850    656.234    770.687    705.664    656.234    656.234
 66.570    773.000    797.436    -24.436    656.207    759.199    694.467    656.207    656.207
 66.670    741.000    781.576    -40.576    656.178    750.667    687.104    656.178    656.178
 66.770    708.000    770.903    -62.903    656.147    744.854    682.209    656.147    656.147
 66.870    735.262    764.298    -29.037    656.116    741.571    678.853    656.116    656.116
 66.970    775.000    761.047     13.953    656.082    740.686    676.453    656.082    656.082
 67.070    756.000    760.792     -4.792    656.047    742.182    674.665    656.047    656.047
 67.170    796.694    763.547     33.147    656.011    746.260    673.305    656.011    656.011
 67.270    731.000    769.811    -38.811    655.973    753.505    672.287    655.973    655.973
 67.370    752.923    780.752    -27.829    655.933    765.103    671.590    655.933    655.933
 67.470    761.000    798.451    -37.451    655.892    783.101    671.249    655.892    655.892
 67.570    856.000    826.158     29.842    655.849    810.668    671.347    655.849    655.849
 67.670    821.000    868.445    -47.445    655.805    852.239    672.017    655.805    655.805
 67.770    879.000    931.103    -52.103    655.759    913.430    673.438    655.759    655.759
 67.870    970.160   1020.610    -50.451    655.712   1000.518    675.812    655.712    655.712
 67.970   1157.076   1143.035     14.041    655.663   1119.381    679.332    655.663    655.663
 68.070   1182.000   1302.392   -120.392    655.612   1273.910    684.121    655.612    655.612
 68.170   1493.000   1498.655     -5.655    655.560   1464.091    690.174    655.560    655.560
 68.270   1735.943   1725.783     10.160    655.506   1684.089    697.284    655.506    655.506
 68.370   1831.000   1970.104   -139.104    655.451   1920.690    704.995    655.451    655.451
 68.470   2159.000   2209.353    -50.353    655.394   2152.371    712.568    655.394    655.394
 68.570   2362.058   2413.158    -51.100    655.336   2349.763    718.994    655.336    655.336
 68.670   2504.000   2547.172    -43.172    655.276   2479.648    723.136    655.276    655.276
 68.770   2558.000   2583.342    -25.342    655.214   2514.889    724.063    655.214    655.214
 68.870   2448.000   2513.054    -65.054    655.151   2447.147    721.487    655.151    655.151
 68.970   2275.411   2352.172    -76.760    655.086   2291.757    715.932    655.086    655.086
 69.070   2178.000   2132.401     45.599    655.019   2079.381    708.443    655.019    655.019
 69.170   1905.000   1887.820     17.180    654.951   1842.981    700.146    654.951    654.951
 69.270   1750.000   1646.458    103.542    654.882   1609.672    691.966    654.882    654.882
 69.370   1464.000   1427.728     36.272    654.811   1398.233    684.545    654.811    654.811
 69.470   1350.000   1242.649    107.351    654.738   1219.325    678.247    654.738    654.738
 69.570   1155.000   1095.074     59.926    654.663   1076.679    673.196    654.663    654.663
 69.670   1028.000    983.449     44.551    654.587    968.799    669.337    654.587    654.587
 69.770    948.726    902.853     45.873    654.509    890.919    666.515    654.509    654.509
 69.870    936.000    846.878     89.122    654.430    836.842    664.517    654.430    654.430
 69.970    829.491    809.117     20.375    654.349    800.375    663.127    654.349    654.349
 70.070    868.000    784.067     83.933    654.267    776.196    662.165    654.267    654.267
 70.170    799.503    767.498     32.005    654.183    760.212    661.489    654.183    654.183
 70.270    802.659    756.428     46.231    654.097    749.539    661.001    654.097    654.097
 70.370    752.000    748.907      3.093    654.009    742.292    660.637    654.009    654.009
 70.470    763.000    743.740     19.260    653.920    737.314    660.357    653.920    653.920
 70.570    751.000    740.237     10.763    653.830    733.937    660.137    653.830    653.830
 70.670    704.436    738.025    -33.588    653.738    731.801    659.968    653.738    653.738
 70.770    739.000    736.937      2.063    653.644    730.743    659.843    653.644    653.644
 70.870    692.338    736.951    -44.613    653.548    730.739    659.763    653.548    653.548
 70.970    715.000    738.181    -23.181    653.451    731.899    659.734    653.451    653.451
 71.070    735.000    740.915     -5.915    653.352    734.498    659.769    653.352    653.352
 71.170    792.981    745.686     47.295    653.252    739.043    659.892    653.252    653.252
 71.270    698.000    753.387    -55.387    653.150    746.389    660.142    653.150    653.150
 71.370    785.142    765.405     19.737    653.046    757.863    660.578    653.046    653.046
 71.470    765.000    783.762    -18.762    652.941    775.398    661.289    652.941    652.941
 71.570    816.791    811.198      5.594    652.834    801.615    662.392    652.834    652.834
 71.670    828.000    851.127    -23.127    652.725    839.780    664.036    652.725    652.725
 71.770    912.000    907.393      4.607    652.615    893.570    666.387    652.615    652.615
 71.870    968.000    983.746    -15.746    652.503    966.573    669.607    652.503    652.503
 71.970   1143.027   1083.051     59.976    652.390   1061.529    673.821    652.390    652.390
 72.070   1182.000   1206.288    -24.288    652.275   1179.377    679.072    652.275    652.275
 72.170   1333.000   1351.505    -18.505    652.158   1318.248    685.278    652.158    652.158
 72.270   1569.440   1512.882     56.558    652.039   1472.573    692.191    652.039    652.039
 72.370   1743.673   1680.034     63.639    651.919   1632.416    699.367    651.919    651.919
 72.470   1859.191   1837.747     21.444    651.798   1783.216    706.154    651.798    651.798
 72.570   2009.000   1966.732     42.268    651.674   1906.514    711.726    651.674    651.674
 72.670   2057.000   2046.699     10.301    651.550   1982.891    715.214    651.550    651.550
 72.770   2018.000   2062.497    -44.497    651.423   1997.840    715.969    651.423    651.423
 72.870   2086.742   2010.752     75.990    651.295   1948.122    713.848    651.295    651.295
 72.970   1908.000   1901.649      6.351    651.165   1843.476    709.293    651.165    651.165
 73.070   1667.951   1754.048    -86.097    651.033   1701.949    703.112    651.033    651.033
 73.170   1561.000   1588.379    -27.379    650.900   1543.101    696.175    650.900    650.900
 73.270   1442.505   1421.982     20.524    650.766   1383.541    689.215    650.766    650.766
 73.370   1312.000   1267.462     44.538    650.629   1235.354    682.751    650.629    650.629
 73.470   1183.016   1132.643     50.373    650.491   1106.057    677.092    650.491    650.491
 73.570    960.261   1021.118    -60.858    650.352    999.116    672.367    650.352    650.352
 73.670    911.000    933.118    -22.118    650.210    914.763    668.576    650.210    650.210
 73.770    902.000    866.533     35.467    650.068    850.971    665.637    650.068    650.068
 73.870    838.000    817.958     20.042    649.923    804.450    663.437    649.923    649.923
 73.970    822.030    783.586     38.445    649.777    771.514    661.853    649.777    649.777
 74.070    763.000    759.842      3.158    649.629    748.696    660.778    649.629    649.629
 74.170    794.496    743.751     50.745    649.480    733.105    660.130    649.480    649.480
 74.270    746.000    733.062     12.938    649.329    722.541    659.855    649.329    649.329
 74.370    723.000    726.206     -3.206    649.176    715.461    659.928    649.176    649.176
 74.470    746.000    722.159     23.841    649.022    710.850    660.339    649.022    649.022
 74.570    768.000    720.283     47.717    648.866    708.071    661.090    648.866    648.866
 74.670    701.000    720.168    -19.168    648.708    706.720    662.173    648.708    648.708
 74.770    690.000    721.506    -31.506    648.549    706.512    663.566    648.549    648.549
 74.870    689.000    723.995    -34.995    648.389    707.194    665.218    648.389    648.389
 74.970    745.000    727.275     17.725    648.226    708.491    667.044    648.226    648.226
 75.070    758.182    730.887     27.295    648.062    710.071    668.918    648.062    648.062
 75.170    793.515    734.264     59.251    647.897    711.528    670.678    647.897    647.897
 75.270    740.388    736.776      3.611    647.730    712.418    672.138    647.730    647.730
 75.370    770.000    737.870     32.130    647.561    712.343    673.141    647.561    647.561
 75.470    744.190    737.275      6.916    647.391    711.095    673.623    647.391    647.391
 75.570    729.616    735.162     -5.546    647.219    708.757    673.675    647.219    647.219
 75.670    783.000    732.123     50.877    647.045    705.681    673.533    647.045    647.045
 75.770    766.000    729.011     36.989    646.870    702.376    673.545    646.870    646.870
 75.870    737.000    726.794     10.206    646.693    699.397    674.123    646.693    646.693
 75.970    714.140    726.484    -12.344    646.515    697.290    675.734    646.515    646.515
 76.070    801.000    729.129     71.871    646.335    696.578    678.903    646.335    646.335
 76.170    776.000    735.813     40.187    646.153    697.768    684.207    646.153    646.153
 76.270    730.000    747.624    -17.624    645.970    701.337    692.258    645.970    645.970
 76.370    787.000    765.572     21.428    645.786    707.708    703.643    645.786    645.786
 76.470    779.000    790.455    -11.455    645.600    717.195    718.844    645.600    645.600
 76.570    814.220    822.667     -8.447    645.412    729.936    738.120    645.412    645.412
 76.670    830.000    861.992    -31.992    645.222    745.808    761.377    645.222    645.222
 76.770    879.000    907.387    -28.387    645.031    764.340    788.042    645.031    645.031
 76.870    941.000    956.803    -15.803    644.839    784.643    816.957    644.839    644.839
 76.970   1074.922   1007.071     67.851    644.645    805.363    846.308    644.645    644.645
 77.070    991.000   1053.873    -62.873    644.449    824.666    873.611    644.449    644.449
 77.170   1065.148   1091.968    -26.820    644.252    840.331    895.847    644.252    644.252
 77.270   1153.000   1115.975     37.025    644.053    850.085    909.909    644.053    644.053
 77.370   1134.000   1121.830     12.170    643.853    852.208    913.450    643.853    643.853
 77.470   1090.074   1108.369    -18.296    643.651    846.205    905.799    643.651    643.651
 77.570   1165.000   1077.866     87.134    643.448    833.032    888.274    643.448    643.448
 77.670   1024.158   1035.029    -10.871    643.243    814.671    863.601    643.243    643.243
 77.770    927.360    985.318    -57.958    643.037    793.420    834.938    643.037    643.037
 77.870    924.000    933.671     -9.671    642.829    771.360    805.147    642.829    642.829
 77.970    929.000    883.955     45.045    642.619    750.119    776.464    642.619    642.619
 78.070    815.000    838.852    -23.852    642.408    730.825    750.443    642.408    642.408
 78.170    863.464    799.933     63.531    642.196    714.142    727.995    642.196    642.196
 78.270    817.897    767.812     50.085    641.982    700.326    709.475    641.982    641.982
 78.370    787.924    742.348     45.576    641.766    689.317    694.803    641.766    641.766
 78.470    760.264    722.882     37.382    641.549    680.837    683.599    641.549    641.549
 78.570    698.709    708.471     -9.762    641.331    674.487    675.318    641.331    641.331
 78.670    734.405    698.085     36.320    641.111    669.832    669.366    641.111    641.111
 78.770    667.000    690.756    -23.756    640.889    666.464    665.183    640.889    640.889
 78.870    680.821    685.657     -4.836    640.667    664.032    662.293    640.667    640.667
 78.970    663.000    682.142    -19.142    640.442    662.264    660.321    640.442    640.442
 79.070    662.000    679.734    -17.734    640.216    660.957    658.994    640.216    640.216
 79.170    645.000    678.106    -33.106    639.989    659.972    658.123    639.989    639.989
 79.270    654.000    677.049    -23.049    639.760    659.220    657.589    639.760    639.760
 79.370    676.518    676.439      0.079    639.530    658.647    657.323    639.530    639.530
 79.470    626.700    676.220    -49.520    639.298    658.226    657.293    639.298    639.298
 79.570    653.000    676.383    -23.383    639.065    657.950    657.499    639.065    639.065
 79.670    734.000    676.966     57.034    638.830    657.825    657.972    638.830    638.830
 79.770    636.935    678.052    -41.117    638.594    657.872    658.774    638.594    638.594
 79.870    648.000    679.782    -31.782    638.357    658.123    660.015    638.357    638.357
 79.970    659.000    682.375    -23.375    638.118    658.622    661.870    638.118    638.118
 80.070    673.000    686.160    -13.160    637.877    659.430    664.607    637.877    637.877
 80.170    649.091    691.610    -42.519    637.636    660.622    668.621    637.636    637.636
 80.270    700.000    699.385      0.615    637.392    662.300    674.474    637.392    637.392
 80.370    732.000    710.374     21.626    637.148    664.590    682.926    637.148    637.148
 80.470    749.000    725.714     23.286    636.902    667.652    694.957    636.902    636.902
 80.570    756.000    746.776      9.224    636.654    671.679    711.741    636.654    636.654
 80.670    782.533    775.089      7.444    636.406    676.892    734.589    636.406    636.406
 80.770    826.000    812.196     13.804    636.156    683.528    764.807    636.156    636.156
 80.870    891.667    859.447     32.220    635.904    691.828    803.505    635.904    635.904
 80.970    962.000    917.738     44.262    635.651    702.016    851.354    635.651    635.651
 81.070    992.000    987.228      4.772    635.397    714.285    908.324    635.397    635.397
 81.170   1088.000   1067.041     20.959    635.142    728.751    973.419    635.142    635.142
 81.270   1216.000   1154.978     61.022    634.885    745.389   1044.471    634.885    634.885
 81.370   1218.263   1247.326    -29.064    634.626    763.950   1118.012    634.626    634.626
 81.470   1348.443   1338.847      9.597    634.367    783.912   1189.329    634.367    634.367
 81.570   1365.907   1423.083    -57.176    634.106    804.472   1252.766    634.106    634.106
 81.670   1573.000   1493.128     79.872    633.844    824.610   1302.435    633.844    633.844
 81.770   1628.888   1542.819     86.069    633.580    843.212   1333.286    633.580    633.580
 81.870   1667.000   1568.050     98.950    633.315    859.260   1342.227    633.315    633.315
 81.970   1584.639   1567.486     17.153    633.049    871.977   1328.700    633.049    633.049
 82.070   1694.000   1542.309    151.691    632.782    880.782   1294.466    632.782    632.782
 82.170   1532.000   1495.895     36.105    632.513    885.415   1243.160    632.513    632.513
 82.270   1468.000   1433.166     34.834    632.243    885.900   1179.681    632.243    632.243
 82.370   1375.263   1359.775     15.488    631.972    882.426   1109.493    631.972    631.972
 82.470   1354.000   1281.191     72.809    631.699    875.227   1037.830    631.699    631.699
 82.570   1218.366   1202.063     16.303    631.426    864.587    969.059    631.426    631.426
 82.670   1153.000   1126.008     26.992    631.151    850.962    906.344    631.151    631.151
 82.770   1065.000   1055.637      9.363    630.874    835.060    851.585    630.874    630.874
 82.870    974.000    992.580    -18.580    630.597    817.739    805.558    630.597    630.597
 82.970    949.000    937.524     11.476    630.318    799.811    768.138    630.318    630.318
 83.070    866.000    890.357    -24.357    630.038    781.914    738.576    630.038    630.038
 83.170    788.000    850.465    -62.465    629.757    764.529    715.775    629.757    629.757
 83.270    785.000    817.051    -32.051    629.475    748.060    698.536    629.475    629.475
 83.370    742.000    789.368    -47.368    629.191    732.891    685.727    629.191    629.191
 83.470    726.000    766.809    -40.809    628.907    719.384    676.379    628.907    628.907
 83.570    730.472    748.904    -18.431    628.621    707.837    669.724    628.621    628.621
 83.670    691.000    735.286    -44.286    628.334    698.461    665.185    628.334    628.334
 83.770    704.000    725.653    -21.653    628.046    691.364    662.350    628.046    628.046
 83.870    682.000    719.726    -37.726    627.756    686.557    660.931    627.756    627.756
 83.970    748.940    717.205     31.736    627.466    683.954    660.712    627.466    627.466
 84.070    669.535    717.728    -48.192    627.174    683.373    661.516    627.174    627.174
 84.170    729.000    720.837      8.163    626.882    684.537    663.160    626.882    626.882
 84.270    760.494    725.952     34.542    626.588    687.076    665.433    626.588    626.588
 84.370    730.000    732.364     -2.364    626.293    690.536    668.083    626.293    626.293
 84.470    767.585    739.242     28.343    625.997    694.387    670.808    625.997    625.997
 84.570    778.018    745.657     32.361    625.700    698.044    673.265    625.700    625.700
 84.670    676.000    750.648    -74.648    625.402    700.906    675.093    625.402    625.402
 84.770    750.000    753.334     -3.334    625.103    702.428    675.958    625.103    625.103
 84.870    712.699    753.094    -40.395    624.802    702.220    675.627    624.802    624.802
 84.970    778.325    749.724     28.601    624.501    700.150    674.029    624.501    624.501
 85.070    715.347    743.475    -28.128    624.199    696.356    671.275    624.199    624.199
 85.170    753.469    734.960     18.509    623.895    691.196    667.623    623.895    623.895
 85.270    712.572    724.970    -12.397    623.591    685.129    663.400    623.591    623.591
 85.370    679.000    714.308    -35.308    623.285    678.624    658.943    623.285    623.285
 85.470    697.000    703.700     -6.700    622.979    672.095    654.561    622.979    622.979
 85.570    734.376    693.739     40.638    622.672    665.876    650.515    622.672    622.672
 85.670    656.733    684.880    -28.147    622.363    660.211    647.016    622.363    622.363
 85.770    643.000    677.438    -34.438    622.054    655.253    644.226    622.054    622.054
 85.870    672.000    671.600      0.400    621.744    651.074    642.258    621.744    621.744
 85.970    674.000    667.449      6.551    621.432    647.681    641.190    621.432    621.432
 86.070    659.000    664.982     -5.982    621.120    645.029    641.063    621.120    621.120
 86.170    634.000    664.138    -30.138    620.807    643.046    641.887    620.807    620.807
 86.270    678.000    664.816     13.184    620.493    641.652    643.645    620.493    620.493
 86.370    634.754    666.885    -32.131    620.178    640.767    646.281    620.178    620.178
 86.470    676.000    670.192      5.808    619.862    640.334    649.703    619.862    619.862
 86.570    721.411    674.562     46.849    619.546    640.318    653.770    619.546    619.546
 86.670    698.282    679.799     18.483    619.228    640.717    658.287    619.228    619.228
 86.770    638.687    685.679    -46.992    618.910    641.561    663.002    618.910    618.910
 86.870    720.748    691.955     28.793    618.591    642.913    667.604    618.591    618.591
 86.970    688.528    698.360     -9.832    618.271    644.867    671.731    618.271    618.271
 87.070    721.067    704.624     16.443    617.950    647.538    674.999    617.950    617.950
 87.170    705.000    710.517     -5.517    617.628    651.058    677.046    617.628    617.628
 87.270    688.000    715.909    -27.909    617.305    655.556    677.612    617.305    617.305
 87.370    724.000    720.820      3.180    616.982    661.147    676.604    616.982    616.982
 87.470    749.577    725.424     24.153    616.658    667.904    674.119    616.658    616.658
 87.570    751.797    729.980     21.817    616.333    675.836    670.411    616.333    616.333
 87.670    724.000    734.734    -10.734    616.008    684.861    665.805    616.008    616.008
 87.770    778.000    739.828     38.172    615.681    694.786    660.638    615.681    615.681
 87.870    725.740    745.244    -19.504    615.354    705.287    655.215    615.354    615.354
 87.970    797.000    750.778     46.222    615.026    715.903    649.796    615.026    615.026
 88.070    743.432    756.043    -12.611    614.698    726.036    644.591    614.698    614.698
 88.170    716.897    760.488    -43.591    614.369    734.977    639.759    614.369    614.369
 88.270    791.000    763.473     27.527    614.039    741.983    635.406    614.039    614.039
 88.370    753.014    764.401    -11.387    613.708    746.401    631.585    613.708    613.708
 88.470    760.000    762.886     -2.886    613.377    747.839    628.306    613.377    613.377
 88.570    811.000    758.886     52.114    613.045    746.277    625.543    613.045    613.045
 88.670    743.000    752.715     -9.715    612.712    742.078    623.250    612.712    612.712
 88.770    789.000    744.952     44.048    612.379    735.876    621.369    612.379    612.379
 88.870    770.000    736.297     33.703    612.046    728.432    619.839    612.046    612.046
 88.970    694.578    727.469    -32.892    611.711    720.522    618.601    611.711    611.711
 89.070    718.000    719.142     -1.142    611.376    712.871    617.604    611.376    611.376
 89.170    711.000    711.899     -0.899    611.041    706.106    616.804    611.041    611.041
 89.270    701.793    706.204     -4.411    610.705    700.727    616.164    610.705    610.705
 89.370    719.019    702.365     16.654    610.368    697.072    615.654    610.368    610.368
 89.470    695.000    700.519     -5.519    610.031    695.305    615.250    610.031    610.031
 89.570    712.000    700.630     11.370    609.694    695.409    614.929    609.694    609.694
 89.670    703.183    702.492      0.690    609.355    697.200    614.671    609.355    609.355
 89.770    714.000    705.746      8.254    609.017    700.340    614.456    609.017    609.017
 89.870    732.000    709.902     22.098    608.678    704.358    614.264    608.678    608.678
 89.970    722.000    714.365      7.635    608.338    708.682    614.072    608.338    608.338
 90.070    720.713    718.473      2.240    607.998    712.669    613.859    607.998    607.998
 90.170    685.017    721.552    -36.534    607.658    715.671    613.602    607.658    607.658
 90.270    708.000    723.007    -15.007    607.317    717.110    613.282    607.317    607.317
 90.370    678.512    722.429    -43.917    606.976    716.587    612.888    606.976    606.976
 90.470    681.000    719.674    -38.674    606.634    713.964    612.415    606.634    606.634
 90.570    758.811    714.885     43.926    606.292    709.376    611.870    606.292    606.292
 90.670    694.210    708.429    -14.219    605.950    703.178    611.267    605.950    605.950
 90.770    743.000    700.795     42.205    605.607    695.840    610.623    605.607    605.607
 90.870    638.018    692.498    -54.480    605.264    687.859    609.958    605.264    605.264
 90.970    689.342    684.010      5.332    604.921    679.691    609.287    604.921    604.921
 91.070    662.051    675.731    -13.680    604.577    671.723    608.627    604.577    604.577
 91.170    626.000    667.976    -41.976    604.233    664.258    607.986    604.233    604.233
 91.270    647.000    660.970    -13.970    603.889    657.513    607.375    603.889    603.889
 91.370    676.000    654.853     21.147    603.544    651.624    606.796    603.544    603.544
 91.470    686.000    649.690     36.310    603.200    646.653    606.254    603.200    603.200
 91.570    622.000    645.483    -23.483    602.855    642.604    605.747    602.855    602.855
 91.670    606.000    642.192    -36.192    602.510    639.437    605.275    602.510    602.510
 91.770    609.231    639.749    -30.518    602.164    637.085    604.835    602.164    602.164
 91.870    641.000    638.077      2.923    601.819    635.476    604.424    601.819    601.819
 91.970    587.000    637.104    -50.104    601.473    634.539    604.041    601.473    601.473
 92.070    620.000    636.780    -16.780    601.127    634.225    603.683    601.127    601.127
 92.170    618.000    637.080    -19.080    600.781    634.510    603.350    600.781    600.781
 92.270    593.477    638.014    -44.537    600.435    635.404    603.042    600.435    600.435
 92.370    647.000    639.630      7.370    600.089    636.952    602.762    600.089    600.089
 92.470    663.000    642.009     20.991    599.743    639.232    602.513    599.743    599.743
 92.570    646.000    645.266      0.734    599.396    642.354    602.299    599.396    599.396
 92.670    681.000    649.542     31.458    599.050    646.456    602.125    599.050    599.050
 92.770    680.555    654.996     25.559    598.703    651.688    601.997    598.703    598.703
 92.870    699.000    661.790     37.210    598.357    658.208    601.920    598.357    598.357
 92.970    643.000    670.075    -27.075    598.010    666.164    601.899    598.010    598.010
 93.070    692.000    679.979     12.021    597.664    675.679    601.937    597.664    597.664
 93.170    680.620    691.587    -10.967    597.318    686.836    602.036    597.318    597.318
 93.270    686.000    704.927    -18.927    596.971    699.663    602.195    596.971    596.971
 93.370    689.000    719.956    -30.956    596.625    714.122    602.413    596.625    596.625
 93.470    795.413    736.552     58.860    596.279    730.093    602.686    596.279    596.279
 93.570    674.000    754.499    -80.499    595.932    747.365    603.008    595.932    595.932
 93.670    843.000    773.478     69.522    595.586    765.624    603.375    595.586    595.586
 93.770    832.000    793.137     38.863    595.240    784.521    603.785    595.240    595.240
 93.870    860.132    813.004     47.127    594.895    803.581    604.242    594.895    594.895
 93.970    775.304    832.619    -57.316    594.549    822.333    604.756    594.549    594.549
 94.070    806.785    851.608    -44.824    594.204    840.377    605.353    594.204    594.204
 94.170    834.418    869.782    -35.364    593.858    857.480    606.076    593.858    593.858
 94.270    851.000    887.189    -36.189    593.513    873.628    606.990    593.513    593.513
 94.370    913.685    904.094      9.592    593.169    889.005    608.174    593.169    593.169
 94.470    912.724    920.871     -8.147    592.824    903.892    609.719    592.824    592.824
 94.570    957.249    937.863     19.386    592.480    918.547    611.713    592.480    592.480
 94.670    901.403    955.271    -53.868    592.136    933.092    614.234    592.136    592.136
 94.770   1007.727    973.103     34.624    591.792    947.486    617.330    591.792    591.792
 94.870    995.000    991.200      3.800    591.449    961.555    621.017    591.449    591.449
 94.970   1038.607   1009.315     29.291    591.106    975.082    625.266    591.106    591.106
 95.070   1048.000   1027.177     20.823    590.763    987.873    629.996    590.763    590.763
 95.170   1029.000   1044.491    -15.491    590.421    999.771    635.074    590.421    590.421
 95.270   1057.482   1060.868     -3.386    590.079   1010.576    640.310    590.079    590.079
 95.370   1066.000   1075.723     -9.723    589.738   1019.943    645.463    589.738    589.738
 95.470   1131.995   1088.204     43.791    589.397   1027.304    650.249    589.397    589.397
 95.570   1104.000   1097.215      6.785    589.056   1031.877    654.355    589.056    589.056
 95.670   1026.409   1101.530    -75.121    588.716   1032.749    657.469    588.716    588.716
 95.770   1082.000   1100.021    -18.021    588.376   1029.065    659.314    588.376    588.376
 95.870   1139.000   1091.929     47.071    588.037   1020.255    659.704    588.037    588.037
 95.970   1013.425   1077.105    -63.680    587.699   1006.231    658.573    587.699    587.699
 96.070   1119.289   1056.122     63.167    587.361    987.492    656.000    587.361    587.361
 96.170   1106.000   1030.204     75.796    587.023    965.057    652.186    587.023    587.023
 96.270    998.000   1001.012     -3.012    586.687    940.304    647.412    586.687    586.687
 96.370   1014.097    970.414     43.683    586.350    914.788    641.996    586.350    586.350
 96.470    961.000    940.311     20.689    586.015    890.096    636.250    586.015    586.015
 96.570    912.000    912.521     -0.521    585.680    867.760    630.459    585.680    585.680
 96.670    857.918    888.713    -30.795    585.346    849.209    624.865    585.346    585.346
 96.770    875.000    870.379      4.621    585.012    835.740    619.661    585.012    585.012
 96.870    848.000    858.804    -10.804    584.679    828.503    614.984    584.679    584.679
 96.970    892.000    855.061     36.939    584.347    828.485    610.921    584.347    584.347
 97.070    853.000    859.998     -6.998    584.015    836.496    607.508    584.015    584.015
 97.170    851.000    874.229    -23.229    583.685    853.152    604.744    583.685    583.685
 97.270    903.745    898.122      5.623    583.355    878.852    602.598    583.355    583.355
 97.370    882.517    931.741    -49.225    583.026    913.713    601.019    583.026    583.026
 97.470   1026.000    974.973     51.027    582.698    957.680    599.947    582.698    582.698
 97.570   1088.424   1027.299     61.125    582.370   1010.301    599.318    582.370    582.370
 97.670   1049.144   1087.804    -38.660    582.044   1070.729    599.062    582.044    582.044
 97.770   1152.000   1155.165     -3.165    581.718   1137.712    599.109    581.718    581.718
 97.870   1190.000   1227.608    -37.608    581.393   1209.545    599.391    581.393    581.393
 97.970   1333.872   1302.866     31.006    581.070   1284.034    599.835    581.070    581.070
 98.070   1382.000   1378.159      3.841    580.747   1358.477    600.364    580.747    580.747
 98.170   1463.000   1450.240     12.760    580.425   1429.706    600.899    580.425    580.425
 98.270   1464.000   1515.493    -51.493    580.104   1494.191    601.355    580.104    580.104
 98.370   1601.304   1570.154     31.150    579.784   1548.249    601.650    579.784    579.784
 98.470   1569.000   1610.688    -41.688    579.466   1588.423    601.708    579.466    579.466
 98.570   1651.000   1634.305     16.695    579.148   1611.980    601.468    579.148    579.148
 98.670   1607.000   1639.464    -32.464    578.831   1617.412    600.897    578.831    578.831
 98.770   1655.000   1626.184     28.816    578.516   1604.738    599.994    578.516    578.516
 98.870   1606.172   1596.021     10.151    578.201   1575.482    598.790    578.201    578.201
 98.970   1560.000   1551.726      8.274    577.888   1532.339    597.339    577.888    577.888
 99.070   1563.000   1496.770     66.230    577.576   1478.711    595.710    577.576    577.576
 99.170   1487.000   1434.891     52.109    577.265   1418.262    593.974    577.265    577.265
 99.270   1398.000   1369.759     28.241    576.955   1354.594    592.202    576.955    576.955
 99.370   1337.000   1304.773     32.227    576.647   1291.040    590.459    576.647    576.647
 99.470   1244.896   1242.942      1.954    576.340   1230.555    588.802    576.340    576.340
 99.570   1170.000   1186.841    -16.841    576.034   1175.667    587.277    576.034    576.034
 99.670   1136.000   1138.608     -2.608    575.729   1128.476    585.922    575.729    575.729
 99.770   1119.000   1099.971     19.029    575.426   1090.683    584.765    575.426    575.426
 99.870   1120.948   1072.283     48.665    575.124   1063.624    583.825    575.124    575.124
 99.970   1028.000   1056.558    -28.558    574.824   1048.302    583.112    574.824    574.824
100.070   1038.817   1053.490    -14.673    574.525   1045.411    582.628    574.525    574.525
100.170   1105.071   1063.468     41.603    574.227   1055.343    582.368    574.227    574.227
100.270   1098.000   1086.581     11.419    573.931   1078.203    582.320    573.931    573.931
100.370   1068.000   1122.628    -54.628    573.636   1113.806    582.466    573.636    573.636
100.470   1225.463   1171.115     54.349    573.342   1161.682    582.781    573.342    573.342
100.570   1230.000   1231.246     -1.246    573.051   1221.066    583.239    573.051    573.051
100.670   1300.000   1301.911     -1.911    572.760   1290.879    583.804    572.760    572.760
100.770   1366.000   1381.656    -15.656    572.472   1369.707    584.440    572.472    572.472
100.870   1500.000   1468.653     31.347    572.185   1455.764    585.104    572.185    572.185
100.970   1568.000   1560.677      7.323    571.899   1546.869    585.753    571.899    571.899
101.070   1657.000   1655.167      1.833    571.615   1640.507    586.339    571.615    571.615
101.170   1796.000   1749.254     46.746    571.333   1733.854    586.818    571.333    571.333
101.270   1793.000   1839.936    -46.936    571.052   1823.948    587.149    571.052    571.052
101.370   1984.827   1924.340     60.487    570.774   1907.947    587.302    570.774    570.774
101.470   1945.000   1999.967    -54.967    570.497   1983.364    587.261    570.497    570.497
101.570   2055.000   2064.841     -9.841    570.221   2048.222    587.029    570.221    570.221
101.670   2087.000   2117.508    -30.508    569.948   2101.043    586.626    569.948    569.948
101.770   2126.000   2156.867    -30.867    569.676   2140.694    586.085    569.676    569.676
101.870   2168.728   2181.976    -13.248    569.406   2166.191    585.447    569.406    569.406
101.970   2227.000   2191.952     35.048    569.138   2176.607    584.756    569.138    569.138
102.070   2154.401   2186.071    -31.670    568.872   2171.176    584.053    568.872    568.872
102.170   2088.000   2164.066    -76.066    568.607   2149.594    583.374    568.607    568.607
102.270   2171.927   2126.498     45.429    568.345   2112.392    582.751    568.345    568.345
102.370   2107.000   2075.015     31.985    568.085   2061.193    582.206    568.085    568.085
102.470   2052.000   2012.327     39.673    567.826   1998.692    581.756    567.826    567.826
102.570   1848.733   1941.898    -93.165    567.570   1928.346    581.408    567.570    567.570
102.670   1926.000   1867.468     58.532    567.315   1853.899    581.158    567.315    567.315
102.770   1790.000   1792.582     -2.582    567.063   1778.907    580.997    567.063    567.063
102.870   1697.000   1720.251    -23.251    566.813   1706.404    580.904    566.813    566.813
102.970   1650.000   1652.768     -2.768    566.565   1638.705    580.855    566.565    566.565
103.070   1640.000   1591.635     48.365    566.319   1577.344    580.821    566.319    566.319
103.170   1574.172   1537.579     36.593    566.075   1523.076    580.776    566.075    566.075
103.270   1408.000   1490.594    -82.594    565.833   1475.919    580.693    565.833    565.833
103.370   1472.640   1450.013     22.627    565.594   1435.230    580.551    565.594    565.594
103.470   1427.000   1414.606     12.394    565.357   1399.799    580.330    565.357    565.357
103.570   1328.000   1382.746    -54.746    565.122   1368.016    580.011    565.122    565.122
103.670   1319.413   1352.573    -33.160    564.889   1338.037    579.579    564.889    564.889
103.770   1252.000   1322.264    -70.264    564.659   1308.051    579.022    564.659    564.659
103.870   1285.000   1290.294     -5.294    564.431   1276.535    578.336    564.431    564.431
103.970   1258.000   1255.642      2.358    564.205   1242.467    577.524    564.205    564.205
104.070   1154.863   1217.893    -63.030    563.982   1205.415    576.600    563.982    563.982
104.170   1179.000   1177.194      1.806    563.761   1165.505    575.585    563.761    563.761
104.270   1171.406   1134.121     37.286    563.543   1123.287    574.505    563.543    563.543
104.370   1118.000   1089.502     28.498    563.327   1079.562    573.389    563.327    563.327
104.470   1089.000   1044.272     44.728    563.114   1035.237    572.262    563.114    563.114
104.570   1007.000    999.358      7.642    562.903    991.216    571.149    562.903    562.903
104.670   1000.631    955.617     45.014    562.695    948.338    570.069    562.695    562.695
104.770    930.083    913.798     16.285    562.489    907.335    569.039    562.489    562.489
104.870    848.000    874.520    -26.520    562.286    868.813    568.069    562.286    562.286
104.970    857.000    838.255     18.745    562.085    833.239    567.169    562.085    562.085
105.070    756.772    805.331    -48.559    561.888    800.935    566.343    561.888    561.888
105.170    817.000    775.918     41.082    561.693    772.074    565.588    561.693    561.693
105.270    702.516    750.058    -47.542    561.500    746.700    564.902    561.500    561.500
105.370    718.374    727.728     -9.353    561.311    724.778    564.297    561.311    561.311
105.470    758.754    708.741     50.013    561.124    706.135    563.761    561.124    561.124
105.570    746.000    692.864     53.136    560.940    690.543    563.286    560.940    560.940
105.670    733.000    679.823     53.177    560.759    677.737    562.867    560.759    560.759
105.770    684.581    669.328     15.254    560.581    667.429    562.497    560.581    560.581
105.870    653.798    661.086     -7.288    560.406    659.335    562.170    560.406    560.406
105.970    714.000    654.828     59.172    560.233    653.189    561.882    560.233    560.233
106.070    675.000    650.311     24.689    560.064    648.756    561.626    560.064    560.064
106.170    692.000    647.332     44.668    559.898    645.835    561.399    559.898    559.898
106.270    644.000    645.730     -1.730    559.734    644.269    561.197    559.734    559.734
106.370    626.000    645.385    -19.385    559.574    643.939    561.019    559.574    559.574
106.470    628.000    646.214    -18.214    559.417    644.766    560.861    559.417    559.417
106.570    709.000    648.168     60.832    559.263    646.703    560.722    559.263    559.263
106.670    657.651    651.225      6.426    559.112    649.726    560.602    559.112    559.112
106.770    689.000    655.382     33.618    558.964    653.834    560.500    558.964    558.964
106.870    688.000    660.646     27.354    558.819    659.035    560.416    558.819    558.819
106.970    639.182    667.029    -27.847    558.678    665.340    560.349    558.678    558.678
107.070    687.000    674.538     12.462    558.540    672.757    560.300    558.540    558.540
107.170    695.000    683.167     11.833    558.405    681.280    560.269    558.405    558.405
107.270    651.348    692.887    -41.539    558.273    690.879    560.254    558.273    558.273
107.370    692.000    703.636    -11.636    558.145    701.495    560.255    558.145    558.145
107.470    708.000    715.311     -7.311    558.020    713.026    560.271    558.020    558.020
107.570    730.000    727.766      2.234    557.899    725.328    560.300    557.899    557.899
107.670    721.366    740.802    -19.436    557.781    738.205    560.338    557.781    557.781
107.770    741.000    754.172    -13.172    557.666    751.413    560.383    557.666    557.666
107.870    729.000    767.582    -38.582    557.555    764.661    560.431    557.555    557.555
107.970    788.000    780.692      7.308    557.448    777.618    560.476    557.448    557.448
108.070    817.000    793.135     23.865    557.344    789.918    560.514    557.344    557.344
108.170    752.000    804.527    -52.527    557.243    801.185    560.538    557.243    557.243
108.270    831.209    814.499     16.709    557.147    811.055    560.545    557.147    557.147
108.370    787.645    822.736    -35.091    557.054    819.217    560.528    557.054    557.054
108.470    786.000    829.016    -43.016    556.964    825.453    560.485    556.964    556.964
108.570    797.000    833.254    -36.254    556.879    829.681    560.413    556.879    556.879
108.670    821.000    835.524    -14.524    556.797    831.973    560.313    556.797    556.797
108.770    843.709    836.055      7.654    556.719    832.555    560.188    556.719    556.719
108.870    864.415    835.200     29.215    556.644    831.776    560.041    556.644    556.644
108.970    830.000    833.385     -3.385    556.574    830.059    559.878    556.574    556.574
109.070    812.000    831.065    -19.065    556.507    827.850    559.705    556.507    556.507
109.170    800.000    828.667    -28.667    556.445    825.572    559.527    556.445    556.445
109.270    807.000    826.562    -19.562    556.386    823.590    559.350    556.386    556.386
109.370    806.000    825.037    -19.037    556.331    822.186    559.178    556.331    556.331
109.470    781.447    824.282    -42.834    556.281    821.547    559.016    556.281    556.281
109.570    763.000    824.383    -61.383    556.234    821.756    558.865    556.234    556.234
109.670    876.564    825.316     51.248    556.191    822.788    558.728    556.191    556.191
109.770    872.431    826.949     45.482    556.153    824.510    558.605    556.153    556.153
109.870    798.000    829.049    -31.049    556.119    826.688    558.497    556.119    556.119
109.970    782.000    831.289    -49.289    556.088    828.996    558.401    556.088    556.088
110.070    846.000    833.269     12.731    556.062    831.039    558.317    556.062    556.062
110.170    820.371    834.548    -14.177    556.041    832.375    558.242    556.041    556.041
110.270    782.000    834.682    -52.682    556.023    832.563    558.172    556.023    556.023
110.370    816.000    833.278    -17.278    556.010    831.215    558.107    556.010    556.010
110.470    823.000    830.044     -7.044    556.001    828.040    558.042    556.001    556.001
110.570    824.000    824.823     -0.823    555.997    822.891    557.967    555.997    555.997
110.670    775.000    817.644    -42.644    555.997    815.785    557.894    555.997    555.997
110.770    827.000    808.673     18.327    556.001    806.884    557.829    556.001    556.001
110.870    815.000    798.177     16.823    556.010    796.461    557.764    556.010    556.010
110.970    815.000    786.500     28.500    556.023    784.859    557.701    556.023    556.023
111.070    800.000    774.017     25.983    556.041    772.452    557.642    556.041    556.041
111.170    742.388    761.099    -18.710    556.064    759.608    557.587    556.064    556.064
111.270    765.000    748.091     16.909    556.091    746.674    557.539    556.091    556.091
111.370    786.000    735.299     50.701    556.123    733.951    557.498    556.123    556.123
111.470    764.000    723.000     41.000    556.159    721.717    557.467    556.159    556.159
111.570    719.000    711.417      7.583    556.201    710.194    557.446    556.201    556.201
111.670    686.068    700.721    -14.654    556.246    699.551    557.436    556.246    556.246
111.770    708.000    691.039     16.961    556.297    689.915    557.437    556.297    556.297
111.870    733.775    682.454     51.321    556.353    681.370    557.451    556.353    556.353
111.970    645.000    675.008    -30.008    556.413    673.955    557.476    556.413    556.413
112.070    695.000    668.704     26.296    556.478    667.677    557.514    556.478    556.478
112.170    708.000    663.516     44.484    556.549    662.508    557.563    556.549    556.549
112.270    665.000    659.391      5.609    556.624    658.395    557.623    556.624    556.624
112.370    618.000    656.259    -38.259    556.704    655.270    557.695    556.704    556.704
112.470    696.000    654.036     41.964    556.789    653.049    557.776    556.789    556.789
112.570    667.000    652.630     14.370    556.880    651.641    557.867    556.880    556.880
112.670    669.062    651.950     17.112    556.975    650.955    557.967    556.975    556.975
112.770    695.433    651.903     43.530    557.075    650.900    558.075    557.075    557.075
112.870    663.359    652.406     10.953    557.181    651.392    558.190    557.181    557.181
112.970    638.000    653.382    -15.382    557.292    652.356    558.312    557.292    557.292
113.070    636.404    654.765    -18.360    557.408    653.726    558.441    557.408    557.408
113.170    656.242    656.501     -0.259    557.530    655.450    558.574    557.530    557.530
113.270    666.000    658.552      7.448    557.657    657.488    558.714    557.657    557.657
113.370    663.000    660.893      2.107    557.789    659.816    558.858    557.789    557.789
113.470    631.673    663.516    -31.843    557.926    662.426    559.009    557.926    557.926
113.570    669.000    666.429      2.571    558.069    665.325    559.165    558.069    558.069
113.670    645.000    669.657    -24.657    558.218    668.538    559.328    558.218    558.218
113.770    705.082    673.241     31.840    558.372    672.106    559.498    558.372    558.372
113.870    711.332    677.246     34.085    558.531    676.091    559.677    558.531    558.531
113.970    620.000    681.755    -61.755    558.696    680.576    559.865    558.696    558.696
114.070    684.000    686.880     -2.880    558.867    685.672    560.064    558.867    558.867
114.170    663.000    692.764    -29.764    559.043    691.521    560.276    559.043    559.043
114.270    717.913    699.593     18.320    559.226    698.305    560.501    559.226    559.226
114.370    673.000    707.602    -34.602    559.413    706.257    560.744    559.413    559.413
114.470    774.710    717.086     57.625    559.607    715.672    561.004    559.607    559.607
114.570    731.000    728.417      2.583    559.806    726.919    561.285    559.806    559.806
114.670    737.000    742.058     -5.058    560.012    740.457    561.590    560.012    560.012
114.770    732.000    758.577    -26.577    560.223    756.851    561.922    560.223    560.223
114.870    761.000    778.665    -17.665    560.440    776.789    562.284    560.440    560.440
114.970    830.524    803.156     27.368    560.663    801.101    562.679    560.663    560.663
115.070    824.947    833.037     -8.090    560.892    830.770    563.111    560.892    560.892
115.170    828.000    869.467    -41.467    561.127    866.951    563.585    561.127    561.127
115.270    877.747    913.780    -36.033    561.368    910.975    564.104    561.368    561.368
115.370    941.000    967.492    -26.492    561.615    964.351    564.673    561.615    561.615
115.470   1045.000   1032.291     12.709    561.869   1028.763    565.295    561.869    561.869
115.570   1087.000   1110.021    -23.021    562.128   1106.051    565.976    562.128    562.128
115.670   1132.000   1202.652    -70.652    562.394   1198.183    566.718    562.394    562.394
115.770   1261.628   1312.238    -50.610    562.666   1307.207    567.525    562.666    562.666
115.870   1415.448   1440.853    -25.404    562.945   1435.195    568.400    562.945    562.945
115.970   1585.000   1590.519     -5.519    563.230   1584.168    569.345    563.230    563.230
116.070   1806.037   1763.112     42.925    563.521   1756.000    570.361    563.521    563.521
116.170   1939.000   1960.262    -21.262    563.819   1952.323    571.448    563.819    563.819
116.270   2238.000   2183.235     54.765    564.123   2174.403    572.604    564.123    564.123
116.370   2411.000   2432.813    -21.813    564.433   2423.028    573.825    564.433    564.433
116.470   2788.295   2709.174     79.122    564.751   2698.383    575.107    564.751    564.751
116.570   2947.552   3011.778    -64.226    565.074   2999.935    576.442    565.074    565.074
116.670   3352.000   3339.264     12.736    565.405   3326.333    577.821    565.405    565.405
116.770   3538.000   3689.366   -151.366    565.742   3675.324    579.233    565.742    565.742
116.870   3973.000   4058.851    -85.851    566.086   4043.691    580.665    566.086    566.086
116.970   4534.567   4443.484     91.083    566.436   4427.212    582.103    566.436    566.436
117.070   4780.000   4838.023    -58.023    566.794   4820.663    583.534    566.794    566.794
117.170   5084.000   5236.372   -152.372    567.158   5217.960    584.945    567.158    567.158
117.270   5507.000   5631.419   -124.419    567.529   5612.007    586.321    567.529    567.529
117.370   5942.453   6015.298    -72.844    567.907   5994.955    587.648    567.907    567.907
117.470   6334.000   6379.514    -45.514    568.292   6358.322    588.913    568.292    568.292
117.570   6604.000   6715.153   -111.153    568.684   6693.210    590.102    568.684    568.684
117.670   6834.783   7013.178   -178.395    569.083   6990.593    591.202    569.083    569.083
117.770   7227.000   7264.825    -37.825    569.489   7241.724    592.197    569.489    569.489
117.870   7386.000   7462.103    -76.103    569.902   7438.621    593.076    569.902    569.902
117.970   7583.000   7598.362    -15.362    570.323   7574.644    593.827    570.323    570.323
118.070   7730.238   7668.859     61.379    570.750   7645.053    594.443    570.750    570.750
118.170   7547.360   7671.216   -123.856    571.185   7647.472    594.918    571.185    571.185
118.270   7605.000   7605.664     -0.664    571.627   7582.129    595.253    571.627    571.627
118.370   7579.000   7475.019    103.981    572.077   7451.830    595.452    572.077    572.077
118.470   7384.000   7284.379     99.621    572.534   7261.661    595.523    572.534    572.534
118.570   7008.724   7040.632    -31.907    572.998   7018.499    595.478    572.998    572.998
118.670   6670.000   6751.882    -81.882    573.470   6730.433    595.328    573.470    573.470
118.770   6282.892   6426.888   -143.997    573.949   6406.206    595.087    573.949    573.949
118.870   5956.000   6074.580   -118.580    574.436   6054.734    594.771    574.436    574.436
118.970   5704.314   5703.683      0.631    574.930   5684.729    594.393    574.930    574.930
119.070   5212.170   5322.437   -110.267    575.433   5304.417    593.969    575.433    575.433
119.170   4956.089   4938.395     17.694    575.942   4921.336    593.513    575.942    575.942
119.270   4648.000   4558.282     89.718    576.460   4542.199    593.040    576.460    576.460
119.370   4327.000   4187.901    139.099    576.985   4172.795    592.565    576.985    576.985
119.470   3905.000   3832.081     72.919    577.518   3817.942    592.101    577.518    577.518
119.570   3633.000   3494.659    138.341    578.059   3481.463    591.663    578.059    578.059
119.670   3160.217   3178.500    -18.283    578.608   3166.215    591.263    578.608    578.608
119.770   2898.000   2885.550     12.450    579.165   2874.135    590.910    579.165    579.165
119.870   2609.816   2616.917     -7.101    579.730   2606.321    590.614    579.730    579.730
119.970   2425.000   2372.970     52.030    580.302   2363.137    590.383    580.302    580.302
120.070   2240.000   2153.451     86.549    580.883   2144.321    590.224    580.883    580.883
120.170   2011.482   1957.596     53.887    581.472   1949.102    590.141    581.472    581.472
120.270   1857.000   1784.239     72.761    582.069   1776.314    590.137    582.069    582.069
120.370   1581.866   1631.928    -50.062    582.675   1624.499    590.217    582.675    582.675
120.470   1583.000   1499.011     83.989    583.288   1492.007    590.381    583.288    583.288
120.570   1449.000   1383.728     65.272    583.910   1377.074    590.631    583.910    583.910
120.670   1324.000   1284.281     39.719    584.541   1277.901    590.969    584.541    584.541
120.770   1250.000   1198.897     51.103    585.179   1192.716    591.394    585.179    585.179
120.870   1081.000   1125.877    -44.877    585.826   1119.819    591.907    585.826    585.826
120.970    998.891   1063.634    -64.742    586.482   1057.621    592.508    586.482    586.482
121.070   1122.000   1010.714    111.286    587.146   1004.669    593.197    587.146    587.146
121.170   1061.000    965.816     95.184    587.819    959.661    593.976    587.819    587.819
121.270    881.323    927.791    -46.468    588.500    921.445    594.845    588.500    588.500
121.370    948.000    895.640     52.360    589.190    889.022    595.805    589.190    589.190
121.470    874.900    868.509      6.392    589.889    861.536    596.858    589.889    589.889
121.570    867.246    845.671     21.575    590.596    838.258    598.006    590.596    590.596
121.670    781.924    826.517    -44.593    591.312    818.577    599.249    591.312    591.312
121.770    866.623    810.538     56.085    592.037    801.983    600.592    592.037    592.037
121.870    771.791    797.313    -25.522    592.771    788.050    602.035    592.771    592.771
121.970    749.000    786.492    -37.492    593.514    776.427    603.581    593.514    593.514
122.070    761.000    777.785    -16.785    594.266    766.823    605.232    594.266    594.266
122.170    775.000    770.952      4.048    595.027    758.994    606.989    595.027    595.027
122.270    808.618    765.790     42.828    595.797    752.739    608.854    595.797    595.797
122.370    783.609    762.129     21.480    596.576    747.886    610.827    596.576    596.576
122.470    712.289    759.821    -47.532    597.364    744.288    612.908    597.364    597.364
122.570    708.488    758.739    -50.251    598.162    741.817    615.096    598.162    598.162
122.670    805.558    758.767     46.792    598.969    740.360    617.389    598.969    598.969
122.770    725.000    759.797    -34.797    599.785    739.813    619.785    599.785    599.785
122.870    725.000    761.730    -36.730    600.610    740.080    622.278    600.610    600.610
122.970    715.000    764.466    -49.466    601.445    741.069    624.862    601.445    601.445
123.070    762.000    767.906     -5.906    602.289    742.690    627.528    602.289    602.289
123.170    757.101    771.949    -14.849    603.143    744.855    630.263    603.143    603.143
123.270    821.243    776.490     44.753    604.007    747.473    633.052    604.007    604.007
123.370    792.555    781.417     11.137    604.880    750.452    635.876    604.880    604.880
123.470    811.131    786.614     24.518    605.762    753.697    638.714    605.762    605.762
123.570    852.570    791.956     60.614    606.654    757.110    641.539    606.654    606.654
123.670    767.000    797.314    -30.314    607.557    760.590    644.323    607.557    607.557
123.770    788.000    802.553    -14.553    608.468    764.032    647.035    608.468    608.468
123.870    837.000    807.531     29.469    609.390    767.330    649.641    609.390    609.390
123.970    818.070    812.108      5.963    610.322    770.377    652.105    610.322    610.322
124.070    760.425    816.142    -55.717    611.263    773.069    654.393    611.263    611.263
124.170    851.000    819.499     31.501    612.215    775.305    656.469    612.215    612.215
124.270    874.385    822.057     52.328    613.177    776.995    658.302    613.177    613.177
124.370    821.000    823.709     -2.709    614.148    778.058    659.865    614.148    614.148
124.470    830.000    824.362      5.638    615.130    778.425    661.136    615.130    615.130
124.570    900.000    823.964     76.036    616.122    778.053    662.104    616.122    616.122
124.670    820.977    822.546     -1.569    617.124    776.976    662.766    617.124    617.124
124.770    861.479    820.099     41.380    618.137    775.180    663.130    618.137    618.137
124.870    821.000    816.673      4.327    619.160    772.698    663.209    619.160    619.160
124.970    825.142    812.345     12.797    620.193    769.585    663.027    620.193    620.193
