neutron_powder_diffraction_0107
R_wp: 3.962
Temperature (K): 923.166
Counts: 83302.00
Wavelength (Ã…): 2.52098
COMMENTS
Test file for demonstrating the .xyy file format in Reel1.0
END OF HEADER
   tth       Y_obs     Y_calc      Y_res    Background    Phase_1_Nuc    Phase_1_Mag    Phase_2_Nuc    Phase_2_Mag
  9.970    603.000    550.654     52.346    549.374    550.412    549.374    549.616    549.374
 10.070    579.000    551.101     27.899    549.731    550.858    549.731    549.974    549.731
 10.170    558.485    551.551      6.933    550.079    551.307    550.079    550.323    550.079
 10.270    530.194    552.008    -21.814    550.418    551.763    550.418    550.663    550.418
 10.370    538.178    552.475    -14.297    550.748    552.228    550.748    550.994    550.748
 10.470    563.000    552.959     10.041    551.070    552.712    551.070    551.316    551.070
 10.570    606.000    553.460     52.540    551.382    553.211    551.382    551.630    551.382
 10.670    600.000    553.986     46.014    551.686    553.736    551.686    551.935    551.686
 10.770    527.052    554.547    -27.496    551.981    554.296    551.981    552.231    551.981
 10.870    538.000    555.157    -17.157    552.268    554.905    552.268    552.519    552.268
 10.970    588.806    555.834     32.972    552.546    555.580    552.546    552.798    552.546
 11.070    576.728    556.601     20.127    552.816    556.346    552.816    553.068    552.816
 11.170    553.000    557.494     -4.494    553.077    557.238    553.077    553.331    553.077
 11.270    589.804    558.572     31.232    553.330    558.314    553.330    553.585    553.330
 11.370    592.000    559.935     32.065    553.575    559.676    553.575    553.831    553.575
 11.470    576.000    561.803     14.197    553.812    561.542    553.812    554.069    553.812
 11.570    580.106    564.675     15.431    554.041    564.411    554.041    554.299    554.041
 11.670    535.743    569.619    -33.876    554.261    569.351    554.261    554.521    554.261
 11.770    614.000    578.530     35.470    554.474    578.256    554.474    554.735    554.474
 11.870    595.000    593.860      1.140    554.679    593.576    554.679    554.941    554.679
 11.970    659.000    617.188     41.812    554.877    616.890    554.877    555.140    554.877
 12.070    687.000    646.386     40.614    555.066    646.070    555.066    555.330    555.066
 12.170    664.379    672.250     -7.871    555.248    671.918    555.248    555.514    555.248
 12.270    667.000    680.071    -13.071    555.423    679.734    555.423    555.689    555.423
 12.370    681.146    663.719     17.427    555.590    663.389    555.590    555.858    555.590
 12.470    683.000    634.876     48.124    555.749    634.562    555.749    556.018    555.749
 12.570    569.740    607.591    -37.851    555.902    607.292    555.902    556.172    555.902
 12.670    551.219    587.891    -36.673    556.047    587.602    556.047    556.318    556.047
 12.770    568.000    575.881     -7.881    556.184    575.597    556.184    556.457    556.184
 12.870    555.057    569.298    -14.241    556.315    569.017    556.315    556.589    556.315
 12.970    555.000    565.792    -10.792    556.439    565.512    556.439    556.714    556.439
 13.070    551.210    563.806    -12.596    556.555    563.526    556.555    556.832    556.555
 13.170    533.610    562.553    -28.943    556.665    562.273    556.665    556.942    556.665
 13.270    568.000    561.687      6.313    556.767    561.406    556.767    557.046    556.767
 13.370    507.000    561.055    -54.055    556.863    560.772    556.863    557.144    556.863
 13.470    535.000    560.580    -25.580    556.953    560.296    556.953    557.234    556.953
 13.570    518.000    560.216    -42.216    557.035    559.931    557.035    557.318    557.035
 13.670    534.000    559.933    -25.933    557.111    559.647    557.111    557.395    557.111
 13.770    531.000    559.710    -28.710    557.180    559.423    557.180    557.466    557.180
 13.870    580.590    559.532     21.058    557.243    559.243    557.243    557.530    557.243
 13.970    554.000    559.387     -5.387    557.300    559.098    557.300    557.588    557.300
 14.070    582.000    559.268     22.732    557.350    558.978    557.350    557.640    557.350
 14.170    564.671    559.169      5.502    557.394    558.877    557.394    557.685    557.394
 14.270    606.000    559.084     46.916    557.431    558.790    557.431    557.724    557.431
 14.370    548.000    559.010    -11.010    557.463    558.715    557.463    557.757    557.463
 14.470    573.000    558.945     14.055    557.488    558.649    557.488    557.784    557.488
 14.570    562.000    558.886      3.114    557.508    558.588    557.508    557.805    557.508
 14.670    565.000    558.830      6.170    557.521    558.531    557.521    557.820    557.521
 14.770    600.529    558.777     41.752    557.528    558.476    557.528    557.829    557.528
 14.870    575.000    558.725     16.275    557.530    558.423    557.530    557.832    557.530
 14.970    569.000    558.673     10.327    557.526    558.369    557.526    557.829    557.526
 15.070    534.000    558.621    -24.621    557.516    558.316    557.516    557.821    557.516
 15.170    581.406    558.568     22.838    557.500    558.261    557.500    557.807    557.500
 15.270    526.000    558.514    -32.514    557.479    558.205    557.479    557.788    557.479
 15.370    558.080    558.458     -0.378    557.452    558.148    557.452    557.763    557.452
 15.470    540.000    558.413    -18.413    557.420    558.101    557.420    557.732    557.420
 15.570    595.514    558.366     37.148    557.383    558.052    557.383    557.696    557.383
 15.670    557.615    558.303     -0.688    557.340    557.988    557.340    557.655    557.340
 15.770    513.779    558.236    -44.457    557.291    557.919    557.291    557.608    557.291
 15.870    558.000    558.165     -0.165    557.238    557.846    557.238    557.557    557.238
 15.970    601.791    558.092     43.699    557.179    557.771    557.179    557.500    557.179
 16.070    561.153    558.015      3.138    557.115    557.693    557.115    557.438    557.115
 16.170    570.828    557.938     12.889    557.046    557.614    557.046    557.370    557.046
 16.270    510.000    557.854    -47.854    556.972    557.528    556.972    557.298    556.972
 16.370    547.000    557.766    -10.766    556.893    557.438    556.893    557.221    556.893
 16.470    559.568    557.677      1.890    556.809    557.347    556.809    557.139    556.809
 16.570    543.000    557.627    -14.627    556.721    557.295    556.721    557.053    556.721
 16.670    561.323    557.601      3.721    556.627    557.268    556.627    556.961    556.627
 16.770    586.593    557.505     29.088    556.529    557.169    556.529    556.865    556.529
 16.870    558.000    557.398      0.602    556.426    557.060    556.426    556.764    556.426
 16.970    549.000    557.287     -8.287    556.319    556.947    556.319    556.659    556.319
 17.070    538.000    557.172    -19.172    556.207    556.830    556.207    556.549    556.207
 17.170    511.000    557.054    -46.054    556.090    556.709    556.090    556.434    556.090
 17.270    590.902    556.931     33.971    555.969    556.585    555.969    556.315    555.969
 17.370    521.268    556.805    -35.537    555.843    556.456    555.843    556.192    555.843
 17.470    550.000    556.675     -6.675    555.714    556.324    555.714    556.064    555.714
 17.570    566.000    556.541      9.459    555.580    556.188    555.580    555.933    555.580
 17.670    562.065    556.404      5.661    555.441    556.049    555.441    555.797    555.441
 17.770    536.069    556.263    -20.194    555.299    555.905    555.299    555.656    555.299
 17.870    591.249    556.119     35.130    555.152    555.759    555.152    555.512    555.152
 17.970    537.000    555.977    -18.977    555.001    555.614    555.001    555.364    555.001
 18.070    552.845    555.826     -2.981    554.846    555.461    554.846    555.211    554.846
 18.170    532.000    555.670    -23.670    554.688    555.303    554.688    555.055    554.688
 18.270    509.000    555.512    -46.512    554.525    555.142    554.525    554.895    554.525
 18.370    540.000    555.350    -15.350    554.358    554.977    554.358    554.731    554.358
 18.470    526.000    555.184    -29.184    554.188    554.809    554.188    554.563    554.188
 18.570    505.000    555.015    -50.015    554.014    554.638    554.014    554.392    554.014
 18.670    535.255    554.847    -19.591    553.836    554.466    553.836    554.216    553.836
 18.770    560.721    554.673      6.048    553.654    554.289    553.654    554.038    553.654
 18.870    568.870    554.500     14.370    553.469    554.113    553.469    553.855    553.469
 18.970    560.000    554.372      5.628    553.280    553.983    553.280    553.669    553.280
 19.070    511.938    554.205    -42.266    553.088    553.812    553.088    553.480    553.088
 19.170    583.789    554.018     29.771    552.892    553.623    552.892    553.287    552.892
 19.270    541.000    553.828    -12.828    552.693    553.430    552.693    553.091    552.693
 19.370    541.000    553.635    -12.635    552.490    553.234    552.490    552.891    552.490
 19.470    516.000    553.439    -37.439    552.284    553.035    552.284    552.689    552.284
 19.570    547.000    553.241     -6.241    552.075    552.833    552.075    552.483    552.075
 19.670    585.282    553.040     32.242    551.862    552.629    551.862    552.274    551.862
 19.770    593.000    552.836     40.164    551.647    552.422    551.647    552.061    551.647
 19.870    539.950    552.630    -12.679    551.428    552.212    551.428    551.846    551.428
 19.970    534.634    552.421    -17.787    551.206    551.999    551.206    551.628    551.206
 20.070    543.000    552.210     -9.210    550.981    551.785    550.981    551.406    550.981
 20.170    557.000    551.998      5.002    550.753    551.569    550.753    551.182    550.753
 20.270    543.000    551.795     -8.795    550.522    551.363    550.522    550.955    550.522
 20.370    517.868    551.581    -33.713    550.289    551.145    550.289    550.725    550.289
 20.470    568.000    551.381     16.619    550.052    550.941    550.052    550.492    550.052
 20.570    494.000    551.175    -57.175    549.812    550.731    549.812    550.257    549.812
 20.670    548.130    550.957     -2.827    549.570    550.508    549.570    550.019    549.570
 20.770    573.000    550.732     22.268    549.325    550.279    549.325    549.778    549.325
 20.870    572.075    550.509     21.566    549.078    550.052    549.078    549.535    549.078
 20.970    540.000    550.313    -10.313    548.827    549.851    548.827    549.289    548.827
 21.070    538.000    550.100    -12.100    548.574    549.634    548.574    549.041    548.574
 21.170    555.000    549.872      5.128    548.319    549.401    548.319    548.790    548.319
 21.270    576.816    549.641     27.175    548.061    549.165    548.061    548.537    548.061
 21.370    539.000    549.409    -10.409    547.801    548.929    547.801    548.282    547.801
 21.470    518.324    549.177    -30.853    547.538    548.691    547.538    548.024    547.538
 21.570    551.863    548.945      2.918    547.273    548.454    547.273    547.764    547.273
 21.670    506.000    548.712    -42.712    547.005    548.216    547.005    547.502    547.005
 21.770    565.000    548.480     16.520    546.735    547.978    546.735    547.237    546.735
 21.870    578.000    548.250     29.750    546.463    547.742    546.463    546.971    546.463
 21.970    538.000    548.039    -10.039    546.189    547.525    546.189    546.703    546.189
 22.070    504.432    547.821    -43.389    545.912    547.301    545.912    546.432    545.912
 22.170    605.000    547.597     57.403    545.634    547.071    545.634    546.160    545.634
 22.270    574.000    547.397     26.603    545.353    546.865    545.353    545.886    545.353
 22.370    543.354    547.236     -3.882    545.070    546.697    545.070    545.610    545.070
 22.470    536.000    547.042    -11.042    544.786    546.496    544.786    545.332    544.786
 22.570    536.000    546.844    -10.844    544.499    546.291    544.499    545.052    544.499
 22.670    574.000    546.643     27.357    544.210    546.083    544.210    544.771    544.210
 22.770    544.000    546.483     -2.483    543.920    545.915    543.920    544.488    543.920
 22.870    525.000    546.300    -21.300    543.628    545.724    543.628    544.204    543.628
 22.970    588.000    546.124     41.876    543.333    545.540    543.333    543.918    543.333
 23.070    534.000    545.969    -11.969    543.037    545.377    543.037    543.630    543.037
 23.170    511.522    545.836    -34.314    542.740    545.235    542.740    543.341    542.740
 23.270    516.679    545.728    -29.049    542.441    545.118    542.441    543.051    542.441
 23.370    564.955    545.650     19.305    542.140    545.031    542.140    542.760    542.140
 23.470    508.113    545.603    -37.491    541.837    544.975    541.837    542.467    541.837
 23.570    551.000    545.603      5.397    541.533    544.964    541.533    542.173    541.533
 23.670    559.000    545.670     13.330    541.227    545.020    541.227    541.878    541.227
 23.770    533.236    545.828    -12.591    540.920    545.168    540.920    541.582    540.920
 23.870    537.000    546.117     -9.117    540.611    545.446    540.611    541.285    540.611
 23.970    535.000    546.604    -11.604    540.301    545.921    540.301    540.987    540.301
 24.070    563.000    547.434     15.566    539.990    546.740    539.990    540.688    539.990
 24.170    513.000    548.940    -35.940    539.677    548.234    539.677    540.388    539.677
 24.270    567.000    551.819     15.181    539.363    551.101    539.363    540.088    539.363
 24.370    564.000    557.294      6.706    539.047    556.566    539.047    539.786    539.047
 24.470    542.924    566.940    -24.015    538.731    566.204    538.731    539.485    538.731
 24.570    653.000    581.807     71.193    538.413    581.066    538.413    539.183    538.413
 24.670    615.000    600.719     14.281    538.094    599.975    538.094    538.880    538.094
 24.770    613.297    618.111     -4.814    537.773    617.361    537.773    538.577    537.773
 24.870    616.000    624.327     -8.327    537.452    623.564    537.452    538.274    537.452
 24.970    568.219    614.340    -46.121    537.130    613.551    537.130    537.971    537.130
 25.070    582.000    595.164    -13.164    536.806    594.342    536.806    537.668    536.806
 25.170    593.000    576.264     16.736    536.482    575.407    536.482    537.365    536.482
 25.270    596.000    562.084     33.916    536.156    561.194    536.156    537.062    536.156
 25.370    527.000    553.057    -26.057    535.830    552.137    535.830    536.760    535.830
 25.470    556.000    547.859      8.141    535.503    546.910    535.503    536.458    535.503
 25.570    564.000    544.929     19.071    535.175    543.952    535.175    536.157    535.175
 25.670    584.460    543.165     41.295    534.846    542.158    534.846    535.856    534.846
 25.770    563.000    541.975     21.025    534.516    540.937    534.516    535.557    534.516
 25.870    555.000    541.092     13.908    534.185    540.021    534.185    535.258    534.185
 25.970    521.222    540.397    -19.176    533.854    539.292    533.854    534.962    533.854
 26.070    575.430    539.837     35.594    533.522    538.694    533.522    534.666    533.522
 26.170    568.182    539.378     28.804    533.189    538.196    533.189    534.373    533.189
 26.270    565.000    539.004     25.996    532.856    537.779    532.856    534.082    532.856
 26.370    541.000    538.703      2.297    532.522    537.433    532.522    533.793    532.522
 26.470    506.417    538.470    -32.053    532.187    537.152    532.187    533.507    532.187
 26.570    554.031    538.302     15.729    531.852    536.931    531.852    533.224    531.852
 26.670    574.000    538.202     35.798    531.517    536.774    531.517    532.945    531.517
 26.770    535.662    538.174     -2.512    531.181    536.686    531.181    532.670    531.181
 26.870    537.000    538.231     -1.231    530.844    536.676    530.844    532.399    530.844
 26.970    528.000    538.387    -10.387    530.507    536.760    530.507    532.134    530.507
 27.070    532.000    538.665     -6.665    530.170    536.961    530.170    531.874    530.170
 27.170    580.000    539.099     40.901    529.832    537.310    529.832    531.620    529.832
 27.270    549.000    539.737      9.263    529.494    537.857    529.494    531.374    529.494
 27.370    573.000    540.658     32.342    529.155    538.677    529.155    531.135    529.155
 27.470    556.686    541.998     14.688    528.816    539.908    528.816    530.906    528.816
 27.570    500.462    544.110    -43.647    528.477    541.900    528.477    530.686    528.477
 27.670    577.630    548.151     29.479    528.138    545.810    528.138    530.477    528.138
 27.770    566.000    557.783      8.217    527.799    555.295    527.799    530.279    527.799
 27.870    545.263    581.910    -36.647    527.459    579.258    527.459    530.095    527.459
 27.970    631.000    634.697     -3.697    527.119    631.856    527.119    529.926    527.119
 28.070    748.000    725.268     22.732    526.779    722.212    526.779    529.771    526.779
 28.170    763.000    836.942    -73.942    526.439    833.659    526.439    529.634    526.439
 28.270    968.000    916.607     51.393    526.099    913.100    526.099    529.514    526.099
 28.370    884.000    911.212    -27.212    525.759    907.492    525.759    529.413    525.759
 28.470    851.082    832.155     18.927    525.419    828.208    525.419    529.331    525.419
 28.570    749.000    744.360      4.640    525.079    740.153    525.079    529.267    525.079
 28.670    675.102    702.071    -26.970    524.738    697.572    524.738    529.222    524.738
 28.770    722.000    718.182      3.818    524.398    713.368    524.398    529.192    524.398
 28.870    766.969    769.024     -2.055    524.058    763.884    524.058    529.175    524.058
 28.970    819.000    808.921     10.079    523.718    803.458    523.718    529.165    523.718
 29.070    828.603    798.667     29.936    523.379    792.889    523.379    529.155    523.379
 29.170    767.000    740.786     26.214    523.039    734.699    523.039    529.135    523.039
 29.270    687.707    668.961     18.746    522.700    662.578    522.700    529.094    522.700
 29.370    611.000    610.963      0.037    522.360    604.313    522.360    529.019    522.360
 29.470    563.642    574.971    -11.330    522.022    568.100    522.022    528.897    522.022
 29.570    539.000    556.410    -17.410    521.683    549.379    521.683    528.716    521.683
 29.670    568.000    547.675     20.325    521.344    540.554    521.344    528.467    521.344
 29.770    602.000    543.349     58.651    521.006    536.214    521.006    528.142    521.006
 29.870    566.856    540.803     26.053    520.668    533.729    520.668    527.743    520.668
 29.970    583.145    539.038     44.108    520.331    532.096    520.331    527.273    520.331
 30.070    566.000    537.730     28.270    519.994    530.983    519.994    526.741    519.994
 30.170    560.000    536.808     23.192    519.657    530.307    519.657    526.158    519.657
 30.270    578.224    536.365     41.859    519.321    530.147    519.321    525.538    519.321
 30.370    574.000    536.761     37.239    518.985    530.850    518.985    524.893    518.985
 30.470    603.000    538.824     64.176    518.650    533.233    518.650    524.236    518.650
 30.570    576.000    543.949     32.051    518.315    538.678    518.315    523.576    518.315
 30.670    537.000    553.638    -16.638    517.980    548.679    517.980    522.922    517.980
 30.770    552.947    568.178    -15.231    517.647    563.517    517.647    522.280    517.647
 30.870    612.985    584.729     28.256    517.313    580.351    517.313    521.653    517.313
 30.970    587.962    596.316     -8.354    516.981    592.209    516.981    521.044    516.981
 31.070    599.504    595.608      3.896    516.648    591.761    516.648    520.454    516.648
 31.170    619.000    582.643     36.357    516.317    579.044    516.317    519.884    516.317
 31.270    583.000    564.772     18.228    515.986    561.403    515.986    519.334    515.986
 31.370    572.033    548.934     23.098    515.656    545.776    515.656    518.802    515.656
 31.470    564.536    537.933     26.604    515.326    534.964    515.326    518.288    515.326
 31.570    559.111    531.457     27.654    514.997    528.660    514.997    517.791    514.997
 31.670    500.113    527.993    -27.880    514.669    525.351    514.669    517.309    514.669
 31.770    503.000    526.140    -23.140    514.342    523.638    514.342    516.841    514.342
 31.870    529.077    525.052      4.026    514.015    522.678    514.015    516.387    514.015
 31.970    547.000    524.339     22.661    513.689    522.082    513.689    515.945    513.689
 32.070    571.000    523.849     47.151    513.364    521.698    513.364    515.514    513.364
 32.170    550.000    523.527     26.473    513.039    521.471    513.039    515.094    513.039
 32.270    583.000    523.351     59.649    512.716    521.384    512.716    514.683    512.716
 32.370    498.244    523.320    -25.076    512.393    521.433    512.393    514.280    512.393
 32.470    566.276    523.441     42.835    512.071    521.627    512.071    513.885    512.071
 32.570    531.000    523.731      7.269    511.750    521.984    511.750    513.497    511.750
 32.670    513.000    524.219    -11.219    511.430    522.533    511.430    513.116    511.430
 32.770    512.244    524.947    -12.704    511.111    523.317    511.111    512.741    511.111
 32.870    592.000    525.979     66.021    510.793    524.400    510.793    512.371    510.793
 32.970    509.000    527.406    -18.406    510.476    525.874    510.476    512.007    510.476
 33.070    518.915    529.375    -10.461    510.159    527.886    510.159    511.648    510.159
 33.170    610.000    532.154     77.846    509.844    530.703    509.844    511.293    509.844
 33.270    512.309    536.319    -24.010    509.530    534.904    509.530    510.942    509.530
 33.370    513.865    543.224    -29.360    509.216    541.842    509.216    510.595    509.216
 33.470    530.353    555.873    -25.520    508.904    554.519    508.904    510.252    508.904
 33.570    609.956    579.950     30.006    508.593    578.619    508.593    509.912    508.593
 33.670    669.167    623.812     45.355    508.283    622.499    508.283    509.576    508.283
 33.770    719.000    695.510     23.490    507.974    694.211    507.974    509.243    507.974
 33.870    801.000    795.761      5.239    507.666    794.472    507.666    508.913    507.666
 33.970    902.972    908.306     -5.334    507.359    907.031    507.359    508.585    507.359
 34.070   1039.555    994.011     45.543    507.053    992.762    507.053    508.261    507.053
 34.170    998.110   1007.154     -9.044    506.748   1005.939    506.748    507.939    506.748
 34.270    935.000    938.469     -3.469    506.445    937.286    506.445    507.619    506.445
 34.370    811.000    827.539    -16.539    506.143    826.381    506.143    507.302    506.143
 34.470    751.166    719.840     31.327    505.841    718.697    505.841    506.988    505.841
 34.570    613.000    638.394    -25.394    505.542    637.263    505.542    506.676    505.542
 34.670    579.990    586.369     -6.379    505.243    585.248    505.243    506.366    505.243
 34.770    562.000    556.864      5.136    504.945    555.752    504.945    506.058    504.945
 34.870    524.000    541.021    -17.021    504.649    539.918    504.649    505.752    504.649
 34.970    521.000    532.233    -11.233    504.354    531.138    504.354    505.448    504.354
 35.070    531.000    526.800      4.200    504.060    525.713    504.060    505.147    504.060
 35.170    502.000    523.011    -21.011    503.768    521.931    503.768    504.848    503.768
 35.270    480.451    520.136    -39.685    503.477    519.063    503.477    504.550    503.477
 35.370    524.000    517.850      6.150    503.187    516.782    503.187    504.255    503.187
 35.470    540.000    515.980     24.020    502.898    514.917    502.898    503.961    502.898
 35.570    532.460    514.421     18.039    502.611    513.362    502.611    503.670    502.611
 35.670    480.871    513.099    -32.229    502.325    512.044    502.325    503.380    502.325
 35.770    533.000    511.962     21.038    502.040    510.910    502.040    503.093    502.040
 35.870    515.000    510.972      4.028    501.757    509.923    501.757    502.807    501.757
 35.970    513.665    510.101      3.565    501.475    509.053    501.475    502.523    501.475
 36.070    548.960    509.326     39.634    501.195    508.281    501.195    502.241    501.195
 36.170    538.805    508.634     30.171    500.916    507.589    500.916    501.961    500.916
 36.270    561.000    508.011     52.989    500.638    506.967    500.638    501.682    500.638
 36.370    465.726    507.448    -41.723    500.362    506.405    500.362    501.406    500.362
 36.470    482.159    506.941    -24.782    500.087    505.897    500.087    501.131    500.087
 36.570    484.000    506.485    -22.485    499.814    505.441    499.814    500.859    499.814
 36.670    492.000    506.081    -14.081    499.542    505.035    499.542    500.588    499.542
 36.770    491.000    505.732    -14.732    499.272    504.685    499.272    500.319    499.272
 36.870    523.000    505.452     17.548    499.003    504.404    499.003    500.052    499.003
 36.970    502.000    505.277     -3.277    498.735    504.227    498.735    499.786    498.735
 37.070    490.548    505.280    -14.732    498.469    504.227    498.469    499.523    498.469
 37.170    482.000    505.596    -23.596    498.205    504.540    498.205    499.261    498.205
 37.270    453.000    506.418    -53.418    497.942    505.359    497.942    499.001    497.942
 37.370    518.000    507.950     10.050    497.680    506.888    497.680    498.743    497.680
 37.470    537.000    510.284     26.716    497.420    509.220    497.420    498.487    497.420
 37.570    498.721    513.218    -14.497    497.162    512.150    497.162    498.233    497.162
 37.670    517.000    516.039      0.961    496.905    514.968    496.905    497.981    496.905
 37.770    551.000    517.544     33.456    496.650    516.470    496.650    497.730    496.650
 37.870    545.070    516.885     28.185    496.396    515.807    496.396    497.482    496.396
 37.970    465.000    514.489    -49.489    496.144    513.408    496.144    497.235    496.144
 38.070    525.000    511.399     13.601    495.894    510.313    495.894    496.990    495.894
 38.170    477.000    508.346    -31.346    495.645    507.254    495.645    496.747    495.645
 38.270    464.091    505.693    -41.603    495.397    504.594    495.397    496.506    495.397
 38.370    479.121    503.603    -24.482    495.151    502.494    495.151    496.267    495.151
 38.470    477.000    502.072    -25.072    494.907    500.954    494.907    496.030    494.907
 38.570    467.498    500.992    -33.495    494.665    499.866    494.665    495.795    494.665
 38.670    518.394    500.230     18.164    494.424    499.095    494.424    495.561    494.424
 38.770    482.251    499.672    -17.422    494.184    498.528    494.184    495.330    494.184
 38.870    484.000    499.238    -15.238    493.947    498.086    493.947    495.100    493.947
 38.970    504.000    498.878      5.122    493.711    497.716    493.711    494.873    493.711
 39.070    480.433    498.560    -18.127    493.476    497.390    493.476    494.648    493.476
 39.170    538.608    498.269     40.338    493.244    497.090    493.244    494.424    493.244
 39.270    491.036    498.004     -6.968    493.013    496.815    493.013    494.203    493.013
 39.370    496.000    497.758     -1.758    492.783    496.558    492.783    493.983    492.783
 39.470    492.000    497.526     -5.526    492.556    496.316    492.556    493.766    492.556
 39.570    523.000    497.307     25.693    492.330    496.087    492.330    493.550    492.330
 39.670    485.000    497.101    -12.101    492.105    495.870    492.105    493.337    492.105
 39.770    487.000    496.906     -9.906    491.883    495.664    491.883    493.126    491.883
 39.870    463.000    496.723    -33.723    491.662    495.469    491.662    492.917    491.662
 39.970    529.412    496.551     32.861    491.443    495.285    491.443    492.709    491.443
 40.070    539.011    496.391     42.620    491.225    495.112    491.225    492.504    491.225
 40.170    471.393    496.242    -24.849    491.009    494.950    491.009    492.301    491.009
 40.270    510.000    496.105     13.895    490.795    494.801    490.795    492.101    490.795
 40.370    503.061    495.983      7.079    490.583    494.664    490.583    491.902    490.583
 40.470    486.000    495.874     -9.874    490.372    494.542    490.372    491.706    490.372
 40.570    515.000    495.783     19.217    490.163    494.436    490.163    491.511    490.163
 40.670    500.000    495.709      4.291    489.956    494.347    489.956    491.319    489.956
 40.770    465.000    495.656    -30.656    489.751    494.279    489.751    491.129    489.751
 40.870    493.000    495.628     -2.628    489.547    494.234    489.547    490.942    489.547
 40.970    496.000    495.628      0.372    489.345    494.218    489.345    490.756    489.345
 41.070    483.537    495.662    -12.125    489.145    494.235    489.145    490.573    489.145
 41.170    500.000    495.737      4.263    488.947    494.293    488.947    490.392    488.947
 41.270    531.281    495.863     35.418    488.750    494.400    488.750    490.214    488.750
 41.370    484.132    496.052    -11.920    488.555    494.571    488.555    490.038    488.555
 41.470    502.000    496.321      5.679    488.362    494.821    488.362    489.864    488.362
 41.570    438.000    496.699    -58.699    488.171    495.179    488.171    489.693    488.171
 41.670    533.942    497.230     36.712    487.981    495.690    487.981    489.524    487.981
 41.770    478.000    498.004    -20.004    487.793    496.443    487.793    489.357    487.793
 41.870    517.582    499.210     18.372    487.607    497.628    487.607    489.193    487.607
 41.970    505.000    501.237      3.763    487.423    499.633    487.423    489.032    487.423
 42.070    514.000    504.804      9.196    487.241    503.179    487.241    488.873    487.241
 42.170    520.000    511.047      8.953    487.060    509.400    487.060    488.716    487.060
 42.270    545.000    521.372     23.628    486.881    519.705    486.881    488.563    486.881
 42.370    533.000    536.926     -3.926    486.704    535.240    486.704    488.411    486.704
 42.470    552.000    557.666     -5.666    486.529    555.963    486.529    488.263    486.529
 42.570    637.000    581.216     55.784    486.355    579.498    486.355    488.117    486.355
 42.670    600.000    601.855     -1.855    486.183    600.120    486.183    487.974    486.183
 42.770    529.000    611.338    -82.338    486.013    609.580    486.013    487.834    486.013
 42.870    574.314    604.666    -30.352    485.845    602.877    485.845    487.697    485.845
 42.970    536.000    585.470    -49.470    485.679    583.640    485.679    487.563    485.679
 43.070    538.000    561.838    -23.838    485.514    559.963    485.514    487.432    485.514
 43.170    495.000    540.107    -45.107    485.352    538.185    485.352    487.304    485.352
 43.270    518.000    523.268     -5.268    485.191    521.301    485.191    487.178    485.191
 43.370    515.717    511.757      3.959    485.032    509.746    485.032    487.057    485.032
 43.470    477.000    504.597    -27.597    484.874    502.542    484.874    486.938    484.874
 43.570    482.517    500.386    -17.869    484.719    498.288    484.719    486.823    484.719
 43.670    509.306    497.921     11.385    484.565    495.780    484.565    486.711    484.565
 43.770    461.700    496.401    -34.701    484.413    494.215    484.413    486.603    484.413
 43.870    452.000    495.380    -43.380    484.263    493.147    484.263    486.498    484.263
 43.970    492.000    494.635     -2.635    484.115    492.354    484.115    486.398    484.115
 44.070    505.266    494.062     11.204    483.968    491.732    483.968    486.301    483.968
 44.170    514.000    493.609     20.391    483.823    491.226    483.823    486.208    483.823
 44.270    475.000    493.245    -18.245    483.680    490.808    483.680    486.119    483.680
 44.370    493.000    492.953      0.047    483.539    490.459    483.539    486.035    483.539
 44.470    502.000    492.719      9.281    483.400    490.166    483.400    485.955    483.400
 44.570    482.113    492.533    -10.421    483.262    489.917    483.262    485.879    483.262
 44.670    501.318    492.389      8.929    483.126    489.708    483.126    485.809    483.126
 44.770    480.594    492.281    -11.687    482.992    489.531    482.992    485.743    482.992
 44.870    481.000    492.205    -11.205    482.860    489.384    482.860    485.683    482.860
 44.970    457.000    492.160    -35.160    482.730    489.262    482.730    485.628    482.730
 45.070    496.000    492.142      3.858    482.601    489.165    482.601    485.579    482.601
 45.170    481.000    492.150    -11.150    482.474    489.089    482.474    485.536    482.474
 45.270    486.000    492.185     -6.185    482.349    489.035    482.349    485.500    482.349
 45.370    493.000    492.245      0.755    482.226    489.002    482.226    485.470    482.226
 45.470    460.000    492.331    -32.331    482.105    488.989    482.105    485.448    482.105
 45.570    498.684    492.444      6.240    481.985    488.997    481.985    485.433    481.985
 45.670    476.000    492.585    -16.585    481.867    489.026    481.867    485.426    481.867
 45.770    493.000    492.755      0.245    481.751    489.078    481.751    485.428    481.751
 45.870    480.231    492.957    -12.726    481.637    489.155    481.637    485.440    481.637
 45.970    488.000    493.193     -5.193    481.524    489.257    481.524    485.461    481.524
 46.070    461.047    493.468    -32.421    481.413    489.389    481.413    485.493    481.413
 46.170    513.017    493.785     19.232    481.304    489.553    481.304    485.536    481.304
 46.270    480.000    494.149    -14.149    481.197    489.754    481.197    485.592    481.197
 46.370    518.779    494.569     24.210    481.091    489.999    481.091    485.662    481.091
 46.470    487.647    495.052     -7.405    480.988    490.294    480.988    485.746    480.988
 46.570    498.000    495.611      2.389    480.885    490.650    480.885    485.847    480.885
 46.670    483.812    496.263    -12.452    480.785    491.084    480.785    485.965    480.785
 46.770    517.000    497.035     19.965    480.687    491.619    480.687    486.102    480.687
 46.870    500.103    497.975      2.128    480.590    492.304    480.590    486.260    480.590
 46.970    511.000    499.179     11.821    480.495    493.231    480.495    486.442    480.495
 47.070    530.000    500.830     29.170    480.402    494.581    480.402    486.648    480.402
 47.170    532.000    503.258     28.742    480.310    496.682    480.310    486.883    480.310
 47.270    499.000    506.987     -7.987    480.220    500.054    480.220    487.148    480.220
 47.370    501.954    512.712    -10.758    480.132    505.387    480.132    487.447    480.132
 47.470    533.000    521.132     11.868    480.046    513.380    480.046    487.783    480.046
 47.570    500.410    532.622    -32.212    479.961    524.401    479.961    488.159    479.961
 47.670    506.018    546.771    -40.753    479.878    538.037    479.878    488.580    479.878
 47.770    549.000    561.902    -12.902    479.797    552.608    479.797    489.049    479.797
 47.870    547.817    574.732    -26.915    479.717    564.830    479.717    489.570    479.717
 47.970    558.371    581.054    -22.683    479.639    570.493    479.639    490.148    479.639
 48.070    595.000    578.575     16.425    479.563    567.304    479.563    490.787    479.563
 48.170    580.000    569.213     10.787    479.488    557.172    479.488    491.491    479.488
 48.270    566.000    557.134      8.866    479.415    544.258    479.415    492.263    479.415
 48.370    551.409    545.818      5.591    479.344    532.039    479.344    493.105    479.344
 48.470    515.424    537.183    -21.759    479.275    522.428    479.275    494.018    479.275
 48.570    548.546    531.825     16.721    479.207    516.025    479.207    495.002    479.207
 48.670    556.932    529.501     27.431    479.141    512.589    479.141    496.050    479.141
 48.770    495.035    529.600    -34.565    479.076    511.521    479.076    497.155    479.076
 48.870    498.964    531.506    -32.542    479.014    512.217    479.014    498.303    479.014
 48.970    501.287    534.796    -33.508    478.952    514.279    478.952    499.471    478.952
 49.070    558.970    539.335     19.636    478.893    517.599    478.893    500.631    478.893
 49.170    514.000    545.390    -31.390    478.835    522.481    478.835    501.746    478.835
 49.270    557.000    554.009      2.991    478.779    530.017    478.779    502.773    478.779
 49.370    555.000    567.965    -12.965    478.724    543.027    478.724    503.662    478.724
 49.470    615.000    593.565     21.435    478.671    567.867    478.671    504.363    478.671
 49.570    721.000    643.078     77.922    478.619    616.848    478.619    504.834    478.619
 49.670    773.000    736.197     36.803    478.569    709.689    478.569    505.041    478.569
 49.770    939.218    897.288     41.930    478.521    870.775    478.521    504.969    478.521
 49.870   1186.000   1145.256     40.744    478.475   1119.005    478.475    504.624    478.475
 49.970   1481.537   1476.711      4.825    478.429   1450.981    478.429    504.029    478.429
 50.070   1817.000   1849.623    -32.623    478.386   1824.651    478.386    503.222    478.386
 50.170   2155.468   2178.503    -23.036    478.344   2154.497    478.344    502.250    478.344
 50.270   2397.000   2355.336     41.664    478.304   2332.456    478.304    501.164    478.304
 50.370   2179.000   2308.710   -129.710    478.265   2287.047    478.265    500.011    478.265
 50.470   2001.967   2059.990    -58.023    478.227   2039.545    478.227    498.832    478.227
 50.570   1727.708   1704.062     23.646    478.192   1684.783    478.192    497.659    478.192
 50.670   1414.000   1344.325     69.675    478.158   1326.138    478.158    496.520    478.158
 50.770    965.000   1049.676    -84.676    478.125   1032.511    478.125    495.430    478.125
 50.870    862.298    845.232     17.066    478.094    829.026    478.094    494.402    478.094
 50.970    738.324    722.801     15.523    478.064    707.495    478.064    493.444    478.064
 51.070    655.000    658.304     -3.304    478.036    643.838    478.036    492.557    478.036
 51.170    608.000    626.342    -18.342    478.009    612.654    478.009    491.743    478.009
 51.270    644.000    608.018     35.982    477.984    595.042    477.984    490.999    477.984
 51.370    624.325    593.183     31.141    477.960    580.854    477.960    490.324    477.960
 51.470    598.000    578.798     19.202    477.938    567.051    477.938    489.714    477.938
 51.570    608.000    565.278     42.722    477.918    554.054    477.918    489.165    477.918
 51.670    579.000    553.670     25.330    477.898    542.914    477.898    488.672    477.898
 51.770    545.000    544.604      0.396    477.880    534.266    477.880    488.232    477.880
 51.870    550.034    538.192     11.842    477.864    528.225    477.864    487.841    477.864
 51.970    545.000    534.164     10.836    477.849    524.527    477.849    487.495    477.849
 52.070    530.000    532.091     -2.091    477.836    522.743    477.836    487.191    477.836
 52.170    539.889    531.575      8.314    477.824    522.480    477.824    486.924    477.824
 52.270    569.000    532.380     36.620    477.813    523.506    477.813    486.693    477.813
 52.370    515.811    534.509    -18.698    477.804    525.822    477.804    486.495    477.804
 52.470    569.000    538.309     30.691    477.796    529.783    477.796    486.327    477.796
 52.570    564.000    544.637     19.363    477.789    536.244    477.789    486.187    477.789
 52.670    592.000    555.142     36.858    477.784    546.857    477.784    486.073    477.784
 52.770    579.000    572.555      6.445    477.780    564.356    477.780    485.984    477.780
 52.870    609.000    600.810      8.190    477.778    592.674    477.778    485.918    477.778
 52.970    657.000    644.636     12.364    477.777    636.542    477.777    485.874    477.777
 53.070    702.000    708.356     -6.356    477.777    700.288    477.777    485.851    477.777
 53.170    767.000    793.843    -26.843    477.779    785.781    477.779    485.847    477.779
 53.270    935.000    897.950     37.050    477.782    889.880    477.782    485.863    477.782
 53.370    998.875   1009.919    -11.044    477.786   1001.825    477.786    485.897    477.786
 53.470   1113.000   1109.655      3.345    477.791   1101.525    477.791    485.950    477.791
 53.570   1236.260   1170.437     65.824    477.798   1162.255    477.798    486.021    477.798
 53.670   1137.842   1171.175    -33.333    477.806   1162.924    477.806    486.109    477.806
 53.770   1142.774   1111.761     31.013    477.816   1103.418    477.816    486.215    477.816
 53.870    987.742   1013.166    -25.424    477.827   1004.707    477.827    486.340    477.827
 53.970    871.000    902.146    -31.146    477.838    893.549    477.838    486.482    477.838
 54.070    786.000    798.879    -12.879    477.852    790.126    477.852    486.642    477.852
 54.170    715.000    714.204      0.796    477.866    705.277    477.866    486.821    477.866
 54.270    652.651    651.324      1.327    477.882    642.206    477.882    487.020    477.882
 54.370    585.000    608.403    -23.403    477.899    599.078    477.899    487.239    477.899
 54.470    627.220    581.135     46.085    477.917    571.584    477.917    487.478    477.917
 54.570    618.000    564.790     53.210    477.936    554.995    477.936    487.740    477.936
 54.670    631.000    555.433     75.567    477.956    545.372    477.956    488.024    477.956
 54.770    549.000    550.316     -1.316    477.978    539.968    477.978    488.333    477.978
 54.870    553.000    547.771      5.229    478.001    537.111    478.001    488.667    478.001
 54.970    606.000    546.887     59.113    478.025    535.890    478.025    489.028    478.025
 55.070    586.000    547.220     38.780    478.050    535.856    478.050    489.420    478.050
 55.170    524.290    548.579    -24.289    478.076    536.819    478.076    489.842    478.076
 55.270    530.000    550.915    -20.915    478.103    538.726    478.103    490.299    478.103
 55.370    571.000    554.273     16.727    478.132    541.619    478.132    490.792    478.132
 55.470    585.000    558.789     26.211    478.161    545.632    478.161    491.325    478.161
 55.570    582.175    564.745     17.430    478.192    551.043    478.192    491.901    478.192
 55.670    578.000    572.699      5.301    478.224    558.405    478.224    492.525    478.224
 55.770    563.476    583.774    -20.298    478.257    568.837    478.257    493.200    478.257
 55.870    600.000    600.167     -0.167    478.291    584.531    478.291    493.933    478.291
 55.970    560.000    625.942    -65.942    478.326    609.546    478.326    494.727    478.326
 56.070    676.000    667.953      8.047    478.362    650.728    478.362    495.589    478.362
 56.170    707.763    736.470    -28.708    478.399    718.342    478.399    496.526    478.399
 56.270    845.420    844.694      0.725    478.437    825.579    478.437    497.546    478.437
 56.370    964.000   1006.246    -42.246    478.476    986.055    478.476    498.656    478.476
 56.470   1247.479   1230.225     17.255    478.516   1208.864    478.516    499.864    478.516
 56.570   1491.000   1514.567    -23.567    478.557   1491.936    478.557    501.182    478.557
 56.670   1750.000   1839.429    -89.429    478.599   1815.423    478.599    502.619    478.599
 56.770   2203.462   2162.467     40.995    478.642   2136.975    478.642    504.185    478.642
 56.870   2419.000   2419.319     -0.319    478.686   2392.221    478.686    505.894    478.686
 56.970   2621.000   2539.251     81.749    478.731   2510.408    478.731    507.756    478.731
 57.070   2460.000   2482.887    -22.887    478.777   2452.127    478.777    509.786    478.777
 57.170   2328.000   2271.404     56.596    478.823   2238.518    478.823    511.996    478.823
 57.270   1991.000   1969.338     21.662    478.871   1934.097    478.871    514.398    478.871
 57.370   1582.000   1645.485    -63.485    478.920   1607.654    478.920    517.006    478.920
 57.470   1325.000   1350.178    -25.178    478.969   1309.527    478.969    519.831    478.969
 57.570   1076.000   1110.803    -34.803    479.019   1067.102    479.019    522.882    479.019
 57.670    961.000    935.143     25.857    479.071    888.166    479.071    526.164    479.071
 57.770    839.193    817.644     21.549    479.123    767.167    479.123    529.680    479.123
 57.870    727.000    746.410    -19.410    479.175    692.217    479.175    533.423    479.175
 57.970    735.000    709.033     25.967    479.229    650.922    479.229    537.378    479.229
 58.070    698.000    696.075      1.925    479.284    633.867    479.284    541.517    479.284
 58.170    764.000    702.140     61.860    479.339    635.698    479.339    545.796    479.339
 58.270    648.000    725.226    -77.226    479.395    654.472    479.395    550.154    479.395
 58.370    806.028    765.158     40.870    479.452    690.100    479.452    554.506    479.452
 58.470    833.240    821.769     11.470    479.510    742.520    479.510    558.747    479.510
 58.570    885.000    893.238     -8.238    479.568    810.040    479.568    562.748    479.568
 58.670   1000.000    974.903     25.097    479.627    888.144    479.627    566.367    479.627
 58.770   1034.000   1059.163    -25.163    479.687    969.382    479.687    569.453    479.687
 58.870   1123.000   1137.231    -14.231    479.748   1045.112    479.748    571.861    479.748
 58.970   1247.000   1201.560     45.440    479.809   1107.906    479.809    573.470    479.809
 59.070   1287.812   1246.043     41.769    479.871   1151.742    479.871    574.193    479.871
 59.170   1288.000   1265.200     22.800    479.934   1171.176    479.934    573.993    479.934
 59.270   1339.000   1256.842     82.158    479.998   1163.998    479.998    572.886    479.998
 59.370   1189.000   1226.440    -37.440    480.062   1135.605    480.062    570.940    480.062
 59.470   1320.000   1186.338    133.662    480.126   1098.230    480.126    568.265    480.126
 59.570   1212.000   1150.222     61.778    480.192   1065.422    480.192    564.998    480.192
 59.670   1285.000   1129.435    155.565    480.258   1048.375    480.258    561.290    480.258
 59.770   1149.976   1133.216     16.760    480.324   1056.184    480.324    557.287    480.324
 59.870   1207.000   1168.589     38.411    480.392   1095.738    480.392    553.126    480.392
 59.970   1168.184   1236.755    -68.570    480.459   1168.129    480.459    548.919    480.459
 60.070   1390.847   1329.113     61.734    480.528   1264.669    480.528    544.762    480.528
 60.170   1492.901   1426.162     66.739    480.597   1365.795    480.597    540.724    480.597
 60.270   1501.000   1499.855      1.145    480.666   1443.418    480.666    536.856    480.666
 60.370   1588.000   1521.433     66.567    480.736   1468.751    480.736    533.192    480.736
 60.470   1429.000   1475.574    -46.574    480.807   1426.447    480.807    529.752    480.807
 60.570   1378.619   1369.956      8.664    480.878   1324.160    480.878    526.546    480.878
 60.670   1199.640   1228.727    -29.087    480.950   1186.025    480.950    523.574    480.950
 60.770   1127.210   1078.751     48.459    481.022   1038.901    481.022    520.832    481.022
 60.870    915.235    941.039    -25.804    481.094    903.806    481.094    518.313    481.094
 60.970    804.446    828.227    -23.780    481.167    793.388    481.167    516.004    481.167
 61.070    769.000    745.196     23.804    481.241    712.546    481.241    513.893    481.241
 61.170    695.000    691.351      3.649    481.315    660.698    481.315    511.967    481.315
 61.270    646.000    663.616    -17.616    481.389    634.788    481.389    510.211    481.389
 61.370    674.000    659.123     14.877    481.464    631.960    481.464    508.612    481.464
 61.470    655.000    676.785    -21.785    481.539    651.142    481.539    507.154    481.539
 61.570    763.000    717.442     45.558    481.615    693.187    481.615    505.826    481.615
 61.670    732.000    782.671    -50.671    481.691    759.685    481.691    504.613    481.691
 61.770    911.521    872.703     38.818    481.767    850.878    481.767    503.503    481.767
 61.870   1031.000    984.058     46.942    481.844    963.303    481.844    502.486    481.844
 61.970   1061.000   1107.544    -46.544    481.921   1087.781    481.921    501.551    481.921
 62.070   1186.730   1227.306    -40.576    481.998   1208.472    481.998    500.690    481.998
 62.170   1319.738   1321.695     -1.957    482.076   1303.739    482.076    499.894    482.076
 62.270   1326.551   1368.221    -41.671    482.154   1351.101    482.154    499.157    482.154
 62.370   1402.139   1353.532     48.607    482.232   1337.207    482.232    498.474    482.232
 62.470   1233.000   1281.513    -48.513    482.311   1265.936    482.311    497.840    482.311
 62.570   1177.000   1170.557      6.443    482.389   1155.677    482.389    497.252    482.389
 62.670   1008.000   1043.488    -35.488    482.468   1029.254    482.468    496.706    482.468
 62.770    965.631    919.629     46.002    482.548    905.991    482.548    496.199    482.548
 62.870    862.764    811.766     50.998    482.627    798.680    482.627    495.730    482.627
 62.970    696.403    726.040    -29.637    482.707    713.467    482.707    495.296    482.707
 63.070    663.000    663.168     -0.168    482.787    651.072    482.787    494.895    482.787
 63.170    605.000    620.331    -15.331    482.867    608.680    482.867    494.526    482.867
 63.270    606.000    593.156     12.844    482.948    581.923    482.948    494.185    482.948
 63.370    580.835    577.295      3.540    483.028    566.453    483.028    493.871    483.028
 63.470    574.532    569.373      5.159    483.109    558.896    483.109    493.584    483.109
 63.570    528.061    567.356    -39.295    483.189    557.220    483.189    493.320    483.189
 63.670    604.115    570.548     33.567    483.270    560.731    483.270    493.079    483.270
 63.770    592.000    579.394     12.606    483.351    569.874    483.351    492.859    483.351
 63.870    583.000    595.178    -12.178    483.432    585.932    483.432    492.658    483.432
 63.970    611.000    619.614     -8.614    483.514    610.622    483.514    492.476    483.514
 64.070    655.000    654.304      0.696    483.595    645.546    483.595    492.312    483.595
 64.170    737.568    700.050     37.517    483.676    691.508    483.676    492.163    483.676
 64.270    767.000    756.100     10.900    483.758    747.756    483.758    492.030    483.758
 64.370    843.000    819.429     23.571    483.839    811.270    483.839    491.911    483.839
 64.470    882.000    884.215     -2.215    483.920    876.230    483.920    491.806    483.920
 64.570    943.000    941.884      1.116    484.002    934.068    484.002    491.713    484.002
 64.670   1011.000    982.661     28.339    484.083    975.011    484.083    491.632    484.083
 64.770   1015.000    998.998     16.002    484.165    991.512    484.165    491.562    484.165
 64.870    933.000    988.843    -55.843    484.246    981.518    484.246    491.503    484.246
 64.970    983.000    955.982     27.018    484.328    948.811    484.328    491.454    484.328
 65.070    887.000    907.893    -20.893    484.409    900.866    484.409    491.415    484.409
 65.170    885.000    853.063     31.937    484.490    846.167    484.490    491.385    484.490
 65.270    803.000    798.685      4.315    484.571    791.909    484.571    491.363    484.571
 65.370    745.000    749.313     -4.313    484.652    742.641    484.652    491.350    484.652
 65.470    734.217    706.792     27.424    484.733    700.213    484.733    491.345    484.733
 65.570    650.000    671.200    -21.200    484.814    664.701    484.814    491.347    484.814
 65.670    620.017    641.971    -21.953    484.895    635.540    484.895    491.357    484.895
 65.770    595.000    618.488    -23.488    484.975    612.117    484.975    491.374    484.975
 65.870    599.986    600.128     -0.142    485.056    593.808    485.056    491.398    485.056
 65.970    590.831    586.212      4.619    485.136    579.936    485.136    491.429    485.136
 66.070    604.000    576.064     27.936    485.216    569.826    485.216    491.466    485.216
 66.170    566.113    569.083     -2.970    485.296    562.878    485.296    491.510    485.296
 66.270    541.486    564.780    -23.294    485.376    558.603    485.376    491.560    485.376
 66.370    538.000    562.777    -24.777    485.455    556.622    485.455    491.616    485.455
 66.470    586.000    562.817     23.183    485.534    556.678    485.534    491.679    485.534
 66.570    530.000    564.800    -34.800    485.613    558.672    485.613    491.747    485.613
 66.670    533.000    568.873    -35.873    485.692    562.750    485.692    491.822    485.692
 66.770    543.000    575.574    -32.574    485.771    569.448    485.771    491.903    485.771
 66.870    613.782    586.036     27.745    485.849    579.902    485.849    491.990    485.849
 66.970    578.000    602.280    -24.280    485.927    596.130    485.927    492.083    485.927
 67.070    631.776    627.520      4.257    486.004    621.347    486.004    492.183    486.004
 67.170    656.000    666.406    -10.406    486.081    660.204    486.081    492.289    486.081
 67.270    684.505    725.013    -40.508    486.158    718.776    486.158    492.402    486.158
 67.370    801.370    810.337     -8.967    486.235    804.057    486.235    492.522    486.235
 67.470    878.871    929.124    -50.254    486.311    922.799    486.311    492.649    486.311
 67.570   1053.000   1086.017    -33.017    486.387   1079.644    486.387    492.782    486.387
 67.670   1285.000   1281.227      3.773    486.462   1274.809    486.462    492.924    486.462
 67.770   1447.000   1508.222    -61.222    486.537   1501.761    486.537    493.073    486.537
 67.870   1812.268   1751.890     60.378    486.612   1745.391    486.612    493.231    486.612
 67.970   2058.125   1987.672     70.453    486.686   1981.139    486.686    493.397    486.686
 68.070   2170.296   2182.688    -12.391    486.760   2176.122    486.760    493.572    486.760
 68.170   2331.000   2301.378     29.622    486.833   2294.770    486.833    493.756    486.833
 68.270   2423.000   2317.502    105.498    486.906   2310.829    486.906    493.951    486.906
 68.370   2262.000   2227.124     34.876    486.979   2220.348    486.979    494.157    486.979
 68.470   2152.000   2050.993    101.007    487.051   2044.071    487.051    494.374    487.051
 68.570   1852.000   1823.603     28.397    487.122   1816.493    487.122    494.603    487.122
 68.670   1633.000   1579.616     53.384    487.193   1572.286    487.193    494.846    487.193
 68.770   1377.000   1346.288     30.712    487.263   1338.715    487.263    495.103    487.263
 68.870   1171.000   1141.413     29.587    487.333   1133.581    487.333    495.375    487.333
 68.970    951.686    973.831    -22.144    487.403    965.728    487.403    495.664    487.403
 69.070    892.561    845.032     47.529    487.471    836.648    487.471    495.971    487.471
 69.170    805.000    751.385     53.615    487.540    742.708    487.540    496.299    487.540
 69.270    699.000    686.506     12.494    487.607    677.524    487.607    496.648    487.607
 69.370    629.829    643.295    -13.466    487.674    633.990    487.674    497.021    487.674
 69.470    596.000    615.306    -19.306    487.741    605.656    487.741    497.421    487.741
 69.570    604.123    597.427      6.695    487.807    587.406    487.807    497.850    487.807
 69.670    584.000    586.001     -2.001    487.872    575.579    487.872    498.312    487.872
 69.770    604.000    578.626     25.374    487.937    567.767    487.937    498.811    487.937
 69.870    590.000    573.834     16.166    488.000    562.497    488.000    499.350    488.000
 69.970    559.000    570.782    -11.782    488.064    558.922    488.064    499.935    488.064
 70.070    610.000    569.015     40.985    488.126    556.581    488.126    500.570    488.126
 70.170    559.000    568.309     -9.309    488.188    555.243    488.188    501.263    488.188
 70.270    526.000    568.584    -42.584    488.249    554.821    488.249    502.020    488.249
 70.370    570.000    569.869      0.131    488.310    555.338    488.310    502.848    488.310
 70.470    550.000    572.321    -22.321    488.370    556.939    488.370    503.757    488.370
 70.570    596.000    576.266     19.734    488.429    559.943    488.429    504.755    488.429
 70.670    560.000    582.298    -22.298    488.487    564.935    488.487    505.853    488.487
 70.770    602.000    591.418     10.582    488.545    572.901    488.545    507.062    488.545
 70.870    615.000    605.192      9.808    488.601    585.397    488.601    508.394    488.601
 70.970    609.000    625.917    -16.917    488.657    604.706    488.657    509.862    488.657
 71.070    617.000    656.705    -39.705    488.713    633.926    488.713    511.478    488.713
 71.170    663.000    701.395    -38.395    488.767    676.882    488.767    513.257    488.767
 71.270    751.000    764.187    -13.187    488.821    737.761    488.821    515.212    488.821
 71.370    893.874    848.943     44.930    488.873    820.410    488.873    517.356    488.873
 71.470    935.000    958.150    -23.150    488.925    927.305    488.925    519.701    488.925
 71.570   1081.000   1091.705    -10.705    488.976   1058.335    488.976    522.258    488.976
 71.670   1266.647   1245.738     20.909    489.027   1209.623    489.027    525.034    489.027
 71.770   1364.661   1411.687    -47.026    489.076   1372.607    489.076    528.032    489.076
 71.870   1507.000   1575.781    -68.781    489.124   1533.523    489.124    531.250    489.124
 71.970   1688.000   1719.273    -31.273    489.172   1673.639    489.172    534.676    489.172
 72.070   1870.000   1820.547     49.453    489.219   1771.363    489.219    538.287    489.219
 72.170   1804.755   1860.743    -55.988    489.265   1807.875    489.265    542.046    489.265
 72.270   1817.000   1831.812    -14.812    489.309   1775.176    489.309    545.894    489.309
 72.370   1699.131   1740.811    -41.681    489.353   1680.398    489.353    549.752    489.353
 72.470   1591.262   1605.999    -14.737    489.396   1541.894    489.396    553.517    489.396
 72.570   1475.000   1448.824     26.176    489.438   1381.240    489.438    557.059    489.438
 72.670   1343.000   1288.105     54.895    489.479   1217.403    489.479    560.230    489.479
 72.770   1136.000   1137.757     -1.757    489.519   1064.457    489.519    562.873    489.519
 72.870    963.000   1006.492    -43.492    489.558    931.266    489.558    564.838    489.558
 72.970    947.261    898.320     48.941    489.597    821.966    489.597    566.000    489.597
 73.070    812.000    813.479     -1.479    489.634    736.874    489.634    566.283    489.634
 73.170    700.180    749.620    -49.440    489.670    673.661    489.670    565.667    489.670
 73.270    692.000    703.026    -11.026    489.705    628.565    489.705    564.198    489.705
 73.370    685.000    669.642     15.358    489.739    597.433    489.739    561.975    489.739
 73.470    692.000    645.790     46.210    489.772    576.449    489.772    559.137    489.772
 73.570    612.000    628.528    -16.528    489.804    562.514    489.804    555.840    489.804
 73.670    641.970    615.732     26.239    489.834    553.349    489.834    552.238    489.834
 73.770    614.000    606.002      7.998    489.864    547.415    489.864    548.473    489.864
 73.870    590.000    598.488     -8.488    489.893    543.741    489.893    544.662    489.893
 73.970    594.000    592.700      1.300    489.920    541.745    489.920    540.899    489.920
 74.070    601.000    588.352     12.648    489.947    541.071    489.947    537.254    489.947
 74.170    580.000    585.235     -5.235    489.972    541.463    489.972    533.774    489.972
 74.270    543.000    583.138    -40.138    489.996    542.679    489.996    530.491    489.996
 74.370    587.000    581.794      5.206    490.019    544.432    490.019    527.421    490.019
 74.470    622.741    580.853     41.888    490.041    546.366    490.041    524.574    490.041
 74.570    606.000    579.879     26.121    490.062    548.044    490.062    521.947    490.062
 74.670    609.788    578.395     31.392    490.081    548.994    490.081    519.536    490.081
 74.770    561.563    576.003    -14.440    490.100    548.825    490.100    517.332    490.100
 74.870    638.000    572.543     65.457    490.117    547.389    490.117    515.323    490.117
 74.970    632.000    568.182     63.818    490.133    544.866    490.133    513.497    490.133
 75.070    602.000    563.338     38.662    490.148    541.689    490.148    511.841    490.148
 75.170    599.000    558.538     40.462    490.161    538.397    490.161    510.340    490.161
 75.270    612.000    554.323     57.677    490.174    535.545    490.174    508.981    490.174
 75.370    585.000    551.200     33.800    490.185    533.656    490.185    507.752    490.185
 75.470    566.000    549.659     16.341    490.195    533.230    490.195    506.639    490.195
 75.570    507.972    550.177    -42.204    490.203    534.757    490.203    505.632    490.203
 75.670    557.204    553.214      3.990    490.211    538.709    490.211    504.719    490.211
 75.770    563.000    559.186      3.814    490.217    545.508    490.217    503.890    490.217
 75.870    561.567    568.404     -6.837    490.222    555.478    490.222    503.137    490.222
 75.970    572.000    580.995     -8.995    490.225    568.752    490.225    502.451    490.225
 76.070    619.000    596.798     22.202    490.227    585.176    490.227    501.824    490.227
 76.170    644.000    615.266     28.734    490.228    604.209    490.228    501.251    490.228
 76.270    627.480    635.381     -7.900    490.228    624.843    490.228    500.725    490.228
 76.370    629.000    655.610    -26.610    490.226    645.547    490.226    500.241    490.226
 76.470    660.000    673.918    -13.918    490.223    664.295    490.223    499.795    490.223
 76.570    704.000    687.936     16.064    490.219    678.719    490.219    499.382    490.219
 76.670    650.101    695.400    -45.299    490.213    686.562    490.213    498.999    490.213
 76.770    665.000    694.866    -29.866    490.206    686.380    490.206    498.643    490.206
 76.870    689.000    686.301      2.699    490.198    678.145    490.198    498.311    490.198
 76.970    674.000    671.100      2.900    490.188    663.252    490.188    498.000    490.188
 77.070    692.402    651.492     40.910    490.177    643.931    490.177    497.709    490.177
 77.170    640.000    629.825     10.175    490.164    622.531    490.164    497.435    490.164
 77.270    619.000    608.109     10.891    490.150    601.065    490.150    497.177    490.150
 77.370    542.000    587.843    -45.843    490.135    581.032    490.135    496.934    490.135
 77.470    582.000    569.990     12.010    490.118    563.396    490.118    496.704    490.118
 77.570    521.000    555.028    -34.028    490.100    548.636    490.100    496.486    490.100
 77.670    494.000    543.033    -49.033    490.080    536.831    490.080    496.279    490.080
 77.770    507.000    533.789    -26.789    490.059    527.765    490.059    496.081    490.059
 77.870    523.838    526.902     -3.064    490.037    521.045    490.037    495.893    490.037
 77.970    522.068    521.911      0.156    490.013    516.210    490.013    495.713    490.013
 78.070    494.000    518.362    -24.362    489.988    512.808    489.988    495.541    489.988
 78.170    510.000    515.859     -5.859    489.961    510.444    489.961    495.376    489.961
 78.270    508.000    514.091     -6.091    489.933    508.806    489.933    495.218    489.933
 78.370    465.000    512.826    -47.826    489.903    507.663    489.903    495.066    489.903
 78.470    474.281    511.905    -37.625    489.872    506.858    489.872    494.919    489.872
 78.570    469.000    511.227    -42.227    489.839    506.289    489.839    494.777    489.839
 78.670    476.122    510.731    -34.609    489.805    505.896    489.805    494.641    489.805
 78.770    534.457    510.385     24.072    489.769    505.647    489.769    494.508    489.769
 78.870    504.000    510.180     -6.180    489.732    505.532    489.732    494.380    489.732
 78.970    509.000    510.117     -1.117    489.693    505.556    489.693    494.255    489.693
 79.070    520.907    510.212     10.696    489.653    505.731    489.653    494.134    489.653
 79.170    519.380    510.485      8.895    489.611    506.080    489.611    494.016    489.611
 79.270    509.000    510.965     -1.965    489.568    506.632    489.568    493.901    489.568
 79.370    525.169    511.686     13.482    489.523    507.420    489.523    493.789    489.523
 79.470    484.000    512.689    -28.689    489.477    508.486    489.477    493.679    489.477
 79.570    515.000    514.020      0.980    489.429    509.876    489.429    493.571    489.429
 79.670    535.797    515.720     20.076    489.379    511.632    489.379    493.465    489.379
 79.770    508.958    517.925     -8.967    489.328    513.889    489.328    493.361    489.328
 79.870    538.714    520.757     17.957    489.276    516.771    489.276    493.259    489.276
 79.970    489.135    524.369    -35.234    489.221    520.430    489.221    493.158    489.221
 80.070    519.898    528.979     -9.080    489.166    525.083    489.166    493.058    489.166
 80.170    562.000    534.861     27.139    489.108    531.009    489.108    492.958    489.108
 80.270    555.000    542.356     12.644    489.050    538.545    489.050    492.859    489.050
 80.370    529.000    551.840    -22.840    488.989    548.069    488.989    492.760    488.989
 80.470    540.000    563.669    -23.669    488.927    559.938    488.927    492.661    488.927
 80.570    564.092    578.082    -13.990    488.863    574.390    488.863    492.561    488.863
 80.670    617.468    595.099     22.368    488.798    591.446    488.798    492.461    488.798
 80.770    572.000    614.441    -42.441    488.731    610.827    488.731    492.360    488.731
 80.870    624.000    635.484    -11.484    488.663    631.908    488.663    492.257    488.663
 80.970    692.951    657.268     35.683    488.593    653.732    488.593    492.153    488.593
 81.070    687.000    678.587      8.413    488.521    675.091    488.521    492.048    488.521
 81.170    649.000    698.145    -49.145    488.447    694.689    488.447    491.942    488.447
 81.270    679.000    714.735    -35.735    488.372    711.318    488.372    491.834    488.372
 81.370    768.929    727.361     41.568    488.296    723.983    488.296    491.725    488.296
 81.470    682.000    735.313    -53.313    488.218    731.974    488.218    491.615    488.218
 81.570    728.000    738.243    -10.243    488.138    734.940    488.138    491.504    488.138
 81.670    723.639    736.161    -12.522    488.056    732.894    488.056    491.392    488.056
 81.770    748.000    729.367     18.633    487.973    726.133    487.973    491.279    487.973
 81.870    712.000    718.388     -6.388    487.888    715.185    487.888    491.166    487.888
 81.970    753.121    704.014     49.108    487.802    700.838    487.802    491.052    487.802
 82.070    688.000    687.294      0.706    487.714    684.143    487.714    490.938    487.714
 82.170    658.715    669.369    -10.654    487.624    666.240    487.624    490.824    487.624
 82.270    685.000    651.225     33.775    487.532    648.115    487.532    490.709    487.532
 82.370    656.763    633.540     23.223    487.439    630.448    487.439    490.594    487.439
 82.470    613.920    616.707     -2.787    487.344    613.630    487.344    490.479    487.344
 82.570    578.000    600.962    -22.962    487.248    597.898    487.248    490.364    487.248
 82.670    618.000    586.510     31.490    487.150    583.457    487.150    490.248    487.150
 82.770    596.000    573.580     22.420    487.050    570.537    487.050    490.132    487.050
 82.870    528.438    562.403    -33.965    486.948    559.368    486.948    490.015    486.948
 82.970    530.000    553.172    -23.172    486.845    550.143    486.845    489.899    486.845
 83.070    555.157    546.019      9.138    486.740    542.994    486.740    489.781    486.740
 83.170    559.000    541.014     17.986    486.634    537.992    486.634    489.664    486.634
 83.270    521.000    538.141    -17.141    486.525    535.121    486.525    489.546    486.525
 83.370    510.907    537.301    -26.394    486.415    534.282    486.415    489.427    486.415
 83.470    565.944    538.297     27.647    486.304    535.277    486.304    489.309    486.304
 83.570    547.837    540.827      7.010    486.191    537.806    486.191    489.189    486.191
 83.670    577.811    544.486     33.326    486.076    541.462    486.076    489.069    486.076
 83.770    530.000    548.771    -18.771    485.959    545.744    485.959    488.949    485.959
 83.870    566.878    553.101     13.777    485.840    550.071    485.840    488.827    485.840
 83.970    503.000    556.849    -53.849    485.720    553.817    485.720    488.706    485.720
 84.070    548.616    559.405    -10.789    485.598    556.371    485.598    488.583    485.598
 84.170    553.000    560.278     -7.278    485.475    557.243    485.475    488.460    485.475
 84.270    512.000    559.212    -47.212    485.350    556.178    485.350    488.336    485.350
 84.370    564.000    556.254      7.746    485.223    553.221    485.223    488.212    485.223
 84.470    556.000    551.717      4.283    485.094    548.685    485.094    488.087    485.094
 84.570    540.000    546.072     -6.072    484.964    543.040    484.964    487.961    484.964
 84.670    560.582    539.829     20.753    484.832    536.798    484.832    487.835    484.832
 84.770    528.000    533.461     -5.461    484.698    530.428    484.698    487.707    484.698
 84.870    544.000    527.351     16.649    484.563    524.316    484.563    487.580    484.563
 84.970    520.000    521.787     -1.787    484.426    518.747    484.426    487.451    484.426
 85.070    516.000    516.950     -0.950    484.287    513.903    484.287    487.322    484.287
 85.170    469.706    512.925    -43.219    484.146    509.871    484.146    487.192    484.146
 85.270    552.663    509.720     42.943    484.004    506.656    484.004    487.061    484.004
 85.370    487.045    507.287    -20.242    483.860    504.212    483.860    486.929    483.860
 85.470    552.000    505.544     46.456    483.715    502.456    483.715    486.797    483.715
 85.570    478.000    504.398    -26.398    483.567    501.296    483.567    486.664    483.567
 85.670    520.000    503.768     16.232    483.418    500.650    483.418    486.531    483.418
 85.770    517.317    503.591     13.725    483.268    500.456    483.268    486.397    483.268
 85.870    543.227    503.838     39.389    483.115    500.684    483.115    486.262    483.115
 85.970    534.522    504.513     30.010    482.961    501.339    482.961    486.127    482.961
 86.070    526.000    505.658     20.342    482.805    502.463    482.805    485.991    482.805
 86.170    515.823    507.353      8.470    482.648    504.134    482.648    485.854    482.648
 86.270    495.000    509.704    -14.704    482.489    506.460    482.489    485.717    482.489
 86.370    566.000    512.842     53.158    482.328    509.571    482.328    485.580    482.328
 86.470    565.000    516.904     48.096    482.165    513.604    482.165    485.442    482.165
 86.570    541.000    522.019     18.981    482.001    518.686    482.001    485.304    482.001
 86.670    547.659    528.280     19.379    481.835    524.914    481.835    485.165    481.835
 86.770    563.336    535.726     27.610    481.668    532.322    481.668    485.026    481.668
 86.870    545.000    544.304      0.696    481.499    540.861    481.499    484.887    481.499
 86.970    572.000    553.851     18.149    481.328    550.367    481.328    484.747    481.328
 87.070    560.000    564.066     -4.066    481.155    560.539    481.155    484.608    481.155
 87.170    569.000    574.503     -5.503    480.981    570.931    480.981    484.468    480.981
 87.270    604.000    584.567     19.433    480.805    580.951    480.805    484.328    480.805
 87.370    591.000    593.541     -2.541    480.627    589.880    480.627    484.188    480.627
 87.470    643.000    600.650     42.350    480.448    596.946    480.448    484.048    480.448
 87.570    612.000    605.193      6.807    480.267    601.447    480.267    483.909    480.267
 87.670    641.411    606.712     34.699    480.085    602.926    480.085    483.770    480.085
 87.770    589.374    605.129    -15.755    479.901    601.304    479.901    483.631    479.901
 87.870    643.353    600.772     42.581    479.715    596.909    479.715    483.492    479.715
 87.970    590.000    594.273     -4.273    479.528    590.372    479.528    483.355    479.528
 88.070    591.474    586.423      5.051    479.338    582.482    479.338    483.218    479.338
 88.170    587.621    578.047      9.574    479.148    574.064    479.148    483.081    479.148
 88.270    588.000    569.920     18.080    478.955    565.891    478.955    482.946    478.955
 88.370    542.776    562.713    -19.938    478.762    558.636    478.762    482.812    478.762
 88.470    554.000    556.963     -2.963    478.566    552.833    478.566    482.680    478.566
 88.570    565.000    553.037     11.963    478.369    548.851    478.369    482.549    478.369
 88.670    561.000    551.129      9.871    478.170    546.882    478.170    482.420    478.170
 88.770    548.000    551.255     -3.255    477.970    546.943    477.970    482.292    477.970
 88.870    569.260    553.260     16.000    477.768    548.879    477.768    482.167    477.768
 88.970    565.000    556.836      8.164    477.564    552.382    477.564    482.045    477.564
 89.070    527.012    561.543    -34.531    477.359    557.011    477.359    481.925    477.359
 89.170    521.000    566.827    -45.827    477.153    562.212    477.153    481.809    477.153
 89.270    527.164    572.052    -44.888    476.945    567.350    476.945    481.695    476.945
 89.370    612.000    576.545     35.455    476.735    571.748    476.735    481.586    476.735
 89.470    629.000    579.660     49.340    476.523    574.762    476.523    481.481    476.523
 89.570    608.835    580.880     27.956    476.311    575.873    476.311    481.380    476.311
 89.670    569.000    579.921    -10.921    476.096    574.797    476.096    481.285    476.096
 89.770    566.000    576.794    -10.794    475.880    571.544    475.880    481.194    475.880
 89.870    569.000    571.781     -2.781    475.663    566.396    475.663    481.110    475.663
 89.970    540.000    565.342    -25.342    475.444    559.812    475.444    481.032    475.444
 90.070    569.000    558.007     10.993    475.223    552.322    475.223    480.961    475.223
 90.170    528.000    550.287    -22.287    475.001    544.438    475.001    480.898    475.001
 90.270    501.201    542.631    -41.431    474.778    536.607    474.778    480.842    474.778
 90.370    538.000    535.398      2.602    474.553    529.189    474.553    480.796    474.553
 90.470    500.000    528.849    -28.849    474.326    522.446    474.326    480.758    474.326
 90.570    570.000    523.153     46.847    474.098    516.544    474.098    480.731    474.098
 90.670    539.000    518.392     20.608    473.869    511.566    473.869    480.714    473.869
 90.770    526.000    514.576     11.424    473.638    507.521    473.638    480.708    473.638
 90.870    522.608    511.663     10.945    473.406    504.366    473.406    480.714    473.406
 90.970    498.000    509.577    -11.577    473.172    502.025    473.172    480.732    473.172
 91.070    537.086    508.229     28.857    472.937    500.408    472.937    480.764    472.937
 91.170    534.627    507.537     27.090    472.700    499.433    472.700    480.809    472.700
 91.270    516.260    507.434      8.826    472.462    499.031    472.462    480.868    472.462
 91.370    542.000    507.884     34.116    472.223    499.165    472.223    480.942    472.223
 91.470    475.000    508.882    -33.882    471.982    499.833    471.982    481.031    471.982
 91.570    509.066    510.466     -1.400    471.740    501.068    471.740    481.135    471.740
 91.670    474.000    512.708    -38.708    471.496    502.946    471.496    481.255    471.496
 91.770    502.000    515.708    -13.708    471.251    505.564    471.251    481.391    471.251
 91.870    507.000    519.623    -12.623    471.005    509.080    471.005    481.541    471.005
 91.970    561.102    524.631     36.471    470.757    513.673    470.757    481.706    470.757
 92.070    513.000    530.898    -17.898    470.508    519.509    470.508    481.885    470.508
 92.170    480.000    538.598    -58.598    470.258    526.763    470.258    482.076    470.258
 92.270    552.000    547.881      4.119    470.007    535.589    470.007    482.277    470.007
 92.370    572.000    558.860     13.140    469.754    546.101    469.754    482.487    469.754
 92.470    527.000    571.585    -44.585    469.500    558.351    469.500    482.702    469.500
 92.570    613.155    586.027     27.128    469.244    572.315    469.244    482.918    469.244
 92.670    646.513    602.060     44.453    468.987    587.872    468.987    483.132    468.987
 92.770    598.000    619.450    -21.450    468.729    604.793    468.729    483.337    468.729
 92.870    610.000    637.847    -27.847    468.470    622.735    468.470    483.528    468.470
 92.970    702.085    656.786     45.299    468.210    641.237    468.210    483.698    468.210
 93.070    676.600    675.709      0.891    467.948    659.752    467.948    483.842    467.948
 93.170    691.854    694.029     -2.176    467.685    677.697    467.685    483.951    467.685
 93.270    737.000    711.219     25.781    467.421    694.554    467.421    484.018    467.421
 93.370    770.000    726.930     43.070    467.156    709.978    467.156    484.039    467.156
 93.470    745.010    741.050      3.960    466.890    723.866    466.890    484.006    466.890
 93.570    776.000    753.689     22.311    466.622    736.330    466.622    483.915    466.622
 93.670    811.000    765.090     45.910    466.354    747.615    466.354    483.765    466.354
 93.770    756.000    775.515    -19.515    466.084    757.984    466.084    483.554    466.084
 93.870    787.000    785.177      1.823    465.813    767.649    465.813    483.282    465.813
 93.970    804.000    794.240      9.760    465.541    776.774    465.541    482.952    465.541
 94.070    864.000    802.882     61.118    465.268    785.529    465.268    482.569    465.268
 94.170    789.000    811.336    -22.336    464.994    794.143    464.994    482.138    464.994
 94.270    842.000    819.868     22.132    464.719    802.876    464.719    481.665    464.719
 94.370    833.000    828.671      4.329    464.443    811.912    464.443    481.157    464.443
 94.470    810.713    837.720    -27.006    464.165    821.222    464.165    480.622    464.165
 94.570    874.418    846.673     27.744    463.887    830.456    463.887    480.067    463.887
 94.670    883.000    854.842     28.158    463.608    838.917    463.608    479.499    463.608
 94.770    877.801    861.236     16.565    463.328    845.612    463.328    478.924    463.328
 94.870    882.000    864.694     17.306    463.047    849.370    463.047    478.348    463.047
 94.970    858.447    864.070     -5.623    462.764    849.043    462.764    477.776    462.764
 95.070    897.000    858.461     38.539    462.481    843.722    462.481    477.212    462.481
 95.170    939.000    847.609     91.391    462.197    833.146    462.197    476.660    462.197
 95.270    860.803    831.796     29.007    461.913    817.593    461.913    476.122    461.913
 95.370    837.000    811.911     25.089    461.627    797.948    461.627    475.602    461.627
 95.470    833.000    789.307     43.693    461.340    775.563    461.340    475.100    461.340
 95.570    739.926    765.573    -25.647    461.053    752.024    461.053    474.620    461.053
 95.670    692.346    742.362    -50.015    460.764    728.984    460.764    474.161    460.764
 95.770    767.000    721.294     45.706    460.475    708.063    460.475    473.725    460.475
 95.870    756.000    703.891     52.109    460.186    690.780    460.186    473.312    460.186
 95.970    724.000    691.529     32.471    459.895    678.511    459.895    472.924    459.895
 96.070    684.000    685.414     -1.414    459.603    672.463    459.603    472.560    459.603
 96.170    664.993    686.564    -21.571    459.311    673.654    459.311    472.222    459.311
 96.270    701.941    695.794      6.147    459.018    682.897    459.018    471.909    459.018
 96.370    729.000    713.705     15.295    458.725    700.794    458.725    471.622    458.725
 96.470    753.000    740.657     12.343    458.430    727.706    458.430    471.361    458.430
 96.570    822.099    776.744     45.355    458.136    763.724    458.136    471.127    458.136
 96.670    825.000    821.739      3.261    457.840    808.624    457.840    470.920    457.840
 96.770    839.000    875.047    -36.047    457.544    861.808    457.544    470.741    457.544
 96.870    904.000    935.636    -31.636    457.247    922.246    457.247    470.591    457.247
 96.970   1002.000   1001.993      0.007    456.949    988.423    456.949    470.470    456.949
 97.070   1111.000   1072.084     38.916    456.651   1058.306    456.651    470.380    456.651
 97.170   1080.182   1143.345    -63.163    456.353   1129.329    456.353    470.321    456.353
 97.270   1169.739   1212.701    -42.962    456.054   1198.418    456.054    470.294    456.054
 97.370   1280.000   1276.658      3.342    455.754   1262.077    455.754    470.301    455.754
 97.470   1326.000   1331.493     -5.493    455.454   1316.582    455.454    470.343    455.454
 97.570   1375.000   1373.603      1.397    455.154   1358.329    455.154    470.421    455.154
 97.670   1453.111   1400.009     53.102    454.853   1384.335    454.853    470.538    454.853
 97.770   1413.000   1408.890      4.110    454.551   1392.777    454.551    470.694    454.551
 97.870   1403.000   1399.949      3.051    454.249   1383.355    454.249    470.891    454.249
 97.970   1383.000   1374.440      8.560    453.947   1357.319    453.947    471.133    453.947
 98.070   1345.000   1334.857     10.143    453.645   1317.160    453.645    471.419    453.645
 98.170   1287.000   1284.454      2.546    453.342   1266.129    453.342    471.753    453.342
 98.270   1177.000   1226.788    -49.788    453.039   1207.781    453.039    472.136    453.039
 98.370   1150.000   1165.391    -15.391    452.735   1145.647    452.735    472.572    452.735
 98.470   1150.000   1103.554     46.446    452.431   1083.016    452.431    473.060    452.431
 98.570   1050.201   1044.291      5.910    452.127   1022.899    452.127    473.605    452.127
 98.670    979.000    990.186    -11.186    451.823    967.880    451.823    474.208    451.823
 98.770    978.000    943.443     34.557    451.519    920.162    451.519    474.871    451.519
 98.870    909.000    905.889      3.111    451.214    881.569    451.214    475.595    451.214
 98.970    894.258    878.987     15.271    450.909    853.566    450.909    476.383    450.909
 99.070    804.000    863.854    -59.854    450.604    837.267    450.604    477.235    450.604
 99.170    870.286    861.284      9.002    450.299    833.466    450.299    478.152    450.299
 99.270    822.798    871.772    -48.974    449.994    842.658    449.994    479.136    449.994
 99.370    898.000    895.527      2.473    449.689    865.055    449.689    480.185    449.689
 99.470    941.000    932.484      8.516    449.384    900.590    449.384    481.299    449.384
 99.570    981.918    982.286     -0.368    449.078    948.910    449.078    482.476    449.078
 99.670    995.000   1044.256    -49.256    448.773   1009.342    448.773    483.712    448.773
 99.770   1103.000   1117.357    -14.357    448.468   1080.852    448.468    485.004    448.468
 99.870   1130.000   1200.142    -70.142    448.163   1162.000    448.163    486.346    448.163
 99.970   1291.000   1290.710      0.290    447.858   1250.893    447.858    487.728    447.858
100.070   1489.000   1386.671    102.329    447.553   1345.152    447.553    489.143    447.553
100.170   1482.356   1485.154     -2.798    447.249   1441.918    447.249    490.576    447.249
100.270   1527.408   1582.879    -55.470    446.944   1537.925    446.944    492.014    446.944
100.370   1648.000   1676.326    -28.326    446.640   1629.672    446.640    493.437    446.640
100.470   1741.000   1761.995    -20.995    446.336   1713.675    446.336    494.827    446.336
100.570   1815.000   1836.699    -21.699    446.032   1786.773    446.032    496.158    446.032
100.670   1861.099   1897.794    -36.695    445.728   1846.343    445.728    497.407    445.728
100.770   1908.614   1943.245    -34.631    445.425   1890.378    445.425    498.546    445.425
100.870   2003.000   1971.564     31.436    445.122   1917.416    445.122    499.546    445.122
100.970   1995.000   1981.736     13.264    444.819   1926.468    444.819    500.382    444.819
101.070   1963.921   1973.277     -9.355    444.517   1917.074    444.517    501.027    444.517
101.170   1932.000   1946.465    -14.465    444.215   1889.538    444.215    501.458    444.215
101.270   1942.742   1902.629     40.113    443.914   1845.205    443.914    501.657    443.914
101.370   1850.000   1844.280      5.720    443.613   1786.598    443.613    501.611    443.613
101.470   1797.000   1774.943     22.057    443.313   1717.248    443.313    501.315    443.313
101.570   1630.000   1698.749    -68.749    443.013   1641.287    443.013    500.769    443.013
101.670   1566.635   1619.875    -53.240    442.714   1562.886    442.714    499.981    442.714
101.770   1541.000   1542.116     -1.116    442.415   1485.827    442.415    498.966    442.415
101.870   1449.000   1468.583    -19.583    442.117   1413.201    442.117    497.741    442.117
101.970   1468.000   1401.558     66.442    441.820   1347.269    441.820    496.332    441.820
102.070   1317.000   1342.460    -25.460    441.523   1289.424    441.523    494.764    441.523
102.170   1278.000   1291.867    -13.867    441.227   1240.218    441.227    493.065    441.227
102.270   1256.000   1249.580      6.420    440.932   1199.424    440.932    491.263    440.932
102.370   1250.000   1214.708     35.292    440.638   1166.124    440.638    489.385    440.638
102.470   1120.664   1185.779    -65.115    440.344   1138.822    440.344    487.455    440.344
102.570   1141.000   1160.898    -19.898    440.052   1115.601    440.052    485.496    440.052
102.670   1164.000   1137.939     26.061    439.760   1094.314    439.760    483.528    439.760
102.770   1155.000   1114.858     40.142    439.469   1072.898    439.469    481.569    439.469
102.870   1040.000   1089.905    -49.905    439.179   1049.589    439.179    479.633    439.179
102.970   1017.494   1061.879    -44.385    438.890   1023.172    438.890    477.732    438.890
103.070   1009.000   1030.254    -21.254    438.602    993.113    438.602    475.875    438.602
103.170    951.091    995.139    -44.048    438.315    959.511    438.315    474.070    438.315
103.270    908.714    957.126    -48.412    438.029    922.954    438.029    472.322    438.029
103.370    934.317    917.098     17.219    437.744    884.321    437.744    470.636    437.744
103.470    931.926    876.059     55.866    437.461    844.612    437.461    469.015    437.461
103.570    873.000    835.013     37.987    437.178    804.831    437.178    467.459    437.178
103.670    821.167    794.887     26.279    436.897    765.904    436.897    465.970    436.897
103.770    804.625    756.487     48.138    436.617    728.637    436.617    464.547    436.617
103.870    715.000    720.472     -5.472    436.338    693.690    436.338    463.191    436.338
103.970    697.245    687.338      9.907    436.061    661.561    436.061    461.900    436.061
104.070    616.420    657.415    -40.995    435.785    632.581    435.785    460.673    435.785
104.170    671.000    630.873     40.127    435.510    606.921    435.510    459.508    435.510
104.270    569.573    607.734    -38.161    435.237    584.607    435.237    458.403    435.237
104.370    563.838    587.902    -24.064    434.965    565.544    434.965    457.357    434.965
104.470    585.862    571.182     14.681    434.694    549.538    434.694    456.366    434.694
104.570    539.346    557.314    -17.968    434.426    536.335    434.426    455.428    434.426
104.670    519.000    546.004    -27.004    434.158    525.639    434.158    454.543    434.158
104.770    560.000    536.945     23.055    433.893    517.147    433.893    453.706    433.893
104.870    541.000    529.839     11.161    433.629    510.564    433.629    452.917    433.629
104.970    559.000    524.416     34.584    433.366    505.621    433.366    452.172    433.366
105.070    592.000    520.443     71.557    433.106    502.087    433.106    451.469    433.106
105.170    527.000    517.728      9.272    432.847    499.773    432.847    450.807    432.847
105.270    515.550    516.126     -0.576    432.590    498.536    432.590    450.184    432.590
105.370    534.000    515.535     18.465    432.335    498.275    432.335    449.597    432.335
105.470    549.000    515.895     33.105    432.081    498.931    432.081    449.045    432.081
105.570    534.000    517.179     16.821    431.830    500.481    431.830    448.526    431.830
105.670    555.505    519.394     36.111    431.580    502.932    431.580    448.038    431.580
105.770    530.000    522.567      7.433    431.333    506.314    431.333    447.580    431.333
105.870    502.415    526.745    -24.329    431.088    510.673    431.088    447.150    431.088
105.970    556.000    531.976     24.024    430.844    516.061    430.844    446.747    430.844
106.070    557.000    538.306     18.694    430.603    522.524    430.603    446.371    430.603
106.170    543.000    545.762     -2.762    430.364    530.090    430.364    446.019    430.364
106.270    535.000    554.343    -19.343    430.127    538.759    430.127    445.691    430.127
106.370    535.000    564.006    -29.006    429.892    548.489    429.892    445.386    429.892
106.470    588.330    574.664     13.666    429.659    559.194    429.659    445.103    429.659
106.570    576.000    586.176    -10.176    429.429    570.734    429.429    444.842    429.429
106.670    597.944    598.347     -0.402    429.201    582.915    429.201    444.601    429.201
106.770    570.000    610.930    -40.930    428.976    595.490    428.976    444.381    428.976
106.870    595.000    623.629    -28.629    428.753    608.164    428.753    444.182    428.753
106.970    580.000    636.103    -56.103    428.533    620.596    428.533    444.002    428.533
107.070    636.000    647.982    -11.982    428.315    632.417    428.315    443.841    428.315
107.170    613.000    658.885    -45.885    428.099    643.245    428.099    443.700    428.099
107.270    681.908    668.448     13.460    427.886    652.718    427.886    443.578    427.886
107.370    599.000    676.372    -77.372    427.676    660.537    427.676    443.475    427.676
107.470    674.000    682.461     -8.461    427.469    666.504    427.469    443.392    427.469
107.570    696.489    686.664      9.825    427.264    670.569    427.264    443.329    427.264
107.670    682.746    689.087     -6.341    427.062    672.838    427.062    443.285    427.062
107.770    688.022    689.986     -1.964    426.863    673.566    426.863    443.261    426.863
107.870    738.000    689.716     48.284    426.667    673.108    426.667    443.258    426.667
107.970    722.716    688.687     34.028    426.474    671.873    426.474    443.275    426.474
108.070    631.000    687.308    -56.308    426.283    670.269    426.283    443.314    426.283
108.170    706.000    685.932     20.068    426.096    668.650    426.096    443.375    426.096
108.270    695.219    684.842     10.378    425.912    667.296    425.912    443.459    425.912
108.370    679.000    684.220     -5.220    425.731    666.390    425.731    443.566    425.731
108.470    636.000    684.143    -48.143    425.553    666.008    425.553    443.698    425.553
108.570    726.074    684.580     41.494    425.378    666.117    425.378    443.855    425.378
108.670    643.419    685.387    -41.968    425.206    666.573    425.206    444.038    425.206
108.770    655.370    686.321    -30.950    425.038    667.132    425.038    444.249    425.038
108.870    690.000    687.050      2.950    424.873    667.462    424.873    444.488    424.873
108.970    702.000    687.207     14.793    424.711    667.191    424.711    444.757    424.711
109.070    717.835    686.399     31.436    424.553    665.928    424.553    445.057    424.553
109.170    655.000    684.273    -29.273    424.399    663.316    424.399    445.390    424.399
109.270    684.317    680.569      3.748    424.248    659.096    424.248    445.758    424.248
109.370    684.000    675.165      8.835    424.100    653.142    424.100    446.161    424.100
109.470    683.000    668.086     14.914    423.956    645.479    423.956    446.602    423.956
109.570    641.433    659.498    -18.065    423.816    636.269    423.816    447.083    423.816
109.670    660.000    649.666     10.334    423.679    625.778    423.679    447.606    423.679
109.770    668.000    638.920     29.080    423.547    614.331    423.547    448.172    423.547
109.870    683.000    627.608     55.392    423.418    602.276    423.418    448.785    423.418
109.970    615.974    616.075     -0.101    423.293    589.955    423.293    449.446    423.293
110.070    590.000    604.636    -14.636    423.172    577.681    423.172    450.158    423.172
110.170    591.000    593.573     -2.573    423.055    565.733    423.055    450.923    423.055
110.270    622.000    583.124     38.876    422.942    554.347    422.942    451.744    422.942
110.370    572.000    573.483     -1.483    422.833    543.714    422.833    452.624    422.833
110.470    546.421    564.796    -18.375    422.728    533.979    422.728    453.565    422.728
110.570    508.000    557.167    -49.167    422.627    525.242    422.627    454.570    422.627
110.670    603.000    550.654     52.346    422.531    517.557    422.531    455.643    422.531
110.770    579.000    545.276     33.724    422.439    510.942    422.439    456.785    422.439
110.870    565.985    541.022     24.964    422.351    505.382    422.351    458.001    422.351
110.970    512.377    537.849    -25.473    422.268    500.832    422.268    459.293    422.268
111.070    531.000    535.696     -4.696    422.189    497.227    422.189    460.664    422.189
111.170    509.000    534.483    -25.483    422.114    494.485    422.114    462.118    422.114
111.270    558.870    534.127     24.744    422.045    492.518    422.045    463.656    422.045
111.370    525.000    534.536     -9.536    421.979    491.235    421.979    465.283    421.979
111.470    567.000    535.623     31.377    421.919    490.543    421.919    467.000    421.919
111.570    548.425    537.304     11.121    421.863    490.356    421.863    468.811    421.863
111.670    573.988    539.502     34.486    421.812    490.596    421.812    470.718    421.812
111.770    568.000    542.149     25.851    421.766    491.191    421.766    472.723    421.766
111.870    565.000    545.185     19.815    421.725    492.081    421.725    474.828    421.725
111.970    519.000    548.563    -29.563    421.688    493.216    421.688    477.034    421.688
112.070    520.000    552.246    -32.246    421.657    494.558    421.657    479.343    421.657
112.170    552.000    556.208     -4.208    421.631    496.080    421.631    481.756    421.631
112.270    520.000    560.435    -40.435    421.610    497.770    421.610    484.272    421.610
112.370    527.303    564.925    -37.622    421.594    499.626    421.594    486.890    421.594
112.470    523.000    569.687    -46.687    421.583    501.658    421.583    489.610    421.583
112.570    520.000    574.741    -54.741    421.577    503.888    421.577    492.428    421.577
112.670    544.000    580.118    -36.118    421.577    506.352    421.577    495.341    421.577
112.770    547.760    585.859    -38.100    421.583    509.096    421.583    498.344    421.583
112.870    563.000    592.022    -29.022    421.594    512.184    421.594    501.430    421.594
112.970    570.000    598.679    -28.679    421.610    515.696    421.610    504.591    421.610
113.070    602.420    605.925     -3.505    421.632    519.737    421.632    507.817    421.632
113.170    573.000    613.884    -40.884    421.659    524.445    421.659    511.096    421.659
113.270    626.000    622.716      3.284    421.693    529.994    421.693    514.412    421.693
113.370    649.000    632.633     16.367    421.732    536.611    421.732    517.750    421.732
113.470    616.452    643.905    -27.453    421.777    544.589    421.777    521.088    421.777
113.570    625.491    656.881    -31.391    421.828    554.297    421.828    524.404    421.828
113.670    639.913    672.005    -32.093    421.884    566.206    421.884    527.673    421.884
113.770    668.000    689.834    -21.834    421.947    580.900    421.947    530.868    421.947
113.870    689.287    711.062    -21.774    422.016    599.102    422.016    533.957    422.016
113.970    726.000    736.537    -10.537    422.091    621.695    422.091    536.908    422.091
114.070    819.028    767.281     51.747    422.172    649.733    422.172    539.688    422.172
114.170    858.062    804.490     53.572    422.259    684.447    422.259    542.261    422.259
114.270    834.000    849.587    -15.587    422.353    727.294    422.353    544.594    422.353
114.370    856.000    904.239    -48.239    422.453    779.973    422.453    546.653    422.453
114.470   1003.318    970.229     33.089    422.560    844.299    422.560    548.408    422.560
114.570   1016.086   1049.536    -33.450    422.673    922.279    422.673    549.831    422.673
114.670   1141.950   1144.276     -2.326    422.793   1016.048    422.793    550.899    422.793
114.770   1245.000   1256.631    -11.631    422.919   1127.809    422.919    551.596    422.919
114.870   1411.251   1388.779     22.472    423.052   1259.748    423.052    551.911    423.052
114.970   1616.000   1542.786     73.214    423.192   1413.936    423.192    551.841    423.192
115.070   1758.020   1720.494     37.527    423.339   1592.211    423.339    551.389    423.339
115.170   1850.222   1923.384    -73.162    423.492   1796.046    423.492    550.567    423.492
115.270   2115.629   2152.437    -36.808    423.653   2026.403    423.653    549.390    423.653
115.370   2516.000   2407.985    108.015    423.821   2283.595    423.821    547.883    423.821
115.470   2655.000   2689.575    -34.575    423.995   2567.141    423.995    546.072    423.995
115.570   3054.000   2995.844     58.156    424.177   2875.650    424.177    543.989    424.177
115.670   3429.385   3324.415    104.970    424.367   3206.712    424.367    541.666    424.367
115.770   3693.000   3671.832     21.168    424.563   3556.839    424.563    539.138    424.563
115.870   4024.637   4033.527     -8.890    424.767   3921.429    424.767    536.441    424.767
115.970   4334.065   4403.827    -69.762    424.978   4294.776    424.978    533.607    424.978
116.070   4679.932   4776.010    -96.079    425.197   4670.130    425.197    530.670    425.197
116.170   5120.000   5142.407    -22.407    425.423   5039.789    425.423    527.660    425.423
116.270   5337.000   5494.549   -157.549    425.657   5395.259    425.657    524.604    425.657
116.370   5805.772   5823.388    -17.616    425.899   5727.465    425.899    521.530    425.899
116.470   6033.000   6119.587    -86.587    426.149   6027.050    426.149    518.458    426.149
116.570   6379.000   6373.917      5.083    426.406   6284.762    426.406    515.409    426.406
116.670   6585.446   6577.759      7.687    426.672   6491.964    426.672    512.401    426.672
116.770   6795.000   6723.703     71.297    426.945   6641.228    426.945    509.447    426.945
116.870   7014.000   6806.173    207.827    427.226   6726.964    427.226    506.561    427.226
116.970   6665.000   6821.978   -156.978    427.516   6745.965    427.516    503.753    427.516
117.070   6791.000   6770.654     20.346    427.814   6697.755    427.814    501.031    427.814
117.170   6703.000   6654.511     48.489    428.120   6584.633    428.120    498.401    428.120
117.270   6510.000   6478.370     31.630    428.434   6411.413    428.434    495.870    428.434
117.370   6187.000   6249.059    -62.059    428.757   6184.916    428.757    493.440    428.757
117.470   5819.000   5974.796   -155.796    429.089   5913.355    429.089    491.114    429.089
117.570   5671.000   5664.570      6.430    429.429   5605.718    429.429    488.894    429.429
117.670   5329.000   5327.601      1.399    429.777   5271.227    429.777    486.781    429.777
117.770   4978.000   4972.922      5.078    430.135   4918.912    430.135    484.775    430.135
117.870   4655.028   4609.049     45.979    430.501   4557.294    430.501    482.876    430.501
117.970   4180.000   4243.753    -63.753    430.876   4194.146    430.876    481.081    430.876
118.070   3948.000   3883.895     64.105    431.260   3836.330    431.260    479.391    431.260
118.170   3648.419   3535.314    113.106    431.653   3489.692    431.653    477.803    431.653
118.270   3268.000   3202.779     65.221    432.055   3159.003    432.055    476.316    432.055
118.370   2865.225   2889.977    -24.752    432.467   2847.957    432.467    474.925    432.467
118.470   2598.212   2599.554     -1.342    432.887   2559.201    432.887    473.631    432.887
118.570   2416.535   2333.184     83.350    433.317   2294.416    433.317    472.429    433.317
118.670   2094.000   2091.667      2.333    433.757   2054.404    433.757    471.316    433.757
118.770   1953.904   1875.046     78.858    434.206   1839.213    434.206    470.291    434.206
118.870   1612.000   1682.730    -70.730    434.664   1648.256    434.664    469.350    434.664
118.970   1469.000   1513.620    -44.620    435.132   1480.437    435.132    468.490    435.132
119.070   1337.000   1366.234    -29.234    435.610   1334.278    435.610    467.709    435.610
119.170   1199.000   1238.828    -39.828    436.098   1208.038    436.098    467.002    436.098
119.270   1175.000   1129.503     45.497    436.595   1099.819    436.595    466.369    436.595
119.370    982.000   1036.303    -54.303    437.103   1007.670    437.103    465.805    437.103
119.470   1029.000    957.294     71.706    437.620    929.659    437.620    465.309    437.620
119.570    929.000    890.628     38.372    438.148    863.940    438.148    464.877    438.148
119.670    817.000    834.586    -17.586    438.686    808.797    438.686    464.506    438.686
119.770    755.000    787.610    -32.610    439.234    762.672    439.234    464.195    439.234
119.870    800.453    748.313     52.139    439.792    724.183    439.792    463.941    439.792
119.970    698.000    715.486    -17.486    440.361    692.121    440.361    463.741    440.361
120.070    653.685    688.090    -34.405    440.941    665.449    440.941    463.593    440.941
120.170    703.000    665.245     37.755    441.531    643.290    441.531    463.496    441.531
120.270    629.000    646.216    -17.216    442.132    624.910    442.132    463.446    442.132
120.370    655.000    630.394     24.606    442.743    609.702    442.743    463.443    442.743
120.470    621.000    617.279      3.721    443.366    597.169    443.366    463.484    443.366
120.570    627.000    606.465     20.535    443.999    586.905    443.999    463.567    443.999
120.670    584.000    597.623    -13.623    444.643    578.584    444.643    463.691    444.643
120.770    629.398    590.485     38.914    445.299    571.938    445.299    463.854    445.299
120.870    573.000    584.836    -11.836    445.966    566.756    445.966    464.055    445.966
120.970    609.000    580.501     28.499    446.643    562.863    446.643    464.292    446.643
121.070    585.000    577.339      7.661    447.333    560.119    447.333    464.564    447.333
121.170    535.782    575.231    -39.449    448.034    558.408    448.034    464.869    448.034
121.270    574.000    574.078     -0.078    448.746    557.630    448.746    465.207    448.746
121.370    554.000    573.794    -19.794    449.470    557.703    449.470    465.576    449.470
121.470    555.000    574.304    -19.304    450.206    558.550    450.206    465.975    450.206
121.570    542.000    575.531    -33.531    450.953    560.098    450.953    466.403    450.953
121.670    566.000    577.377    -11.377    451.712    562.250    451.712    466.859    451.712
121.770    554.192    579.840    -25.649    452.484    565.003    452.484    467.343    452.484
121.870    610.000    582.821     27.179    453.267    568.260    453.267    467.852    453.267
121.970    580.000    586.240     -6.240    454.062    571.943    454.062    468.386    454.062
122.070    611.723    590.018     21.705    454.870    575.972    454.870    468.945    454.870
122.170    610.915    594.069     16.845    455.690    580.264    455.690    469.527    455.690
122.270    574.937    598.303    -23.366    456.523    584.728    456.523    470.132    456.523
122.370    590.163    602.623    -12.459    457.368    589.269    457.368    470.758    457.368
122.470    650.979    606.926     44.053    458.225    593.786    458.225    471.405    458.225
122.570    570.411    611.108    -40.697    459.096    598.174    459.096    472.072    459.096
122.670    617.000    615.060      1.940    459.979    602.325    459.979    472.759    459.979
122.770    641.000    618.676     22.324    460.875    606.134    460.875    473.464    460.875
122.870    626.000    621.854      4.146    461.783    609.500    461.783    474.186    461.783
122.970    625.000    624.501      0.499    462.705    612.331    462.705    474.926    462.705
123.070    660.578    626.539     34.039    463.640    614.550    463.640    475.682    463.640
123.170    649.000    627.910     21.090    464.589    616.099    464.589    476.454    464.589
123.270    602.601    628.579    -25.977    465.550    616.943    465.550    477.242    465.550
123.370    604.199    628.533    -24.335    466.525    617.071    466.525    478.044    466.525
123.470    633.000    627.788      5.212    467.514    616.497    467.514    478.860    467.514
123.570    671.606    626.375     45.231    468.516    615.256    468.516    479.690    468.516
123.670    667.316    624.346     42.969    469.532    613.398    469.532    480.534    469.532
123.770    640.000    621.766     18.234    470.562    610.988    470.562    481.392    470.562
123.870    588.020    618.705    -30.685    471.605    608.098    471.605    482.263    471.605
123.970    626.000    615.240     10.760    472.663    604.804    472.663    483.147    472.663
124.070    591.424    611.448    -20.024    473.734    601.183    473.734    484.045    473.734
124.170    612.354    607.405      4.949    474.820    597.311    474.820    484.957    474.820
124.270    652.000    603.185     48.815    475.920    593.263    475.920    485.882    475.920
124.370    582.848    598.856    -16.008    477.035    589.106    477.035    486.822    477.035
124.470    609.000    594.482     14.518    478.164    584.903    478.164    487.776    478.164
124.570    622.242    590.120     32.122    479.307    580.712    479.307    488.745    479.307
124.670    646.000    585.818     60.182    480.465    576.581    480.465    489.729    480.465
124.770    598.000    581.618     16.382    481.638    572.552    481.638    490.729    481.638
124.870    610.506    577.555     32.951    482.826    568.658    482.826    491.744    482.826
124.970    564.337    573.657     -9.321    484.029    564.929    484.029    492.776    484.029
