neutron_powder_diffraction_0174
R_wp: 3.969
Temperature (K): 1074.000
Counts: 83396.00
Wavelength (Ã…): 2.52098
COMMENTS
Test file for demonstrating the .xyy file format in Reel1.0
END OF HEADER
   tth       Y_obs     Y_calc      Y_res    Background    Phase_1_Nuc    Phase_1_Mag    Phase_2_Nuc    Phase_2_Mag
  9.970    617.000    570.971     46.029    570.274    570.915    570.274    570.331    570.274
 10.070    606.370    571.129     35.241    570.377    571.072    570.377    570.433    570.377
 10.170    592.000    571.288     20.712    570.473    571.231    570.473    570.530    570.473
 10.270    574.000    571.451      2.549    570.563    571.394    570.563    570.620    570.563
 10.370    602.000    571.619     30.381    570.647    571.562    570.647    570.704    570.647
 10.470    562.788    571.796     -9.008    570.725    571.738    570.725    570.782    570.725
 10.570    618.000    571.985     46.015    570.797    571.927    570.797    570.855    570.797
 10.670    615.000    572.191     42.809    570.863    572.132    570.863    570.921    570.863
 10.770    593.000    572.420     20.580    570.923    572.361    570.923    570.981    570.923
 10.870    579.000    572.680      6.320    570.977    572.620    570.977    571.036    570.977
 10.970    584.824    572.984     11.840    571.025    572.924    571.025    571.084    571.025
 11.070    540.000    573.348    -33.348    571.068    573.288    571.068    571.127    571.068
 11.170    555.767    573.799    -18.032    571.105    573.738    571.105    571.165    571.105
 11.270    606.000    574.375     31.625    571.137    574.313    571.137    571.196    571.137
 11.370    556.398    575.140    -18.742    571.163    575.078    571.163    571.223    571.163
 11.470    581.000    576.239      4.761    571.183    576.175    571.183    571.245    571.183
 11.570    557.181    578.077    -20.896    571.198    578.011    571.198    571.260    571.198
 11.670    614.000    581.828     32.172    571.207    581.760    571.207    571.270    571.207
 11.770    617.000    590.282     26.718    571.212    590.209    571.212    571.274    571.212
 11.870    653.000    608.026     44.974    571.211    607.943    571.211    571.273    571.211
 11.970    654.000    638.712     15.288    571.204    638.612    571.204    571.267    571.204
 12.070    634.000    678.442    -44.442    571.193    678.320    571.193    571.256    571.193
 12.170    696.000    709.774    -13.774    571.176    709.635    571.176    571.240    571.176
 12.270    692.543    710.777    -18.234    571.154    710.637    571.154    571.218    571.154
 12.370    671.000    680.524     -9.524    571.128    680.400    571.128    571.192    571.128
 12.470    632.910    640.563     -7.654    571.096    640.461    571.096    571.161    571.096
 12.570    613.981    609.123      4.858    571.059    609.037    571.059    571.124    571.059
 12.670    572.194    590.717    -18.523    571.018    590.641    571.018    571.083    571.018
 12.770    542.000    581.876    -39.876    570.972    581.805    570.972    571.037    570.972
 12.870    588.000    577.939     10.061    570.921    577.869    570.921    570.986    570.921
 12.970    553.375    576.008    -22.633    570.865    575.939    570.865    570.931    570.865
 13.070    570.346    574.849     -4.503    570.804    574.781    570.804    570.871    570.804
 13.170    614.068    574.036     40.032    570.739    573.968    570.739    570.806    570.739
 13.270    564.000    573.419     -9.419    570.670    573.350    570.670    570.737    570.670
 13.370    577.000    572.928      4.072    570.596    572.860    570.596    570.663    570.596
 13.470    583.000    572.527     10.473    570.517    572.458    570.517    570.585    570.517
 13.570    590.674    572.188     18.486    570.434    572.119    570.434    570.502    570.434
 13.670    598.856    571.896     26.960    570.347    571.827    570.347    570.415    570.347
 13.770    535.158    571.639    -36.481    570.255    571.570    570.255    570.324    570.255
 13.870    523.000    571.405    -48.405    570.159    571.335    570.159    570.228    570.159
 13.970    578.149    571.190      6.960    570.059    571.120    570.059    570.129    570.059
 14.070    577.530    570.988      6.542    569.955    570.918    569.955    570.025    569.955
 14.170    579.292    570.797      8.495    569.846    570.727    569.846    569.917    569.846
 14.270    562.000    570.615     -8.615    569.734    570.544    569.734    569.804    569.734
 14.370    581.887    570.440     11.446    569.617    570.369    569.617    569.688    569.617
 14.470    536.000    570.269    -34.269    569.497    570.197    569.497    569.568    569.497
 14.570    554.000    570.099    -16.099    569.372    570.027    569.372    569.444    569.372
 14.670    534.010    569.935    -35.925    569.244    569.858    569.244    569.321    569.244
 14.770    549.000    569.769    -20.769    569.112    569.690    569.112    569.191    569.112
 14.870    568.000    569.602     -1.602    568.976    569.523    568.976    569.055    568.976
 14.970    573.000    569.435      3.565    568.836    569.355    568.836    568.916    568.836
 15.070    535.712    569.267    -33.555    568.693    569.187    568.693    568.773    568.693
 15.170    594.000    569.099     24.901    568.546    569.018    568.546    568.626    568.546
 15.270    532.155    568.929    -36.773    568.395    568.848    568.395    568.476    568.395
 15.370    583.000    568.757     14.243    568.241    568.676    568.241    568.322    568.241
 15.470    539.000    568.584    -29.584    568.083    568.502    568.083    568.165    568.083
 15.570    567.640    568.409     -0.769    567.922    568.327    567.922    568.004    567.922
 15.670    607.796    568.232     39.564    567.758    568.149    567.758    567.840    567.758
 15.770    577.000    568.053      8.947    567.590    567.970    567.590    567.673    567.590
 15.870    554.000    567.872    -13.872    567.418    567.788    567.418    567.502    567.418
 15.970    604.478    567.688     36.790    567.244    567.604    567.244    567.328    567.244
 16.070    547.000    567.502    -20.502    567.066    567.418    567.066    567.150    567.066
 16.170    536.315    567.314    -30.999    566.885    567.229    566.885    566.970    566.885
 16.270    550.000    567.124    -17.124    566.700    567.038    566.700    566.786    566.700
 16.370    539.000    566.931    -27.931    566.513    566.844    566.513    566.599    566.513
 16.470    553.602    566.735    -13.133    566.323    566.649    566.323    566.409    566.323
 16.570    604.311    566.538     37.773    566.129    566.451    566.129    566.216    566.129
 16.670    545.567    566.338    -20.771    565.933    566.250    565.933    566.020    565.933
 16.770    564.000    566.135     -2.135    565.733    566.047    565.733    565.821    565.733
 16.870    559.000    565.933     -6.933    565.531    565.844    565.531    565.620    565.531
 16.970    550.000    565.726    -15.726    565.326    565.636    565.326    565.415    565.326
 17.070    553.000    565.516    -12.516    565.118    565.426    565.118    565.207    565.118
 17.170    532.000    565.304    -33.304    564.907    565.213    564.907    564.997    564.907
 17.270    554.704    565.089    -10.385    564.693    564.998    564.693    564.784    564.693
 17.370    570.000    564.872      5.128    564.477    564.780    564.477    564.568    564.477
 17.470    561.033    564.653     -3.619    564.258    564.561    564.258    564.350    564.258
 17.570    552.000    564.431    -12.431    564.036    564.339    564.036    564.129    564.036
 17.670    568.000    564.208      3.792    563.812    564.114    563.812    563.906    563.812
 17.770    571.116    563.982      7.134    563.585    563.888    563.585    563.680    563.585
 17.870    604.293    563.754     40.539    563.356    563.659    563.356    563.451    563.356
 17.970    528.000    563.524    -35.524    563.125    563.429    563.125    563.220    563.125
 18.070    553.000    563.292    -10.292    562.891    563.196    562.891    562.987    562.891
 18.170    531.000    563.057    -32.057    562.654    562.961    562.654    562.751    562.654
 18.270    561.000    562.821     -1.821    562.415    562.723    562.415    562.513    562.415
 18.370    559.000    562.583     -3.583    562.174    562.485    562.174    562.272    562.174
 18.470    544.182    562.343    -18.162    561.931    562.245    561.931    562.029    561.931
 18.570    578.256    562.101     16.155    561.685    562.001    561.685    561.785    561.685
 18.670    544.000    561.856    -17.856    561.437    561.756    561.437    561.537    561.437
 18.770    589.111    561.610     27.500    561.187    561.509    561.187    561.288    561.187
 18.870    606.695    561.362     45.333    560.935    561.260    560.935    561.037    560.935
 18.970    571.000    561.112      9.888    560.681    561.009    560.681    560.783    560.681
 19.070    591.000    560.860     30.140    560.425    560.757    560.425    560.528    560.425
 19.170    558.176    560.607     -2.431    560.166    560.503    560.166    560.270    560.166
 19.270    556.000    560.353     -4.353    559.906    560.248    559.906    560.011    559.906
 19.370    592.627    560.110     32.517    559.644    560.004    559.644    559.750    559.644
 19.470    602.499    559.862     42.637    559.380    559.755    559.380    559.486    559.380
 19.570    532.000    559.603    -27.603    559.114    559.496    559.114    559.222    559.114
 19.670    577.775    559.344     18.431    558.846    559.234    558.846    558.957    558.846
 19.770    579.222    559.083     20.140    558.576    558.970    558.576    558.689    558.576
 19.870    535.369    558.819    -23.450    558.305    558.705    558.305    558.418    558.305
 19.970    575.000    558.554     16.446    558.032    558.439    558.032    558.146    558.032
 20.070    558.267    558.287     -0.020    557.757    558.172    557.757    557.873    557.757
 20.170    538.947    558.020    -19.073    557.481    557.903    557.481    557.597    557.481
 20.270    564.000    557.751      6.249    557.203    557.634    557.203    557.320    557.203
 20.370    538.000    557.481    -19.481    556.923    557.363    556.923    557.042    556.923
 20.470    544.000    557.211    -13.211    556.642    557.091    556.642    556.762    556.642
 20.570    610.000    556.939     53.061    556.359    556.818    556.359    556.480    556.359
 20.670    562.023    556.667      5.356    556.075    556.545    556.075    556.197    556.075
 20.770    575.000    556.402     18.598    555.789    556.279    555.789    555.913    555.789
 20.870    591.000    556.216     34.784    555.502    556.091    555.502    555.627    555.502
 20.970    599.580    555.964     43.616    555.214    555.838    555.214    555.340    555.214
 21.070    570.000    555.691     14.309    554.924    555.564    554.924    555.051    554.924
 21.170    524.000    555.416    -31.416    554.633    555.287    554.633    554.761    554.633
 21.270    562.000    555.140      6.860    554.341    555.011    554.341    554.470    554.341
 21.370    542.352    554.865    -12.513    554.047    554.734    554.047    554.178    554.047
 21.470    540.748    554.589    -13.842    553.752    554.457    553.752    553.884    553.752
 21.570    572.000    554.316     17.684    553.456    554.182    553.456    553.590    553.456
 21.670    558.000    554.066      3.934    553.159    553.931    553.159    553.294    553.159
 21.770    572.740    553.827     18.913    552.860    553.690    552.860    552.997    552.860
 21.870    507.977    553.558    -45.580    552.561    553.419    552.561    552.699    552.561
 21.970    565.000    553.285     11.715    552.260    553.145    552.260    552.401    552.260
 22.070    596.060    553.015     43.045    551.959    552.873    551.959    552.101    551.959
 22.170    563.111    552.750     10.361    551.656    552.607    551.656    551.800    551.656
 22.270    541.337    552.529    -11.192    551.353    552.384    551.353    551.498    551.353
 22.370    554.000    552.284      1.716    551.048    552.137    551.048    551.196    551.048
 22.470    596.000    552.025     43.975    550.743    551.876    550.743    550.892    550.743
 22.570    553.575    551.768      1.806    550.436    551.617    550.436    550.588    550.436
 22.670    508.558    551.516    -42.959    550.129    551.363    550.129    550.283    550.129
 22.770    581.000    551.270     29.730    549.821    551.115    549.821    549.977    549.821
 22.870    550.000    551.032     -1.032    549.512    550.874    549.512    549.670    549.512
 22.970    542.000    550.802     -8.802    549.203    550.642    549.203    549.363    549.203
 23.070    551.492    550.583      0.909    548.892    550.420    548.892    549.055    548.892
 23.170    550.000    550.377     -0.377    548.581    550.212    548.581    548.747    548.581
 23.270    562.874    550.189     12.685    548.270    550.022    548.270    548.438    548.270
 23.370    533.000    550.024    -17.024    547.957    549.854    547.957    548.128    547.957
 23.470    554.000    549.887      4.113    547.644    549.714    547.644    547.818    547.644
 23.570    515.000    549.788    -34.788    547.331    549.612    547.331    547.507    547.331
 23.670    537.000    549.740    -12.740    547.017    549.562    547.017    547.196    547.017
 23.770    521.000    549.764    -28.764    546.702    549.583    546.702    546.885    546.702
 23.870    555.000    549.888      5.112    546.387    549.704    546.387    546.573    546.387
 23.970    593.000    550.170     42.830    546.071    549.982    546.071    546.261    546.071
 24.070    551.000    550.746      0.254    545.755    550.555    545.755    545.948    545.755
 24.170    513.211    552.003    -38.792    545.438    551.810    545.438    545.635    545.438
 24.270    576.000    554.962     21.038    545.121    554.767    545.121    545.322    545.121
 24.370    590.000    561.707     28.293    544.803    561.513    544.803    545.009    544.803
 24.470    585.000    575.051      9.949    544.486    574.862    544.486    544.696    544.486
 24.570    621.210    596.271     24.939    544.167    596.092    544.167    544.382    544.167
 24.670    642.000    621.151     20.849    543.849    620.987    543.849    544.069    543.849
 24.770    618.000    637.516    -19.516    543.530    637.358    543.530    543.756    543.530
 24.870    598.248    633.524    -35.276    543.211    633.358    543.211    543.442    543.211
 24.970    653.859    612.368     41.491    542.892    612.181    542.892    543.129    542.892
 25.070    656.000    587.405     68.595    542.573    587.193    542.573    542.816    542.573
 25.170    575.000    568.167      6.833    542.253    567.935    542.253    542.503    542.253
 25.270    586.000    556.684     29.316    541.933    556.436    541.933    542.190    541.933
 25.370    553.000    550.874      2.126    541.613    550.615    541.613    541.878    541.613
 25.470    566.000    548.074     17.926    541.293    547.804    541.293    541.566    541.293
 25.570    544.000    546.569     -2.569    540.973    546.290    540.973    541.254    540.973
 25.670    556.310    545.603     10.707    540.653    545.314    540.653    540.944    540.653
 25.770    578.000    544.895     33.105    540.333    544.596    540.333    540.633    540.333
 25.870    576.252    544.320     31.932    540.012    544.010    540.012    540.324    540.012
 25.970    579.379    543.846     35.533    539.692    543.524    539.692    540.015    539.692
 26.070    522.000    543.454    -21.454    539.372    543.119    539.372    539.707    539.372
 26.170    541.000    543.151     -2.151    539.052    542.803    539.052    539.400    539.052
 26.270    561.000    542.905     18.095    538.732    542.542    538.732    539.095    538.732
 26.370    534.539    542.691     -8.152    538.412    542.313    538.412    538.791    538.412
 26.470    555.000    542.521     12.479    538.092    542.125    538.092    538.488    538.092
 26.570    581.353    542.404     38.949    537.772    541.989    537.772    538.187    537.772
 26.670    611.000    542.346     68.654    537.453    541.910    537.453    537.888    537.453
 26.770    546.360    542.358      4.002    537.133    541.899    537.133    537.592    537.133
 26.870    508.000    542.462    -34.462    536.814    541.978    536.814    537.298    536.814
 26.970    503.800    542.679    -38.879    536.495    542.167    536.495    537.007    536.495
 27.070    544.908    543.001      1.907    536.176    542.458    536.176    536.719    536.176
 27.170    554.923    543.488     11.435    535.858    542.910    535.858    536.435    535.858
 27.270    567.380    544.200     23.180    535.540    543.583    535.540    536.156    535.540
 27.370    591.000    545.229     45.771    535.222    544.568    535.222    535.881    535.222
 27.470    511.296    546.742    -35.446    534.905    546.032    534.905    535.613    534.905
 27.570    502.000    549.179    -47.179    534.588    548.412    534.588    535.352    534.588
 27.670    656.000    554.032    101.968    534.271    553.199    534.271    535.100    534.271
 27.770    564.000    566.085     -2.085    533.954    565.174    533.954    534.857    533.954
 27.870    624.000    596.836     27.164    533.638    595.829    533.638    534.627    533.638
 27.970    613.775    663.198    -49.423    533.323    662.070    533.323    534.412    533.323
 28.070    750.000    771.535    -21.535    533.008    770.259    533.008    534.215    533.008
 28.170    858.649    891.226    -32.577    532.693    889.785    532.693    534.041    532.693
 28.270    983.000    950.199     32.801    532.379    948.592    532.379    533.895    532.379
 28.370    906.145    900.939      5.206    532.066    899.160    532.066    533.788    532.066
 28.470    764.367    794.372    -30.006    531.753    792.370    531.753    533.730    531.753
 28.570    689.000    711.506    -22.506    531.440    709.191    531.440    533.744    531.440
 28.670    658.764    694.547    -35.783    531.128    691.798    531.128    533.864    531.128
 28.770    698.054    739.379    -41.325    530.817    736.033    530.817    534.146    530.817
 28.870    770.126    807.045    -36.919    530.506    802.863    530.506    534.678    530.506
 28.970    804.324    838.911    -34.586    530.196    833.522    530.196    535.588    530.196
 29.070    838.674    800.119     38.555    529.886    792.981    529.886    537.039    529.886
 29.170    721.000    720.781      0.219    529.577    711.173    529.577    539.198    529.577
 29.270    632.000    647.513    -15.513    529.269    634.602    529.269    542.188    529.269
 29.370    656.000    601.526     54.474    528.962    584.518    528.962    545.973    528.962
 29.470    550.223    580.456    -30.233    528.655    558.955    528.655    550.155    528.655
 29.570    568.464    573.055     -4.591    528.349    547.684    528.349    553.718    528.349
 29.670    627.000    569.742     57.258    528.044    542.621    528.044    555.162    528.044
 29.770    535.646    565.751    -30.104    527.739    539.887    527.739    553.600    527.739
 29.870    572.000    560.375     11.625    527.435    538.106    527.435    549.701    527.435
 29.970    569.000    554.664     14.336    527.132    536.850    527.132    544.944    527.132
 30.070    575.000    549.598     25.402    526.830    535.979    526.830    540.447    526.830
 30.170    593.000    545.639     47.361    526.529    535.465    526.529    536.700    526.529
 30.270    601.000    542.985     58.015    526.228    535.422    526.228    533.789    526.228
 30.370    516.000    541.983    -25.983    525.929    536.294    525.929    531.614    525.929
 30.470    590.000    543.634     46.366    525.630    539.248    525.630    530.009    525.630
 30.570    582.000    549.912     32.088    525.332    546.421    525.332    528.810    525.332
 30.670    596.556    562.989     33.568    525.035    560.118    525.035    527.883    525.035
 30.770    599.000    582.645     16.355    524.739    580.215    524.739    527.132    524.739
 30.870    635.000    603.008     31.992    524.444    600.906    524.444    526.495    524.444
 30.970    564.244    612.266    -48.021    524.149    610.425    524.149    525.935    524.149
 31.070    623.046    602.611     20.435    523.856    600.992    523.856    525.430    523.856
 31.170    591.000    581.280      9.720    523.564    579.851    523.564    524.964    523.564
 31.270    574.000    560.076     13.924    523.272    558.803    523.272    524.529    523.272
 31.370    499.993    545.115    -45.122    522.982    543.971    522.982    524.119    522.982
 31.470    555.700    536.725     18.975    522.693    535.686    522.693    523.728    522.693
 31.570    564.000    532.648     31.352    522.405    531.697    522.405    523.353    522.405
 31.670    484.422    530.696    -46.273    522.117    529.819    522.117    522.992    522.117
 31.770    535.749    529.630      6.119    521.831    528.819    521.831    522.641    521.831
 31.870    559.000    528.941     30.059    521.546    528.186    521.546    522.300    521.546
 31.970    543.000    528.454     14.546    521.262    527.747    521.262    521.967    521.262
 32.070    557.499    528.108     29.390    520.979    527.445    520.979    521.642    520.979
 32.170    489.009    527.881    -38.872    520.697    527.256    520.697    521.322    520.697
 32.270    566.912    527.764     39.147    520.417    527.172    520.417    521.008    520.417
 32.370    532.264    527.759      4.505    520.137    527.197    520.137    520.698    520.137
 32.470    560.636    527.872     32.764    519.859    527.337    519.859    520.393    519.859
 32.570    544.405    528.122     16.284    519.582    527.610    519.582    520.092    519.582
 32.670    499.580    528.533    -28.953    519.305    528.043    519.305    519.795    519.305
 32.770    561.788    529.146     32.642    519.031    528.675    519.031    519.501    519.031
 32.870    510.000    530.015    -20.015    518.757    529.561    518.757    519.209    518.757
 32.970    546.000    531.224     14.776    518.484    530.786    518.484    518.921    518.484
 33.070    501.000    532.905    -31.905    518.213    532.481    518.213    518.636    518.213
 33.170    579.000    535.292     43.708    517.943    534.881    517.943    518.353    517.943
 33.270    582.480    538.935     43.545    517.674    538.535    517.674    518.072    517.674
 33.370    543.643    545.324     -1.682    517.407    544.934    517.407    517.794    517.407
 33.470    549.204    558.352     -9.148    517.140    557.970    517.140    517.517    517.140
 33.570    586.000    586.385     -0.385    516.875    586.007    516.875    517.243    516.875
 33.670    656.000    642.536     13.464    516.612    642.156    516.612    516.972    516.612
 33.770    721.000    738.523    -17.523    516.349    738.137    516.349    516.702    516.349
 33.870    829.000    870.329    -41.329    516.088    869.934    516.088    516.434    516.088
 33.970    983.521   1002.165    -18.644    515.828   1001.768    515.828    516.167    515.828
 34.070   1093.000   1066.661     26.339    515.570   1066.280    515.570    515.903    515.570
 34.170   1022.000   1018.193      3.807    515.313   1017.844    515.313    515.641    515.313
 34.270    937.000    892.500     44.500    515.057    892.178    515.057    515.380    515.057
 34.370    703.833    757.348    -53.515    514.802    757.040    514.802    515.121    514.802
 34.470    633.000    654.161    -21.161    514.549    653.857    514.549    514.864    514.549
 34.570    611.650    591.338     20.312    514.298    591.033    514.298    514.609    514.298
 34.670    579.000    558.817     20.183    514.047    558.512    514.047    514.355    514.047
 34.770    559.226    543.243     15.983    513.798    542.939    513.798    514.103    513.798
 34.870    520.000    535.427    -15.427    513.551    535.125    513.551    513.853    513.551
 34.970    525.000    530.850     -5.850    513.305    530.550    513.305    513.604    513.305
 35.070    501.000    527.711    -26.711    513.060    527.414    513.060    513.357    513.060
 35.170    519.000    525.346     -6.346    512.817    525.050    512.817    513.112    512.817
 35.270    521.000    523.477     -2.477    512.575    523.183    512.575    512.868    512.575
 35.370    514.000    521.958     -7.958    512.334    521.667    512.334    512.626    512.334
 35.470    542.000    520.699     21.301    512.095    520.409    512.095    512.385    512.095
 35.570    509.374    519.636    -10.261    511.858    519.347    511.858    512.147    511.858
 35.670    498.245    518.724    -20.479    511.622    518.436    511.622    511.910    511.622
 35.770    528.000    517.931     10.069    511.387    517.644    511.387    511.674    511.387
 35.870    520.268    517.233      3.035    511.154    516.947    511.154    511.440    511.154
 35.970    533.000    516.613     16.387    510.922    516.327    510.922    511.208    510.922
 36.070    536.000    516.057     19.943    510.692    515.772    510.692    510.978    510.692
 36.170    528.000    515.556     12.444    510.464    515.271    510.464    510.749    510.464
 36.270    503.827    515.102    -11.275    510.237    514.817    510.237    510.521    510.237
 36.370    503.042    514.690    -11.648    510.011    514.405    510.011    510.296    510.011
 36.470    502.000    514.316    -12.316    509.787    514.032    509.787    510.072    509.787
 36.570    534.000    513.980     20.020    509.564    513.695    509.564    509.849    509.564
 36.670    517.870    513.683      4.188    509.343    513.398    509.343    509.629    509.343
 36.770    505.000    513.431     -8.431    509.124    513.146    509.124    509.410    509.124
 36.870    515.000    513.246      1.754    508.906    512.960    508.906    509.192    508.906
 36.970    536.000    513.183     22.817    508.690    512.897    508.690    508.976    508.690
 37.070    477.222    513.373    -36.151    508.475    513.086    508.475    508.762    508.475
 37.170    501.000    514.054    -13.054    508.262    513.766    508.262    508.550    508.262
 37.270    503.000    515.549    -12.549    508.050    515.261    508.050    508.339    508.050
 37.370    528.000    518.110      9.890    507.840    517.821    507.840    508.130    507.840
 37.470    510.000    521.612    -11.612    507.632    521.323    507.632    507.923    507.632
 37.570    498.000    525.247    -27.247    507.425    524.957    507.425    507.717    507.425
 37.670    513.000    527.510    -14.510    507.219    527.221    507.219    507.513    507.219
 37.770    503.685    527.165    -23.480    507.016    526.877    507.016    507.311    507.016
 37.870    479.000    524.521    -45.521    506.814    524.234    506.814    507.110    506.814
 37.970    508.000    520.927    -12.927    506.613    520.640    506.613    506.911    506.613
 38.070    526.000    517.461      8.539    506.414    517.172    506.414    506.714    506.414
 38.170    479.604    514.584    -34.980    506.217    514.293    506.217    506.518    506.217
 38.270    488.000    512.429    -24.429    506.021    512.133    506.021    506.324    506.021
 38.370    492.000    510.936    -18.936    505.827    510.635    505.827    506.132    505.827
 38.470    470.603    509.944    -39.341    505.635    509.640    505.635    505.942    505.635
 38.570    514.000    509.288      4.712    505.444    508.980    505.444    505.753    505.444
 38.670    512.000    508.835      3.165    505.255    508.524    505.255    505.566    505.255
 38.770    512.000    508.495      3.505    505.068    508.182    505.068    505.381    505.068
 38.870    538.920    508.216     30.704    504.882    507.900    504.882    505.198    504.882
 38.970    501.000    507.971     -6.971    504.698    507.653    504.698    505.016    504.698
 39.070    502.578    507.747     -5.169    504.515    507.427    504.515    504.836    504.515
 39.170    513.000    507.539      5.461    504.334    507.216    504.334    504.658    504.334
 39.270    528.170    507.344     20.826    504.155    507.018    504.155    504.481    504.155
 39.370    535.723    507.160     28.563    503.978    506.831    503.978    504.307    503.978
 39.470    466.359    506.985    -40.626    503.802    506.653    503.802    504.134    503.802
 39.570    519.000    506.819     12.181    503.628    506.485    503.628    503.963    503.628
 39.670    522.000    506.662     15.338    503.455    506.325    503.455    503.793    503.455
 39.770    464.000    506.513    -42.513    503.284    506.172    503.284    503.626    503.284
 39.870    528.286    506.372     21.913    503.115    506.028    503.115    503.460    503.115
 39.970    476.000    506.240    -30.240    502.948    505.892    502.948    503.296    502.948
 40.070    538.000    506.116     31.884    502.782    505.764    502.782    503.133    502.782
 40.170    539.000    506.000     33.000    502.618    505.645    502.618    502.973    502.618
 40.270    514.000    505.894      8.106    502.455    505.536    502.455    502.814    502.455
 40.370    484.829    505.799    -20.970    502.295    505.436    502.295    502.658    502.295
 40.470    536.040    505.715     30.325    502.136    505.348    502.136    502.503    502.136
 40.570    443.000    505.643    -62.643    501.978    505.272    501.978    502.349    501.978
 40.670    483.000    505.586    -22.586    501.823    505.211    501.823    502.198    501.823
 40.770    524.000    505.545     18.455    501.669    505.166    501.669    502.049    501.669
 40.870    516.000    505.524     10.476    501.516    505.140    501.516    501.901    501.516
 40.970    499.000    505.526     -6.526    501.366    505.137    501.366    501.755    501.366
 41.070    470.000    505.555    -35.555    501.217    505.162    501.217    501.611    501.217
 41.170    541.253    505.619     35.635    501.070    505.220    501.070    501.469    501.070
 41.270    527.134    505.724     21.410    500.924    505.321    500.924    501.329    500.924
 41.370    511.000    505.884      5.116    500.781    505.475    500.781    501.190    500.781
 41.470    483.000    506.113    -23.113    500.639    505.699    500.639    501.054    500.639
 41.570    535.000    506.438     28.562    500.498    506.018    500.498    500.919    500.498
 41.670    523.496    506.906     16.590    500.360    506.481    500.360    500.787    500.360
 41.770    535.000    507.623     27.377    500.223    507.192    500.223    500.656    500.223
 41.870    527.533    508.842     18.691    500.087    508.405    500.087    500.527    500.087
 41.970    486.000    511.139    -25.139    499.954    510.697    499.954    500.400    499.954
 42.070    481.461    515.641    -34.180    499.822    515.194    499.822    500.275    499.822
 42.170    486.092    524.111    -38.019    499.692    523.660    499.692    500.152    499.692
 42.270    513.000    538.518    -25.518    499.563    538.067    499.563    500.031    499.563
 42.370    548.751    559.820    -11.069    499.437    559.372    499.437    499.912    499.437
 42.470    602.000    586.189     15.811    499.312    585.747    499.312    499.795    499.312
 42.570    642.888    611.501     31.387    499.188    611.066    499.188    499.679    499.188
 42.670    549.000    625.927    -76.927    499.067    625.494    499.067    499.566    499.067
 42.770    579.000    622.007    -43.007    498.947    621.567    498.947    499.455    498.947
 42.870    610.743    602.008      8.735    498.829    601.549    498.829    499.346    498.829
 42.970    536.205    575.251    -39.046    498.712    574.770    498.712    499.239    498.712
 43.070    541.000    550.328     -9.328    498.598    549.822    498.598    499.134    498.598
 43.170    563.000    531.566     31.434    498.485    531.038    498.485    499.031    498.485
 43.270    474.000    519.509    -45.509    498.373    518.963    498.373    498.931    498.373
 43.370    491.000    512.639    -21.639    498.263    512.077    498.263    498.832    498.263
 43.470    492.578    508.989    -16.412    498.155    508.413    498.155    498.736    498.155
 43.570    486.558    507.043    -20.485    498.049    506.453    498.049    498.642    498.049
 43.670    545.725    505.911     39.814    497.945    505.308    497.945    498.550    497.945
 43.770    530.000    505.165     24.835    497.842    504.549    497.842    498.460    497.842
 43.870    509.000    504.621      4.379    497.741    503.991    497.741    498.373    497.741
 43.970    532.000    504.201     27.799    497.641    503.556    497.641    498.287    497.641
 44.070    511.000    503.868      7.132    497.543    503.208    497.543    498.205    497.543
 44.170    558.000    503.601     54.399    497.447    502.924    497.447    498.125    497.447
 44.270    479.715    503.386    -23.670    497.353    502.692    497.353    498.047    497.353
 44.370    484.000    503.212    -19.212    497.260    502.501    497.260    497.971    497.260
 44.470    515.000    503.074     11.926    497.169    502.344    497.169    497.899    497.169
 44.570    491.237    502.965    -11.728    497.079    502.216    497.079    497.829    497.079
 44.670    483.000    502.882    -19.882    496.992    502.112    496.992    497.761    496.992
 44.770    510.000    502.821      7.179    496.905    502.030    496.905    497.697    496.905
 44.870    507.000    502.782      4.218    496.821    501.968    496.821    497.635    496.821
 44.970    486.000    502.762    -16.762    496.738    501.924    496.738    497.577    496.738
 45.070    519.000    502.761     16.239    496.657    501.897    496.657    497.521    496.657
 45.170    488.970    502.777    -13.807    496.578    501.886    496.578    497.469    496.578
 45.270    486.000    502.811    -16.811    496.500    501.891    496.500    497.420    496.500
 45.370    502.677    502.863     -0.186    496.424    501.913    496.424    497.374    496.424
 45.470    516.000    502.933     13.067    496.350    501.950    496.350    497.333    496.350
 45.570    526.000    503.022     22.978    496.277    502.004    496.277    497.295    496.277
 45.670    481.000    503.131    -22.131    496.206    502.076    496.206    497.261    496.206
 45.770    518.000    503.262     14.738    496.136    502.166    496.136    497.231    496.136
 45.870    469.000    503.415    -34.415    496.068    502.277    496.068    497.206    496.068
 45.970    480.629    503.595    -22.966    496.002    502.410    496.002    497.186    496.002
 46.070    476.000    503.803    -27.803    495.937    502.569    495.937    497.171    495.937
 46.170    521.000    504.044     16.956    495.874    502.756    495.874    497.162    495.874
 46.270    536.134    504.322     31.812    495.813    502.975    495.813    497.159    495.813
 46.370    509.076    504.643      4.433    495.753    503.233    495.753    497.163    495.753
 46.470    527.000    505.016     21.984    495.695    503.536    495.695    497.174    495.695
 46.570    511.000    505.450      5.550    495.639    503.895    495.639    497.193    495.639
 46.670    518.000    505.964     12.036    495.584    504.326    495.584    497.220    495.584
 46.770    471.000    506.585    -35.585    495.531    504.857    495.531    497.258    495.531
 46.870    513.000    507.375      5.625    495.479    505.545    495.479    497.306    495.479
 46.970    531.000    508.465     22.535    495.429    506.524    495.429    497.367    495.429
 47.070    527.832    510.136     17.696    495.380    508.071    495.380    497.442    495.380
 47.170    488.849    512.918    -24.068    495.333    510.713    495.333    497.532    495.333
 47.270    524.000    517.643      6.357    495.288    515.281    495.288    497.641    495.288
 47.370    524.000    525.328     -1.328    495.244    522.787    495.244    497.771    495.244
 47.470    510.000    536.750    -26.750    495.202    534.005    495.202    497.925    495.202
 47.570    589.000    551.757     37.243    495.161    548.777    495.161    498.109    495.161
 47.670    586.777    568.525     18.252    495.122    565.278    495.122    498.326    495.122
 47.770    585.000    583.168      1.832    495.085    579.616    495.085    498.584    495.085
 47.870    621.193    590.564     30.629    495.049    586.664    495.049    498.892    495.049
 47.970    576.000    587.702    -11.702    495.014    583.403    495.014    499.261    495.014
 48.070    608.000    576.639     31.361    494.982    571.868    494.982    499.710    494.982
 48.170    558.343    562.373     -4.030    494.950    557.030    494.950    500.263    494.950
 48.270    544.000    549.271     -5.271    494.920    543.209    494.920    500.961    494.920
 48.370    532.000    539.772     -7.772    494.892    532.780    494.892    501.871    494.892
 48.470    506.000    534.533    -28.533    494.865    526.291    494.865    503.098    494.865
 48.570    481.000    533.160    -52.160    494.840    523.190    494.840    504.804    494.840
 48.670    516.883    534.957    -18.074    494.816    522.547    494.816    507.221    494.816
 48.770    568.025    539.429     28.596    494.794    523.563    494.794    510.656    494.794
 48.870    558.911    546.460     12.451    494.773    525.761    494.773    515.468    494.773
 48.970    599.978    556.253     43.725    494.754    528.996    494.754    522.006    494.754
 49.070    534.000    569.224    -35.224    494.736    533.446    494.736    530.508    494.736
 49.170    628.873    586.034     42.839    494.720    539.798    494.720    540.948    494.720
 49.270    600.125    608.038     -7.914    494.705    549.904    494.705    552.829    494.705
 49.370    676.210    638.540     37.671    494.692    568.323    494.692    564.892    494.692
 49.470    698.000    685.229     12.771    494.680    604.960    494.680    574.921    494.680
 49.570    752.000    763.494    -11.494    494.670    677.945    494.670    580.171    494.670
 49.670    909.068    897.976     11.091    494.661    813.718    494.661    578.841    494.661
 49.770   1140.000   1116.507     23.493    494.653   1039.604    494.653    571.439    494.653
 49.870   1409.000   1432.216    -23.216    494.647   1366.368    494.647    560.342    494.647
 49.970   1737.644   1819.512    -81.868    494.642   1765.818    494.642    548.174    494.642
 50.070   2174.000   2198.895    -24.895    494.639   2156.641    494.639    536.768    494.639
 50.170   2499.000   2449.034     49.966    494.637   2416.582    494.637    527.057    494.637
 50.270   2355.000   2464.575   -109.575    494.637   2439.966    494.637    519.332    494.637
 50.370   2195.000   2235.152    -40.152    494.638   2216.465    494.638    513.498    494.638
 50.470   1874.722   1855.814     18.908    494.640   1841.396    494.640    509.260    494.640
 50.570   1420.879   1452.545    -31.666    494.644   1441.115    494.644    506.257    494.644
 50.670   1081.000   1115.709    -34.709    494.649   1106.351    494.649    504.148    494.649
 50.770    868.493    881.463    -12.970    494.656    873.565    494.656    502.652    494.656
 50.870    729.000    742.715    -13.715    494.664    735.880    494.664    501.566    494.664
 50.970    685.000    671.085     13.915    494.673    665.056    494.673    500.752    494.673
 51.070    604.000    636.164    -32.164    494.683    630.767    494.683    500.121    494.683
 51.170    594.173    615.924    -21.751    494.695    611.036    494.695    499.619    494.695
 51.270    561.000    599.219    -38.219    494.709    594.748    494.709    499.210    494.709
 51.370    631.000    583.082     47.918    494.723    578.956    494.723    498.874    494.723
 51.470    582.000    568.197     13.803    494.739    564.360    494.739    498.594    494.739
 51.570    539.881    555.783    -15.902    494.756    552.191    494.756    498.361    494.756
 51.670    523.478    546.460    -22.983    494.775    543.077    494.775    498.167    494.775
 51.770    550.000    540.141      9.859    494.795    536.936    494.795    498.005    494.795
 51.870    584.000    536.293     47.707    494.816    533.242    494.816    497.871    494.816
 51.970    529.916    534.273     -4.356    494.838    531.354    494.838    497.761    494.838
 52.070    562.000    533.563     28.437    494.862    530.757    494.862    497.671    494.862
 52.170    572.000    533.869     38.131    494.887    531.160    494.887    497.599    494.887
 52.270    542.000    535.140      6.860    494.913    532.512    494.913    497.543    494.913
 52.370    564.000    537.618     26.382    494.940    535.059    494.940    497.501    494.940
 52.470    577.359    542.007     35.353    494.969    539.505    494.969    497.472    494.969
 52.570    526.605    549.826    -23.221    494.999    547.372    494.999    497.454    494.999
 52.670    551.000    563.924    -12.924    495.030    561.508    495.030    497.447    495.030
 52.770    622.598    588.906     33.692    495.063    586.518    495.063    497.450    495.063
 52.870    631.000    630.967      0.033    495.096    628.601    495.096    497.462    495.096
 52.970    701.000    696.493      4.507    495.131    694.141    495.131    497.482    495.131
 53.070    775.000    789.107    -14.107    495.167    786.763    495.167    497.510    495.167
 53.170    945.192    905.716     39.475    495.204    903.377    495.204    497.545    495.204
 53.270   1051.000   1032.859     18.141    495.243   1030.521    495.243    497.588    495.243
 53.370   1137.000   1145.125     -8.125    495.282   1142.786    495.282    497.638    495.282
 53.470   1176.000   1209.774    -33.774    495.323   1207.433    495.323    497.695    495.323
 53.570   1179.000   1202.982    -23.982    495.365   1200.631    495.365    497.759    495.365
 53.670   1067.649   1127.738    -60.089    495.407   1125.364    495.407    497.830    495.407
 53.770   1031.919   1011.102     20.816    495.452   1008.694    495.452    497.907    495.452
 53.870    852.527    885.089    -32.562    495.497    882.635    495.497    497.992    495.497
 53.970    780.000    772.925      7.075    495.543    770.416    495.543    498.083    495.543
 54.070    717.000    685.951     31.049    495.591    683.382    495.591    498.181    495.591
 54.170    627.444    625.734      1.710    495.639    623.101    495.639    498.286    495.639
 54.270    609.000    587.887     21.113    495.689    585.185    495.689    498.399    495.689
 54.370    599.000    565.909     33.091    495.739    563.135    495.739    498.520    495.739
 54.470    604.000    553.854     50.146    495.791    551.000    495.791    498.649    495.791
 54.570    509.416    547.456    -38.040    495.844    544.516    495.844    498.787    495.844
 54.670    559.000    544.145     14.855    495.898    541.112    495.898    498.933    495.898
 54.770    568.446    542.565     25.881    495.953    539.430    495.953    499.089    495.953
 54.870    586.513    542.077     44.437    496.009    538.831    496.009    499.256    496.009
 54.970    529.364    542.404    -13.040    496.066    539.037    496.066    499.434    496.066
 55.070    552.000    543.443      8.557    496.124    539.945    496.124    499.623    496.124
 55.170    557.787    545.179     12.608    496.183    541.537    496.183    499.826    496.183
 55.270    559.000    547.648     11.352    496.243    543.850    496.243    500.043    496.243
 55.370    580.575    550.945     29.630    496.304    546.976    496.304    500.274    496.304
 55.470    509.529    555.242    -45.713    496.366    551.086    496.366    500.523    496.366
 55.570    589.000    560.870     28.130    496.429    556.510    496.429    500.790    496.429
 55.670    607.366    568.518     38.848    496.493    563.933    496.493    501.078    496.493
 55.770    541.767    579.671    -37.903    496.558    574.840    496.558    501.389    496.558
 55.870    561.648    597.449    -35.801    496.623    592.346    496.623    501.725    496.623
 55.970    603.713    627.916    -24.203    496.690    622.513    496.690    502.089    496.690
 56.070    645.000    681.569    -36.569    496.758    675.832    496.758    502.486    496.758
 56.170    751.000    774.054    -23.054    496.826    767.943    496.826    502.918    496.826
 56.270    940.637    924.453     16.184    496.896    917.926    496.896    503.392    496.896
 56.370   1108.000   1149.590    -41.590    496.966   1142.600    496.966    503.913    496.966
 56.470   1485.000   1454.371     30.629    497.037   1446.871    497.037    504.488    497.037
 56.570   1785.000   1820.821    -35.821    497.109   1812.765    497.109    505.125    497.109
 56.670   2202.000   2200.144      1.856    497.182   2191.483    497.182    505.834    497.182
 56.770   2588.000   2512.954     75.046    497.256   2503.634    497.256    506.628    497.256
 56.870   2639.000   2668.502    -29.502    497.331   2658.447    497.331    507.521    497.331
 56.970   2567.000   2612.322    -45.322    497.406   2601.414    497.406    508.533    497.406
 57.070   2308.833   2366.652    -57.819    497.482   2354.716    497.482    509.688    497.482
 57.170   2079.000   2011.783     67.217    497.560   1998.597    497.560    511.020    497.560
 57.270   1699.000   1635.702     63.298    497.637   1621.005    497.637    512.577    497.637
 57.370   1285.632   1302.312    -16.680    497.716   1285.789    497.716    514.430    497.716
 57.470   1053.563   1043.696      9.867    497.796   1024.936    497.796    516.693    497.796
 57.570    896.000    864.864     31.136    497.876    843.289    497.876    519.540    497.876
 57.670    751.014    753.963     -2.949    497.957    728.730    497.957    523.244    497.957
 57.770    722.276    693.161     29.114    498.039    663.018    498.039    528.211    498.039
 57.870    712.529    666.548     45.981    498.121    629.670    498.121    535.012    498.121
 57.970    694.000    663.809     30.191    498.204    617.614    498.204    544.400    498.204
 58.070    662.000    680.512    -18.512    498.288    621.516    498.288    557.274    498.288
 58.170    674.338    716.536    -42.198    498.373    640.301    498.373    574.587    498.373
 58.270    776.000    773.792      2.208    498.458    675.041    498.458    597.177    498.458
 58.370    805.982    853.849    -47.867    498.544    726.826    498.544    625.524    498.544
 58.470    928.000    955.782    -27.782    498.631    794.913    498.631    659.447    498.631
 58.570   1004.000   1074.428    -70.428    498.718    875.362    498.718    697.727    498.718
 58.670   1263.637   1199.609     64.029    498.806    960.750    498.806    737.610    498.806
 58.770   1331.000   1317.245     13.755    498.895   1041.783    498.895    774.313    498.895
 58.870   1470.008   1412.511     57.497    498.984   1110.320    498.984    801.146    498.984
 58.970   1542.572   1472.317     70.255    499.074   1159.922    499.074    811.460    499.074
 59.070   1499.000   1487.195     11.805    499.165   1184.111    499.165    802.260    499.165
 59.170   1541.000   1455.513     85.487    499.256   1178.498    499.256    776.298    499.256
 59.270   1398.000   1387.259     10.741    499.348   1146.510    499.348    740.127    499.348
 59.370   1381.000   1301.198     79.802    499.440   1100.176    499.440    700.481    499.440
 59.470   1201.548   1217.341    -15.793    499.533   1054.623    499.533    662.247    499.533
 59.570   1132.000   1152.788    -20.788    499.626   1024.109    499.626    628.267    499.626
 59.670   1132.000   1122.048      9.952    499.720   1021.859    499.720    599.828    499.720
 59.770   1203.000   1136.121     66.879    499.815   1058.650    499.815    577.154    499.815
 59.870   1160.615   1197.965    -37.350    499.910   1137.897    499.910    559.791    499.910
 59.970   1354.000   1297.992     56.008    500.005   1250.845    500.005    546.915    500.005
 60.070   1470.000   1412.677     57.323    500.101   1374.929    500.101    537.574    500.101
 60.170   1434.370   1507.106    -72.736    500.198   1476.152    500.198    530.866    500.198
 60.270   1611.000   1544.190     66.810    500.295   1518.191    500.295    526.031    500.295
 60.370   1539.000   1502.326     36.674    500.393   1480.016    500.393    522.491    500.393
 60.470   1443.650   1388.675     54.975    500.491   1369.183    500.491    519.836    500.491
 60.570   1190.000   1232.195    -42.195    500.589   1214.904    500.589    517.791    500.589
 60.670   1014.149   1066.134    -51.986    500.688   1050.592    500.688    516.184    500.688
 60.770    933.047    916.276     16.771    500.787    902.136    500.787    514.907    500.787
 60.870    836.000    797.106     38.894    500.887    784.088    500.887    513.898    500.887
 60.970    753.000    712.702     40.298    500.987    700.567    500.987    513.118    500.987
 61.070    686.000    660.215     25.785    501.088    648.753    501.088    512.544    501.088
 61.170    682.000    634.231     47.769    501.188    623.249    501.188    512.160    501.188
 61.270    643.020    630.422     12.598    501.290    619.744    501.290    511.948    501.290
 61.370    609.530    647.574    -38.044    501.391    637.044    501.391    511.890    501.391
 61.470    642.404    687.757    -45.353    501.493    677.249    501.493    511.953    501.493
 61.570    754.000    754.801     -0.801    501.596    744.233    501.596    512.093    501.596
 61.670    813.000    851.435    -38.435    501.698    840.794    501.698    512.239    501.698
 61.770    921.000    975.785    -54.785    501.801    965.151    501.801    512.306    501.801
 61.870   1115.000   1118.285     -3.285    501.905   1107.826    501.905    512.206    501.905
 61.970   1266.000   1260.088      5.912    502.008   1250.028    502.008    511.895    502.008
 62.070   1319.000   1374.217    -55.217    502.112   1364.769    502.112    511.389    502.112
 62.170   1332.000   1431.935    -99.935    502.216   1423.249    502.216    510.756    502.216
 62.270   1319.000   1415.780    -96.780    502.321   1407.920    502.321    510.075    502.321
 62.370   1288.000   1330.520    -42.520    502.426   1323.473    502.426    509.412    502.426
 62.470   1171.663   1199.722    -28.058    502.530   1193.420    502.530    508.808    502.530
 62.570   1017.000   1052.440    -35.440    502.636   1046.792    502.636    508.284    502.636
 62.670    925.000    912.736     12.264    502.741    907.640    502.741    507.849    502.741
 62.770    746.000    795.592    -49.592    502.847    790.953    502.847    507.501    502.847
 62.870    628.000    706.883    -78.883    502.952    702.619    502.952    507.230    502.952
 62.970    632.000    645.478    -13.478    503.058    641.519    503.058    507.026    503.058
 63.070    575.017    606.271    -31.254    503.164    602.563    503.164    506.876    503.164
 63.170    599.522    583.027     16.494    503.271    579.530    503.271    506.769    503.271
 63.270    591.000    570.300     20.700    503.377    566.980    503.377    506.695    503.377
 63.370    580.594    564.288     16.306    503.484    561.121    503.484    506.646    503.484
 63.470    572.000    562.951      9.049    503.591    559.918    503.591    506.616    503.591
 63.570    582.000    565.802     16.198    503.697    562.887    503.697    506.602    503.697
 63.670    550.941    573.628    -22.687    503.804    570.818    503.804    506.600    503.804
 63.770    568.000    588.222    -20.222    503.911    585.505    503.911    506.609    503.911
 63.870    582.000    612.003    -30.003    504.019    609.367    504.019    506.626    504.019
 63.970    683.630    647.406     36.224    504.126    644.839    504.126    506.651    504.126
 64.070    644.131    695.971    -51.840    504.233    693.462    504.233    506.682    504.233
 64.170    757.000    757.254     -0.254    504.340    754.795    504.340    506.719    504.340
 64.270    872.000    827.803     44.197    504.448    825.390    504.448    506.762    504.448
 64.370    922.000    900.494     21.506    504.555    898.123    504.555    506.810    504.555
 64.470   1046.000    964.751     81.249    504.663    962.426    504.663    506.863    504.663
 64.570   1038.291   1008.753     29.537    504.770   1006.482    504.770    506.919    504.770
 64.670   1072.000   1023.993     48.007    504.878   1021.783    504.878    506.980    504.878
 64.770   1013.000   1009.022      3.978    504.985   1006.879    504.985    507.044    504.985
 64.870    957.000    969.072    -12.072    505.092    966.996    505.092    507.112    505.092
 64.970    898.000    913.226    -15.226    505.200    911.214    505.200    507.182    505.200
 65.070    863.000    851.447     11.553    505.307    849.492    505.307    507.256    505.307
 65.170    803.000    791.876     11.124    505.414    789.969    505.414    507.333    505.414
 65.270    713.734    739.289    -25.555    505.522    737.421    505.522    507.412    505.522
 65.370    656.000    695.286    -39.286    505.629    693.449    505.629    507.493    505.629
 65.470    681.945    659.583     22.362    505.736    657.770    505.736    507.577    505.736
 65.570    620.236    631.255    -11.019    505.843    629.458    505.843    507.664    505.843
 65.670    590.000    609.265    -19.265    505.949    607.482    505.949    507.752    505.949
 65.770    592.000    592.592     -0.592    506.056    590.819    506.056    507.843    506.056
 65.870    551.000    580.297    -29.297    506.163    578.534    506.163    507.935    506.163
 65.970    546.000    571.589    -25.589    506.269    569.834    506.269    508.029    506.269
 66.070    526.000    565.818    -39.818    506.375    564.070    506.375    508.126    506.375
 66.170    578.479    562.451     16.028    506.481    560.709    506.481    508.224    506.481
 66.270    546.000    561.054    -15.054    506.587    559.318    506.587    508.324    506.587
 66.370    551.000    561.305    -10.305    506.693    559.573    506.693    508.426    506.693
 66.470    505.000    563.028    -58.028    506.798    561.298    506.798    508.529    506.798
 66.570    576.602    566.262     10.340    506.904    564.533    506.904    508.635    506.904
 66.670    546.000    571.388    -25.388    507.009    569.657    507.009    508.742    507.009
 66.770    579.000    579.334     -0.334    507.114    577.599    507.114    508.851    507.114
 66.870    586.078    591.927     -5.848    507.218    590.184    507.218    508.962    507.218
 66.970    557.000    612.357    -55.357    507.323    610.606    507.323    509.074    507.323
 67.070    654.000    645.687      8.313    507.427    643.923    507.427    509.189    507.427
 67.170    684.000    699.133    -15.133    507.530    697.352    507.530    509.305    507.530
 67.270    730.000    781.764    -51.764    507.634    779.965    507.634    509.423    507.634
 67.370    897.000    903.189     -6.189    507.737    901.369    507.737    509.544    507.737
 67.470   1096.000   1071.016     24.984    507.840   1069.178    507.840    509.666    507.840
 67.570   1344.694   1287.333     57.360    507.943   1285.482    507.943    509.791    507.943
 67.670   1547.000   1544.991      2.009    508.045   1543.134    508.045    509.918    508.045
 67.770   1904.130   1824.778     79.353    508.147   1822.929    508.147    510.048    508.147
 67.870   2120.000   2094.531     25.469    508.248   2092.703    508.248    510.180    508.248
 67.970   2342.000   2311.633     30.367    508.350   2309.839    508.350    510.315    508.350
 68.070   2465.747   2431.960     33.787    508.450   2430.202    508.450    510.453    508.450
 68.170   2382.000   2426.591    -44.591    508.551   2424.856    508.551    510.594    508.551
 68.270   2287.000   2297.000    -10.000    508.651   2295.258    508.651    510.738    508.651
 68.370   1986.570   2074.138    -87.568    508.750   2072.352    508.750    510.886    508.750
 68.470   1870.000   1802.492     67.508    508.850   1800.626    508.850    511.039    508.850
 68.570   1547.354   1523.978     23.376    508.948   1522.010    508.948    511.195    508.948
 68.670   1246.000   1269.693    -23.693    509.047   1267.607    509.047    511.356    509.047
 68.770   1045.635   1057.760    -12.125    509.145   1055.552    509.145    511.523    509.145
 68.870    910.000    894.426     15.574    509.242    892.095    509.242    511.695    509.242
 68.970    734.000    776.996    -42.996    509.339    774.546    509.339    511.873    509.339
 69.070    711.911    697.575     14.336    509.436    695.008    509.436    512.058    509.436
 69.170    630.000    646.524    -16.524    509.532    643.841    509.532    512.250    509.532
 69.270    652.298    614.895     37.403    509.627    612.095    509.627    512.451    509.627
 69.370    640.000    595.643     44.357    509.722    592.720    509.722    512.661    509.722
 69.470    612.000    583.857     28.143    509.817    580.804    509.817    512.881    509.817
 69.570    567.000    576.440     -9.440    509.911    573.247    509.911    513.112    509.911
 69.670    552.203    571.594    -19.391    510.004    568.247    510.004    513.357    510.004
 69.770    585.838    568.339     17.499    510.097    564.825    510.097    513.616    510.097
 69.870    574.000    566.171      7.829    510.189    562.473    510.189    513.891    510.189
 69.970    578.000    564.839     13.161    510.281    560.938    510.281    514.184    510.281
 70.070    600.702    564.226     36.476    510.372    560.100    510.372    514.499    510.372
 70.170    591.000    564.297     26.703    510.463    559.923    510.463    514.838    510.463
 70.270    574.000    565.086      8.914    510.553    560.434    510.553    515.203    510.553
 70.370    617.000    566.711     50.289    510.642    561.751    510.642    515.600    510.642
 70.470    605.000    569.440     35.560    510.731    564.134    510.731    516.034    510.731
 70.570    554.000    573.789    -19.789    510.819    568.092    510.819    516.511    510.819
 70.670    580.579    580.692     -0.113    510.906    574.552    510.906    517.039    510.906
 70.770    560.823    591.731    -30.908    510.993    585.083    510.993    517.630    510.993
 70.870    599.000    609.399    -10.399    511.079    602.163    511.079    518.297    511.079
 70.970    636.000    637.311     -1.311    511.165    629.384    511.165    519.064    511.165
 71.070    641.000    680.216    -39.216    511.249    671.459    511.249    519.965    511.249
 71.170    736.000    743.639     -7.639    511.333    733.859    511.333    521.054    511.333
 71.270    875.726    832.968     42.758    511.417    821.891    511.417    522.410    511.417
 71.370   1006.357    951.996     54.361    511.499    939.223    511.499    524.161    511.499
 71.470   1092.000   1101.091     -9.091    511.581   1086.045    511.581    526.486    511.581
 71.570   1199.000   1275.409    -76.409    511.663   1257.261    511.663    529.642    511.663
 71.670   1394.155   1463.624    -69.469    511.743   1441.211    511.743    533.966    511.743
 71.770   1671.000   1647.602     23.398    511.823   1619.352    511.823    539.873    511.823
 71.870   1814.975   1803.620     11.355    511.902   1767.491    511.902    547.836    511.902
 71.970   1828.499   1906.415    -77.916    511.980   1859.893    511.980    558.330    511.980
 72.070   1989.000   1937.091     51.909    512.058   1877.259    512.058    571.753    512.058
 72.170   1919.000   1891.809     27.191    512.134   1815.524    512.134    588.322    512.134
 72.270   1772.276   1783.933    -11.658    512.210   1688.133    512.210    607.949    512.210
 72.370   1656.419   1637.183     19.236    512.285   1519.310    512.285    630.124    512.285
 72.470   1444.000   1476.206    -32.206    512.359   1334.758    512.359    653.792    512.359
 72.570   1337.000   1320.580     16.420    512.433   1155.762    512.433    677.244    512.433
 72.670   1163.000   1182.541    -19.541    512.505    996.965    512.505    698.079    512.505
 72.770   1072.000   1066.995      5.005    512.577    866.154    512.577    713.415    512.577
 72.870    920.000    973.133    -53.133    512.648    765.202    512.648    720.574    512.648
 72.970    902.588    897.118      5.470    512.718    691.696    512.718    718.133    512.718
 73.070    876.523    834.679     41.844    512.787    640.833    512.787    706.626    512.787
 73.170    708.000    782.490    -74.490    512.855    607.084    512.855    688.254    512.855
 73.270    714.000    738.348    -24.348    512.923    585.363    512.923    665.902    512.923
 73.370    646.000    700.874    -54.874    512.989    571.617    512.989    642.241    512.989
 73.470    677.421    669.230      8.191    513.055    562.964    513.055    619.318    513.055
 73.570    599.000    642.921    -43.921    513.120    557.542    513.120    598.497    513.120
 73.670    609.000    621.612    -12.612    513.183    554.255    513.183    580.541    513.183
 73.770    611.000    604.987      6.013    513.246    552.509    513.246    565.729    513.246
 73.870    558.504    592.654    -34.150    513.308    551.992    513.308    553.979    513.308
 73.970    585.218    584.101      1.117    513.369    552.518    513.369    544.966    513.369
 74.070    587.590    578.710      8.881    513.429    553.913    513.429    538.244    513.429
 74.170    653.000    575.771     77.229    513.488    555.953    513.488    533.331    513.488
 74.270    577.000    574.523      2.477    513.546    558.320    513.546    529.780    513.546
 74.370    545.791    574.174    -28.383    513.603    560.600    513.603    527.215    513.603
 74.470    588.340    573.950     14.390    513.659    562.311    513.659    525.340    513.659
 74.570    540.030    573.175    -33.144    513.714    562.994    513.714    523.940    513.714
 74.670    593.000    571.412     21.588    513.769    562.362    513.769    522.863    513.769
 74.770    602.088    568.572     33.516    513.822    560.427    513.822    522.010    513.822
 74.870    607.000    564.905     42.095    513.874    557.504    513.874    521.313    513.874
 74.970    588.000    560.859     27.141    513.925    554.086    513.925    520.731    513.925
 75.070    625.000    556.951     68.049    513.975    550.717    513.975    520.235    513.975
 75.170    587.000    553.687     33.313    514.024    547.923    514.024    519.808    514.024
 75.270    619.000    551.552     67.448    514.071    546.201    514.071    519.437    514.071
 75.370    589.000    551.026     37.974    514.118    546.041    514.118    519.111    514.118
 75.470    551.000    552.607     -1.607    514.164    547.948    514.164    518.825    514.164
 75.570    573.908    556.815     17.093    514.209    552.448    514.209    518.572    514.209
 75.670    546.718    564.165    -17.448    514.252    560.060    514.252    518.348    514.252
 75.770    587.000    575.082     11.918    514.295    571.212    514.295    518.149    514.295
 75.870    626.000    589.769     36.231    514.336    586.110    514.336    517.971    514.336
 75.970    571.000    608.043    -37.043    514.376    604.575    514.376    517.813    514.376
 76.070    607.000    629.183    -22.183    514.416    625.886    514.416    517.671    514.416
 76.170    612.000    651.824    -39.824    514.454    648.684    514.454    517.544    514.454
 76.270    694.000    673.936     20.064    514.491    670.940    514.491    517.429    514.491
 76.370    692.000    692.919     -0.919    514.526    690.058    514.526    517.326    514.526
 76.470    689.682    705.936    -16.254    514.561    703.201    514.561    517.233    514.561
 76.570    738.000    710.611     27.389    514.594    707.996    514.594    517.149    514.594
 76.670    686.000    705.951    -19.951    514.627    703.451    514.627    517.073    514.627
 76.770    700.420    692.830      7.590    514.658    690.438    514.658    517.003    514.658
 76.870    651.000    673.548    -22.548    514.688    671.258    514.688    516.940    514.688
 76.970    629.000    650.921    -21.921    514.717    648.726    514.717    516.883    514.717
 77.070    625.000    627.555     -2.555    514.744    625.448    514.744    516.830    514.744
 77.170    652.644    605.489     47.155    514.771    603.463    514.771    516.782    514.771
 77.270    585.000    586.085     -1.085    514.796    584.134    514.796    516.738    514.796
 77.370    595.620    570.040     25.580    514.820    568.157    514.820    516.697    514.820
 77.470    541.000    557.482    -16.482    514.843    555.662    514.843    516.659    514.843
 77.570    520.000    548.129    -28.129    514.865    546.366    514.865    516.624    514.865
 77.670    527.000    541.460    -14.460    514.885    539.752    514.885    516.592    514.885
 77.770    524.000    536.877    -12.877    514.904    535.218    514.904    516.561    514.904
 77.870    553.517    533.810     19.707    514.922    532.198    514.922    516.533    514.922
 77.970    534.000    531.788      2.212    514.939    530.220    514.939    516.506    514.939
 78.070    562.559    530.456     32.103    514.954    528.928    514.954    516.481    514.954
 78.170    573.634    529.566     44.068    514.968    528.077    514.968    516.457    514.968
 78.270    547.000    528.960     18.040    514.981    527.506    514.981    516.434    514.981
 78.370    497.000    528.542    -31.542    514.993    527.122    514.993    516.412    514.993
 78.470    549.000    528.260     20.740    515.003    526.871    515.003    516.391    515.003
 78.570    509.000    528.091    -19.091    515.012    526.731    515.012    516.372    515.012
 78.670    556.406    528.028     28.378    515.020    526.695    515.020    516.353    515.020
 78.770    537.000    528.061      8.939    515.026    526.752    515.026    516.335    515.026
 78.870    551.000    528.219     22.781    515.032    526.932    515.032    516.318    515.032
 78.970    488.000    528.557    -40.557    515.036    527.289    515.036    516.303    515.036
 79.070    565.000    529.082     35.918    515.038    527.830    515.038    516.289    515.038
 79.170    510.000    529.819    -19.819    515.039    528.580    515.039    516.277    515.039
 79.270    531.543    530.795      0.747    515.039    529.564    515.039    516.268    515.039
 79.370    528.000    532.036     -4.036    515.038    530.808    515.038    516.263    515.038
 79.470    506.975    533.567    -26.591    515.035    532.338    515.035    516.261    515.035
 79.570    533.426    535.423     -1.997    515.031    534.187    515.031    516.264    515.031
 79.670    500.659    537.661    -37.001    515.026    536.410    515.026    516.273    515.026
 79.770    544.000    540.369      3.631    515.019    539.097    515.019    516.287    515.019
 79.870    532.000    543.697    -11.697    515.011    542.397    515.011    516.307    515.011
 79.970    566.000    547.872     18.128    515.002    546.537    515.002    516.332    515.002
 80.070    557.000    553.223      3.777    514.991    551.848    514.991    516.362    514.991
 80.170    553.212    560.178     -6.966    514.979    558.760    514.979    516.395    514.979
 80.270    557.000    569.215    -12.215    514.966    567.752    514.966    516.429    514.966
 80.370    542.000    580.770    -38.770    514.951    579.265    514.951    516.458    514.951
 80.470    618.393    595.122     23.271    514.934    593.582    514.934    516.480    514.934
 80.570    652.707    612.290     40.418    514.917    610.727    514.917    516.489    514.917
 80.670    662.000    631.943     30.057    514.898    630.376    514.898    516.480    514.898
 80.770    698.451    653.362     45.088    514.878    651.811    514.878    516.450    514.878
 80.870    603.000    675.453    -72.453    514.856    673.937    514.856    516.399    514.856
 80.970    724.000    696.864     27.136    514.833    695.401    514.833    516.329    514.833
 81.070    659.000    716.179    -57.179    514.808    714.782    514.808    516.247    514.808
 81.170    709.000    732.110    -23.110    514.782    730.785    514.782    516.156    514.782
 81.270    763.244    743.609     19.635    514.755    742.357    514.755    516.061    514.755
 81.370    715.362    749.952    -34.590    514.726    748.772    514.726    515.966    514.726
 81.470    751.000    750.822      0.178    514.696    749.709    514.696    515.874    514.696
 81.570    817.000    746.328     70.672    514.664    745.275    514.664    515.786    514.664
 81.670    727.000    736.954     -9.954    514.631    735.954    514.631    515.703    514.631
 81.770    766.443    723.536     42.906    514.597    722.580    514.597    515.625    514.597
 81.870    701.159    707.224     -6.065    514.561    706.303    514.561    515.552    514.561
 81.970    691.550    689.324      2.226    514.524    688.431    514.524    515.484    514.524
 82.070    647.000    671.028    -24.028    514.485    670.158    514.485    515.420    514.485
 82.170    603.051    653.198    -50.147    514.445    652.345    514.445    515.359    514.445
 82.270    636.000    636.313     -0.313    514.403    635.472    514.403    515.301    514.403
 82.370    633.264    620.581     12.683    514.360    619.748    514.360    515.244    514.360
 82.470    593.000    606.106    -13.106    514.316    605.279    514.316    515.189    514.316
 82.570    581.000    593.018    -12.018    514.270    592.194    514.270    515.134    514.270
 82.670    569.000    581.494    -12.494    514.222    580.671    514.222    515.079    514.222
 82.770    599.307    571.719     27.587    514.174    570.896    514.174    515.024    514.174
 82.870    593.000    563.850     29.150    514.123    563.025    514.123    514.968    514.123
 82.970    533.857    557.999    -24.142    514.072    557.171    514.072    514.912    514.072
 83.070    550.784    554.223     -3.438    514.018    553.391    514.018    514.855    514.018
 83.170    575.095    552.507     22.588    513.964    551.671    513.964    514.797    513.964
 83.270    565.000    552.747     12.253    513.908    551.907    513.908    514.738    513.908
 83.370    545.498    554.732     -9.234    513.850    553.887    513.850    514.678    513.850
 83.470    532.000    558.132    -26.132    513.791    557.282    513.791    514.617    513.791
 83.570    540.836    562.498    -21.662    513.731    561.643    513.731    514.555    513.731
 83.670    542.000    567.277    -25.277    513.669    566.418    513.669    514.491    513.669
 83.770    559.644    571.835    -12.191    513.605    570.972    513.605    514.427    513.605
 83.870    565.718    575.505     -9.786    513.540    574.639    513.540    514.362    513.540
 83.970    529.000    577.679    -48.679    513.474    576.812    513.474    514.295    513.474
 84.070    621.000    577.928     43.072    513.406    577.063    513.406    514.228    513.406
 84.170    591.491    576.123     15.369    513.337    575.259    513.337    514.159    513.337
 84.270    592.000    572.462     19.538    513.266    571.602    513.266    514.089    513.266
 84.370    598.365    567.393     30.972    513.194    566.537    513.194    514.018    513.194
 84.470    561.000    561.472     -0.472    513.120    560.619    513.120    513.945    513.120
 84.570    566.268    555.241     11.027    513.045    554.391    513.045    513.872    513.045
 84.670    529.000    549.166    -20.166    512.968    548.319    512.968    513.797    512.968
 84.770    551.000    543.597      7.403    512.890    542.752    512.890    513.721    512.890
 84.870    541.000    538.760      2.240    512.811    537.915    512.811    513.644    512.811
 84.970    522.400    534.763    -12.363    512.729    533.918    512.729    513.566    512.729
 85.070    540.318    531.615      8.703    512.647    530.768    512.647    513.487    512.647
 85.170    531.000    529.255      1.745    512.563    528.407    512.563    513.406    512.563
 85.270    527.000    527.583     -0.583    512.477    526.732    512.477    513.324    512.477
 85.370    525.589    526.486     -0.897    512.390    525.630    512.390    513.241    512.390
 85.470    561.522    525.860     35.662    512.302    525.000    512.302    513.157    512.302
 85.570    485.238    525.629    -40.391    512.212    524.764    512.212    513.072    512.212
 85.670    561.000    525.753     35.247    512.120    524.882    512.120    512.986    512.120
 85.770    565.000    526.229     38.771    512.028    525.352    512.028    512.898    512.028
 85.870    470.000    527.102    -57.102    511.933    526.218    511.933    512.810    511.933
 85.970    531.885    528.457      3.428    511.837    527.565    511.837    512.720    511.837
 86.070    548.000    530.422     17.578    511.740    529.520    511.740    512.629    511.740
 86.170    516.000    533.158    -17.158    511.641    532.247    511.641    512.537    511.641
 86.270    508.000    536.850    -28.850    511.541    535.926    511.541    512.444    511.541
 86.370    532.000    541.681     -9.681    511.439    540.744    511.439    512.350    511.439
 86.470    502.793    547.808    -45.015    511.336    546.856    511.336    512.254    511.336
 86.570    549.000    555.327     -6.327    511.231    554.358    511.231    512.158    511.231
 86.670    556.000    564.229     -8.229    511.125    563.240    511.125    512.061    511.125
 86.770    585.000    574.364     10.636    511.018    573.354    511.018    511.962    511.018
 86.870    606.870    585.411     21.459    510.909    584.380    510.909    511.863    510.909
 86.970    606.000    596.865      9.135    510.798    595.811    510.798    511.763    510.798
 87.070    610.000    608.036      1.964    510.686    606.962    510.686    511.662    510.686
 87.170    609.000    618.088     -9.088    510.573    616.994    510.573    511.560    510.573
 87.270    650.000    626.109     23.891    510.458    624.997    510.458    511.457    510.458
 87.370    666.000    631.254     34.746    510.342    630.128    510.342    511.353    510.342
 87.470    643.000    632.944     10.056    510.224    631.808    510.224    511.248    510.224
 87.570    651.000    631.035     19.965    510.105    629.892    510.105    511.142    510.105
 87.670    695.000    625.852     69.148    509.984    624.704    509.984    511.036    509.984
 87.770    644.589    618.122     26.467    509.862    616.971    509.862    510.929    509.862
 87.870    586.748    608.764    -22.017    509.739    607.612    509.739    510.822    509.739
 87.970    606.000    598.734      7.266    509.614    597.577    509.614    510.713    509.614
 88.070    575.000    588.935    -13.935    509.488    587.774    509.488    510.604    509.488
 88.170    533.902    580.152    -46.250    509.360    578.985    509.360    510.495    509.360
 88.270    593.000    573.006     19.994    509.231    571.830    509.231    510.385    509.231
 88.370    587.000    567.927     19.073    509.100    566.740    509.100    510.275    509.100
 88.470    603.000    565.147     37.853    508.968    563.948    508.968    510.164    508.968
 88.570    561.270    564.703     -3.433    508.835    563.490    508.835    510.054    508.835
 88.670    632.000    566.450     65.550    508.700    565.221    508.700    509.943    508.700
 88.770    555.000    570.074    -15.074    508.564    568.828    508.564    509.832    508.564
 88.870    551.285    575.116    -23.831    508.426    573.851    508.426    509.721    508.426
 88.970    555.000    580.994    -25.994    508.287    579.709    508.287    509.610    508.287
 89.070    568.768    587.034    -18.266    508.146    585.726    508.146    509.500    508.146
 89.170    624.000    592.506     31.494    508.005    591.173    508.005    509.390    508.005
 89.270    599.000    596.689      2.311    507.862    595.328    507.862    509.280    507.862
 89.370    593.000    598.965     -5.965    507.717    597.573    507.717    509.171    507.717
 89.470    642.688    598.936     43.752    507.571    597.508    507.571    509.064    507.571
 89.570    565.000    596.516    -31.516    507.424    595.047    507.424    508.957    507.424
 89.670    546.037    591.941    -45.903    507.275    590.426    507.275    508.852    507.275
 89.770    554.392    585.684    -31.292    507.125    584.119    507.125    508.748    507.125
 89.870    580.000    578.330      1.670    506.974    576.710    506.974    508.647    506.974
 89.970    559.000    570.467    -11.467    506.821    568.787    506.821    508.548    506.821
 90.070    580.000    562.619     17.381    506.667    560.874    506.667    508.451    506.667
 90.170    521.000    555.206    -34.206    506.512    553.392    506.512    508.358    506.512
 90.270    534.000    548.531    -14.531    506.355    546.643    506.355    508.269    506.355
 90.370    504.000    542.780    -38.780    506.197    540.813    506.197    508.185    506.197
 90.470    518.000    538.031    -20.031    506.038    535.979    506.038    508.106    506.038
 90.570    513.000    534.275    -21.275    505.877    532.129    505.877    508.034    505.877
 90.670    516.000    531.439    -15.439    505.715    529.191    505.715    507.971    505.715
 90.770    502.982    529.417    -26.435    505.552    527.055    505.552    507.919    505.552
 90.870    511.000    528.091    -17.091    505.388    525.600    505.388    507.882    505.388
 90.970    518.000    527.351     -9.351    505.222    524.712    505.222    507.862    505.222
 91.070    504.000    527.113    -23.113    505.055    524.301    505.055    507.867    505.055
 91.170    556.000    527.327     28.673    504.887    524.311    504.887    507.902    504.887
 91.270    512.000    527.984    -15.984    504.717    524.721    504.717    507.979    504.717
 91.370    537.933    529.120      8.813    504.546    525.556    504.546    508.107    504.546
 91.470    515.942    530.812    -14.870    504.374    526.880    504.374    508.302    504.374
 91.570    567.554    533.152     34.402    504.201    528.766    504.201    508.581    504.201
 91.670    552.974    536.382     16.592    504.026    531.437    504.026    508.964    504.026
 91.770    535.000    540.704     -5.704    503.851    535.070    503.851    509.474    503.851
 91.870    502.700    546.339    -43.639    503.674    539.865    503.674    510.135    503.674
 91.970    551.000    553.536     -2.536    503.496    546.045    503.496    510.970    503.496
 92.070    556.000    562.534     -6.534    503.316    553.824    503.316    512.004    503.316
 92.170    561.055    573.532    -12.477    503.136    563.384    503.136    513.257    503.136
 92.270    621.649    586.669     34.980    502.954    574.848    502.954    514.742    502.954
 92.370    523.000    601.976    -78.976    502.771    588.241    502.771    516.467    502.771
 92.470    614.000    619.360     -5.360    502.587    603.477    502.587    518.424    502.587
 92.570    609.000    638.584    -29.584    502.402    620.336    502.402    520.597    502.402
 92.670    674.816    659.247     15.569    502.216    638.452    502.216    522.950    502.216
 92.770    662.808    680.782    -17.974    502.028    657.314    502.028    525.430    502.028
 92.870    736.469    702.478     33.992    501.840    676.286    501.840    527.959    501.840
 92.970    732.280    723.529      8.751    501.650    694.666    501.650    530.438    501.650
 93.070    714.000    743.142    -29.142    501.459    711.783    501.459    532.740    501.459
 93.170    709.000    760.665    -51.665    501.267    727.134    501.267    534.719    501.267
 93.270    766.000    775.706     -9.706    501.075    740.484    501.075    536.219    501.075
 93.370    830.000    788.168     41.832    500.880    751.876    500.880    537.095    500.880
 93.470    826.000    798.212     27.788    500.685    761.574    500.685    537.249    500.685
 93.570    808.854    806.168      2.685    500.489    769.940    500.489    536.645    500.489
 93.670    894.000    812.455     81.545    500.292    777.348    500.292    535.329    500.292
 93.770    833.000    817.578     15.422    500.094    784.197    500.094    533.408    500.094
 93.870    883.000    822.141     60.859    499.895    790.942    499.895    531.030    499.895
 93.970    805.901    826.822    -20.921    499.694    798.104    499.694    528.350    499.694
 94.070    837.000    832.287      4.713    499.493    806.206    499.493    525.514    499.493
 94.170    822.833    839.026    -16.193    499.291    815.614    499.291    522.645    499.291
 94.270    850.000    847.182      2.818    499.088    826.376    499.088    519.838    499.088
 94.370    879.000    856.446     22.554    498.884    838.110    498.884    517.167    498.884
 94.470    840.000    866.029    -26.029    498.678    849.974    498.678    514.684    498.678
 94.570    939.000    874.722     64.278    498.472    860.729    498.472    512.420    498.472
 94.670    932.000    881.028     50.972    498.265    868.861    498.265    510.394    498.265
 94.770    881.000    883.386     -2.386    498.057    872.805    498.057    508.607    498.057
 94.870    903.821    880.464     23.358    497.849    871.236    497.849    507.053    497.849
 94.970    930.000    871.477     58.523    497.639    863.385    497.639    505.716    497.639
 95.070    906.000    856.411     49.589    497.428    849.256    497.428    504.577    497.428
 95.170    869.000    836.032     32.968    497.217    829.638    497.217    503.612    497.217
 95.270    769.001    811.722    -42.721    497.005    805.938    497.005    502.795    497.005
 95.370    796.000    785.226     10.774    496.792    779.923    496.792    502.105    496.792
 95.470    768.000    758.424      9.576    496.578    753.496    496.578    501.518    496.578
 95.570    783.000    733.178     49.822    496.363    728.538    496.363    501.014    496.363
 95.670    727.767    711.237     16.530    496.147    706.815    496.147    500.579    496.147
 95.770    669.319    694.182    -24.864    495.931    689.922    495.931    500.196    495.931
 95.870    679.000    683.405     -4.405    495.714    679.263    495.714    499.857    495.714
 95.970    695.137    680.087     15.050    495.496    676.027    495.496    499.550    495.496
 96.070    650.958    685.261    -34.303    495.278    681.253    495.278    499.271    495.278
 96.170    699.000    699.726     -0.726    495.058    695.747    495.058    499.014    495.058
 96.270    773.000    724.070     48.930    494.838    720.100    494.838    498.774    494.838
 96.370    770.000    758.626     11.374    494.617    754.649    494.617    498.551    494.617
 96.470    798.000    803.398     -5.398    494.396    799.398    494.396    498.341    494.396
 96.570    835.643    857.959    -22.316    494.174    853.923    494.174    498.144    494.174
 96.670    946.118    921.358     24.760    493.951    917.274    493.951    497.959    493.951
 96.770   1050.586    992.026     58.559    493.728    987.885    493.728    497.785    493.728
 96.870    989.000   1067.723    -78.723    493.504   1063.514    493.504    497.622    493.504
 96.970   1120.389   1145.518    -25.129    493.279   1141.232    493.279    497.470    493.279
 97.070   1216.903   1221.829     -4.926    493.054   1217.459    493.054    497.330    493.054
 97.170   1308.119   1292.547     15.572    492.828   1288.085    492.828    497.202    492.828
 97.270   1288.000   1353.274    -65.274    492.602   1348.710    492.602    497.086    492.602
 97.370   1426.000   1399.740     26.260    492.375   1395.067    492.375    496.983    492.375
 97.470   1409.000   1428.406    -19.406    492.148   1423.613    492.148    496.895    492.148
 97.570   1441.000   1437.112      3.888    491.920   1432.184    491.920    496.822    491.920
 97.670   1482.420   1425.498     56.923    491.691   1420.418    491.691    496.766    491.691
 97.770   1416.000   1395.037     20.963    491.462   1389.785    491.462    496.731    491.462
 97.870   1341.000   1348.647     -7.647    491.233   1343.197    491.233    496.717    491.233
 97.970   1288.000   1290.118     -2.118    491.003   1284.439    491.003    496.730    491.003
 98.070   1261.000   1223.584     37.416    490.773   1217.642    490.773    496.772    490.773
 98.170   1162.000   1153.154      8.846    490.543   1146.905    490.543    496.854    490.543
 98.270   1126.836   1082.658     44.178    490.312   1076.050    490.312    496.983    490.312
 98.370   1027.716   1015.508     12.208    490.080   1008.478    490.080    497.172    490.080
 98.470    906.109    954.615    -48.507    489.849    947.085    489.849    497.435    489.849
 98.570    899.000    902.369     -3.369    489.617    894.242    489.617    497.792    489.617
 98.670    876.000    860.658     15.342    489.384    851.813    489.384    498.269    489.384
 98.770    758.000    830.923    -72.923    489.152    821.207    489.152    498.897    489.152
 98.870    779.000    814.221    -35.221    488.919    803.446    488.919    499.714    488.919
 98.970    755.000    811.307    -56.307    488.685    799.236    488.685    500.767    488.685
 99.070    867.000    822.689     44.311    488.452    809.032    488.452    502.109    488.452
 99.170    874.000    848.659     25.341    488.218    833.068    488.218    503.802    488.218
 99.270    846.000    889.294    -43.294    487.985    871.351    487.985    505.914    487.985
 99.370    941.947    944.409     -2.462    487.751    923.625    487.751    508.516    487.751
 99.470   1008.000   1013.483     -5.483    487.516    989.298    487.516    511.682    487.516
 99.570   1130.000   1095.565     34.435    487.282   1067.346    487.282    515.482    487.282
 99.670   1164.385   1189.218    -24.832    487.048   1156.272    487.048    519.978    487.048
 99.770   1324.000   1292.381     31.619    486.813   1253.967    486.813    525.221    486.813
 99.870   1409.000   1402.327      6.673    486.578   1357.672    486.578    531.239    486.578
 99.970   1576.000   1515.664     60.336    486.344   1463.996    486.344    538.034    486.344
100.070   1579.052   1628.413    -49.361    486.109   1568.987    486.109    545.577    486.109
100.170   1737.502   1736.205      1.297    485.874   1668.347    485.874    553.798    485.874
100.270   1918.000   1834.612     83.388    485.640   1757.763    485.640    562.581    485.640
100.370   1915.000   1919.553     -4.553    485.405   1833.315    485.405    571.762    485.405
100.470   2050.360   1987.629     62.731    485.170   1891.827    485.170    581.119    485.170
100.570   2181.000   2036.283    144.717    484.936   1931.018    484.936    590.372    484.936
100.670   2018.000   2063.775    -45.775    484.701   1949.490    484.701    599.179    484.701
100.770   2050.000   2069.126    -19.126    484.467   1946.659    484.467    607.145    484.467
100.870   2020.279   2052.199    -31.920    484.233   1922.816    484.233    613.840    484.233
100.970   2042.000   2013.924     28.076    483.999   1879.319    483.999    618.836    483.999
101.070   1975.630   1956.524     19.105    483.765   1818.756    483.765    621.766    483.765
101.170   1852.167   1883.516    -31.350    483.531   1744.889    483.531    622.388    483.531
101.270   1828.365   1799.404     28.961    483.297   1662.290    483.297    620.634    483.297
101.370   1747.770   1709.147     38.622    483.064   1575.798    483.064    616.624    483.064
101.470   1641.818   1617.594     24.224    482.831   1489.976    482.831    610.644    482.831
101.570   1471.293   1529.028    -57.734    482.599   1408.719    482.599    603.085    482.599
101.670   1508.598   1446.873     61.725    482.366   1335.019    482.366    594.381    482.366
101.770   1437.810   1373.548     64.261    482.134   1270.872    482.134    584.955    482.134
101.870   1329.000   1310.427     18.573    481.903   1217.269    481.903    575.190    481.903
101.970   1285.682   1257.871     27.811    481.672   1174.250    481.672    565.409    481.672
102.070   1149.000   1215.320    -66.320    481.441   1140.991    481.441    555.875    481.441
102.170   1190.686   1181.422      9.264    481.210   1115.936    481.210    546.793    481.210
102.270   1175.000   1154.201     20.799    480.981   1096.960    480.981    538.313    480.981
102.370   1085.000   1131.276    -46.276    480.751   1081.580    480.751    530.537    480.751
102.470   1091.000   1110.124    -19.124    480.522   1067.214    480.522    523.520    480.522
102.570   1121.000   1088.385     32.615    480.294   1051.483    480.294    517.285    480.294
102.670   1004.000   1064.176    -60.176    480.066   1032.512    480.066    511.820    480.066
102.770   1030.000   1036.312     -6.312    479.839   1009.152    479.839    507.089    479.839
102.870    957.000   1004.388    -47.388    479.612    981.053    479.612    503.038    479.612
102.970    939.000    968.696    -29.696    479.387    948.569    479.387    499.603    479.387
103.070    980.000    930.025     49.975    479.161    912.562    479.161    496.710    479.161
103.170    880.876    889.450     -8.574    478.937    874.180    478.937    494.288    478.937
103.270    855.243    848.147      7.097    478.713    834.671    478.713    492.265    478.713
103.370    795.000    807.263    -12.263    478.490    795.248    478.490    490.575    478.490
103.470    776.000    767.835      8.165    478.268    757.007    478.268    489.159    478.268
103.570    725.806    730.729     -4.923    478.046    720.866    478.046    487.965    478.046
103.670    677.000    696.611    -19.611    477.826    687.536    477.826    486.949    477.826
103.770    691.000    665.934     25.066    477.606    657.505    477.606    486.075    477.606
103.870    609.000    638.936    -29.936    477.387    631.044    477.387    485.314    477.387
103.970    593.000    615.665    -22.665    477.169    608.221    477.169    484.641    477.169
104.070    596.901    596.004      0.897    476.952    588.940    476.952    484.039    476.952
104.170    584.000    579.713      4.287    476.736    572.974    476.736    483.493    476.736
104.270    523.024    566.463    -43.439    476.521    560.006    476.521    482.993    476.521
104.370    534.331    555.887    -21.556    476.307    549.677    476.307    482.529    476.307
104.470    575.000    547.606     27.394    476.094    541.612    476.094    482.095    476.094
104.570    565.912    541.244     24.668    475.882    535.444    475.882    481.688    475.882
104.670    578.528    536.484     42.043    475.672    530.857    475.672    481.302    475.672
104.770    555.000    533.040     21.960    475.462    527.567    475.462    480.937    475.462
104.870    610.000    530.681     79.319    475.254    525.347    475.254    480.588    475.254
104.970    552.788    529.234     23.555    475.046    524.023    475.046    480.255    475.046
105.070    540.000    528.578     11.422    474.841    523.479    474.841    479.937    474.841
105.170    528.000    528.647     -0.647    474.636    523.647    474.636    479.631    474.636
105.270    528.000    529.415     -1.415    474.433    524.504    474.433    479.338    474.433
105.370    553.000    530.902     22.098    474.231    526.069    474.231    479.056    474.231
105.470    538.000    533.157      4.843    474.030    528.393    474.030    478.785    474.030
105.570    519.000    536.259    -17.259    473.831    531.556    473.831    478.523    473.831
105.670    569.855    540.302     29.553    473.633    535.650    473.633    478.272    473.633
105.770    544.000    545.384     -1.384    473.437    540.775    473.437    478.030    473.437
105.870    522.000    551.593    -29.593    473.242    547.020    473.242    477.796    473.242
105.970    598.701    558.993     39.708    473.048    554.449    473.048    477.571    473.048
106.070    595.000    567.611     27.389    472.857    563.088    472.857    477.354    472.857
106.170    611.865    577.420     34.445    472.666    572.913    472.666    477.145    472.666
106.270    610.000    588.335     21.665    472.478    583.838    472.478    476.944    472.478
106.370    601.000    600.206      0.794    472.291    595.712    472.291    476.751    472.291
106.470    651.460    612.812     38.647    472.106    608.316    472.106    476.565    472.106
106.570    635.000    625.868      9.132    471.922    621.364    471.922    476.386    471.922
106.670    652.000    639.027     12.973    471.740    634.511    471.740    476.215    471.740
106.770    626.000    651.895    -25.895    471.560    647.361    471.560    476.051    471.560
106.870    678.999    664.045     14.955    471.382    659.489    471.382    475.894    471.382
106.970    660.000    675.043    -15.043    471.206    670.462    471.206    475.744    471.206
107.070    655.000    684.492    -29.492    471.032    679.880    471.032    475.602    471.032
107.170    676.000    692.076    -16.076    470.859    687.428    470.859    475.466    470.859
107.270    640.000    697.609    -57.609    470.689    692.922    470.689    475.339    470.689
107.370    656.000    701.083    -45.083    470.520    696.351    470.520    475.218    470.520
107.470    661.438    702.670    -41.232    470.354    697.888    470.354    475.105    470.354
107.570    680.000    702.696    -22.696    470.189    697.860    470.189    475.000    470.189
107.670    662.431    701.589    -39.158    470.027    696.692    470.027    474.902    470.027
107.770    682.000    699.808    -17.808    469.867    694.846    469.867    474.812    469.867
107.870    673.888    697.789    -23.901    469.709    692.754    469.709    474.731    469.709
107.970    647.624    695.897    -48.273    469.553    690.784    469.553    474.658    469.553
108.070    679.646    694.398    -14.752    469.399    689.200    469.399    474.593    469.399
108.170    683.000    693.442    -10.442    469.248    688.152    469.248    474.537    469.248
108.270    673.675    693.052    -19.378    469.099    687.664    469.099    474.491    469.099
108.370    676.000    693.130    -17.130    468.953    687.635    468.953    474.454    468.953
108.470    689.000    693.458     -4.458    468.808    687.849    468.808    474.427    468.808
108.570    657.000    693.722    -36.722    468.667    687.992    468.667    474.410    468.667
108.670    727.225    693.542     33.683    468.527    687.682    468.527    474.403    468.527
108.770    708.000    692.513     15.487    468.391    686.515    468.391    474.408    468.391
108.870    703.000    690.264     12.736    468.256    684.117    468.256    474.425    468.256
108.970    700.000    686.509     13.491    468.125    680.203    468.125    474.453    468.125
109.070    651.000    681.093    -30.093    467.996    674.619    467.996    474.494    467.996
109.170    659.000    674.014    -15.014    467.869    667.359    467.869    474.549    467.869
109.270    636.438    665.411    -28.973    467.746    658.564    467.746    474.618    467.746
109.370    633.000    655.532    -22.532    467.625    648.479    467.625    474.702    467.625
109.470    628.000    644.693    -16.693    467.507    637.422    467.507    474.802    467.507
109.570    642.000    633.243      8.757    467.391    625.738    467.391    474.919    467.391
109.670    659.000    621.527     37.473    467.279    613.773    467.279    475.054    467.279
109.770    631.470    609.873     21.598    467.169    601.853    467.169    475.209    467.169
109.870    598.000    598.573     -0.573    467.063    590.268    467.063    475.385    467.063
109.970    568.274    587.874    -19.600    466.959    579.265    466.959    475.583    466.959
110.070    619.000    577.956     41.044    466.858    569.021    466.858    475.807    466.858
110.170    599.000    568.998     30.002    466.761    559.713    466.761    476.058    466.761
110.270    553.000    561.118     -8.118    466.666    551.458    466.666    476.335    466.666
110.370    581.000    554.355     26.645    466.575    544.285    466.575    476.652    466.575
110.470    563.000    548.716     14.284    466.487    538.200    466.487    477.009    466.487
110.570    506.400    544.177    -37.777    466.402    533.172    466.402    477.411    466.402
110.670    556.000    540.687     15.313    466.320    529.142    466.320    477.867    466.320
110.770    548.000    538.174      9.826    466.242    526.031    466.242    478.385    466.242
110.870    559.000    536.558     22.442    466.167    523.747    466.167    478.977    466.167
110.970    564.682    535.754     28.928    466.096    522.189    466.096    479.657    466.096
111.070    532.000    535.678     -3.678    466.028    521.259    466.028    480.443    466.028
111.170    521.000    536.256    -15.256    465.963    520.859    465.963    481.356    465.963
111.270    506.044    537.424    -31.380    465.902    520.900    465.902    482.420    465.902
111.370    532.000    539.122     -7.122    465.844    521.301    465.844    483.659    465.844
111.470    531.435    541.335     -9.900    465.791    521.992    465.791    485.126    465.791
111.570    600.000    544.036     55.964    465.740    522.912    465.740    486.856    465.740
111.670    550.000    547.224      2.776    465.694    524.013    465.694    488.896    465.694
111.770    572.000    550.919     21.081    465.651    525.256    465.651    491.304    465.651
111.870    585.980    555.154     30.827    465.612    526.615    465.612    494.141    465.612
111.970    577.000    559.983     17.017    465.577    528.074    465.577    497.476    465.577
112.070    570.000    565.476      4.524    465.546    529.628    465.546    501.383    465.546
112.170    548.000    571.718    -23.718    465.519    531.284    465.519    505.942    465.519
112.270    538.626    578.805    -40.179    465.495    533.057    465.495    511.231    465.495
112.370    592.886    586.843      6.043    465.476    534.973    465.476    517.334    465.476
112.470    554.000    595.941    -41.941    465.461    537.063    465.461    524.327    465.461
112.570    606.000    606.215     -0.215    465.450    539.369    465.450    532.282    465.450
112.670    595.000    617.778    -22.778    465.443    541.945    465.443    541.261    465.443
112.770    621.000    630.743     -9.743    465.440    544.856    465.440    551.312    465.440
112.870    633.000    645.223    -12.223    465.442    548.187    465.442    562.462    465.442
112.970    634.000    661.334    -27.334    465.448    552.047    465.448    574.717    465.448
113.070    727.133    679.194     47.940    465.458    556.579    465.458    588.054    465.458
113.170    714.000    698.935     15.065    465.472    561.968    465.472    602.420    465.472
113.270    732.000    720.713     11.287    465.491    568.460    465.491    617.722    465.491
113.370    733.985    744.717    -10.732    465.515    576.375    465.515    633.833    465.515
113.470    817.729    771.188     46.541    465.543    586.126    465.543    650.578    465.543
113.570    827.000    800.441     26.559    465.576    598.246    465.576    667.739    465.576
113.670    796.815    832.882    -36.067    465.613    613.410    465.613    685.048    465.613
113.770    880.000    869.040     10.960    465.655    632.465    465.655    702.188    465.655
113.870    921.000    909.590     11.410    465.702    656.452    465.702    718.790    465.702
113.970    920.000    955.381    -35.381    465.754    686.636    465.754    734.438    465.754
114.070    986.000   1007.468    -21.468    465.810    724.524    465.810    748.682    465.810
114.170   1015.000   1067.139    -52.139    465.872    771.875    465.872    761.050    465.872
114.270   1124.000   1135.945    -11.945    465.938    830.701    465.938    771.079    465.938
114.370   1266.000   1215.718     50.282    466.009    903.248    466.009    778.355    466.009
114.470   1299.647   1308.578     -8.931    466.086    991.963    466.086    782.553    466.086
114.570   1437.224   1416.909     20.315    466.167   1099.424    466.167    783.475    466.167
114.670   1616.341   1543.297     73.044    466.254   1228.260    466.254    781.081    466.254
114.770   1749.000   1690.418     58.582    466.346   1381.027    466.346    775.490    466.346
114.870   1873.000   1860.879     12.121    466.443   1560.066    466.443    766.967    466.443
114.970   2185.000   2057.015    127.985    466.545   1767.341    466.545    755.886    466.545
115.070   2401.000   2280.668    120.332    466.653   2004.248    466.653    742.692    466.653
115.170   2562.000   2532.948     29.052    466.766   2271.428    466.766    727.855    466.766
115.270   2825.000   2814.021     10.979    466.885   2568.584    466.885    711.841    466.885
115.370   3235.000   3122.910    112.090    467.009   2894.305    467.009    695.085    467.009
115.470   3456.418   3457.347     -0.929    467.139   3245.930    467.139    677.980    467.139
115.570   3738.943   3813.667    -74.724    467.274   3619.455    467.274    660.870    467.274
115.670   4166.000   4186.765    -20.765    467.415   4009.482    467.415    644.049    467.415
115.770   4467.000   4570.109   -103.109    467.562   4409.240    467.562    627.759    467.562
115.870   5022.233   4955.821     66.411    467.715   4810.656    467.715    612.196    467.715
115.970   5179.000   5334.826   -155.826    467.873   5204.506    467.873    597.511    467.873
116.070   5616.000   5697.068    -81.068    468.037   5580.625    468.037    583.815    468.037
116.170   5964.903   6031.821    -66.918    468.208   5928.217    468.208    571.180    468.208
116.270   6383.000   6328.100     54.900    468.384   6236.261    468.384    559.644    468.384
116.370   6649.000   6575.215     73.785    468.567   6494.054    468.567    549.215    468.567
116.470   6868.000   6763.448    104.552    468.755   6691.898    468.755    539.876    468.755
116.570   6926.000   6884.844     41.156    468.950   6821.871    468.950    531.590    468.950
116.670   7021.000   6933.978     87.022    469.151   6878.601    469.151    524.300    469.151
116.770   7102.000   6908.557    193.443    469.358   6859.857    469.358    517.941    469.358
116.870   6777.199   6809.680    -32.481    469.572   6766.806    469.572    512.437    469.572
116.970   6489.254   6641.686   -152.432    469.792   6603.865    469.792    507.708    469.792
117.070   6392.000   6411.644    -19.644    470.018   6378.178    470.018    503.673    470.018
117.170   6031.000   6128.600    -97.600    470.251   6098.868    470.251    500.252    470.251
117.270   5507.000   5802.815   -295.815    470.491   5776.272    470.491    497.368    470.491
117.370   5540.900   5445.079     95.821    470.737   5421.249    470.737    494.951    470.737
117.470   4912.000   5066.038   -154.038    470.990   5044.511    470.990    492.935    470.990
117.570   4648.000   4675.825    -27.825    471.250   4656.252    471.250    491.260    471.250
117.670   4234.000   4283.720    -49.720    471.517   4265.805    471.517    489.873    471.517
117.770   3962.000   3897.910     64.090    471.790   3881.404    471.790    488.731    471.790
117.870   3639.948   3525.335    114.613    472.071   3510.031    472.071    487.792    472.071
117.970   3333.000   3171.606    161.394    472.358   3157.332    472.358    487.024    472.358
118.070   2999.000   2840.985    158.015    472.652   2827.599    472.652    486.399    472.652
118.170   2499.624   2536.430    -36.806    472.954   2523.816    472.954    485.893    472.954
118.270   2260.000   2259.688      0.312    473.263   2247.750    473.263    485.488    473.263
118.370   1942.184   2011.427    -69.242    473.579   2000.087    473.579    485.168    473.579
118.470   1766.000   1791.392    -25.392    473.902   1780.587    473.902    484.920    473.902
118.570   1571.000   1598.575    -27.575    474.233   1588.252    474.233    484.733    474.233
118.670   1399.000   1431.390    -32.390    474.571   1421.506    474.571    484.601    474.571
118.770   1348.000   1287.840     60.160    474.917   1278.358    474.917    484.516    474.917
118.870   1131.000   1165.672    -34.672    475.270   1156.561    475.270    484.473    475.270
118.970   1074.528   1062.521     12.008    475.631   1053.755    475.631    484.467    475.631
119.070   1027.746    976.020     51.726    475.999    967.575    475.999    484.497    475.999
119.170    925.297    903.896     21.400    476.375    895.752    476.375    484.559    476.375
119.270    819.302    844.034    -24.732    476.759    836.171    476.759    484.650    476.759
119.370    867.000    794.516     72.484    477.151    786.916    477.151    484.771    477.151
119.470    707.253    753.648    -46.395    477.551    746.294    477.551    484.918    477.551
119.570    719.000    719.961     -0.961    477.959    712.837    477.959    485.092    477.959
119.670    687.000    692.205     -5.205    478.375    685.294    478.375    485.291    478.375
119.770    676.496    669.333      7.163    478.799    662.620    478.799    485.515    478.799
119.870    694.823    650.481     44.342    479.231    643.951    479.231    485.764    479.231
119.970    625.000    634.945     -9.945    479.672    628.582    479.672    486.038    479.672
120.070    580.000    622.156    -42.156    480.121    615.943    480.121    486.336    480.121
120.170    579.000    611.658    -32.658    480.578    605.579    480.578    486.659    480.578
120.270    581.000    603.091    -22.091    481.044    597.129    481.044    487.007    481.044
120.370    552.000    596.168    -44.168    481.518    590.307    481.518    487.381    481.518
120.470    561.740    590.665    -28.925    482.001    584.888    482.001    487.780    482.001
120.570    567.000    586.407    -19.407    482.492    580.696    482.492    488.207    482.492
120.670    606.217    583.256     22.961    482.992    577.593    482.992    488.660    482.992
120.770    537.000    581.103    -44.103    483.501    575.470    483.501    489.140    483.501
120.870    568.369    579.864    -11.494    484.019    574.240    484.019    489.649    484.019
120.970    612.844    579.468     33.377    484.546    573.835    484.546    490.186    484.546
121.070    581.000    579.856      1.144    485.082    574.194    485.082    490.752    485.082
121.170    632.000    580.978     51.022    485.627    575.267    485.627    491.347    485.627
121.270    619.000    582.783     36.217    486.181    577.003    486.181    491.971    486.181
121.370    563.000    585.222    -22.222    486.744    579.354    486.744    492.624    486.744
121.470    624.602    588.243     36.359    487.317    582.268    487.317    493.306    487.317
121.570    602.000    591.788     10.212    487.898    585.687    487.898    494.016    487.898
121.670    615.000    595.793     19.207    488.490    589.549    488.490    494.752    488.490
121.770    607.000    600.184      6.816    489.090    593.781    489.090    495.514    489.090
121.870    652.867    604.880     47.987    489.701    598.304    489.701    496.300    489.701
121.970    606.161    609.790     -3.629    490.321    603.030    490.321    497.107    490.321
122.070    657.119    614.815     42.304    490.950    607.861    490.950    497.934    490.950
122.170    636.000    619.850     16.150    491.590    612.695    491.590    498.776    491.590
122.270    585.997    624.780    -38.783    492.239    617.423    492.239    499.632    492.239
122.370    636.000    629.490      6.510    492.898    621.930    492.898    500.495    492.898
122.470    662.522    633.862     28.660    493.567    626.106    493.567    501.364    493.567
122.570    607.000    637.785    -30.785    494.246    629.843    494.246    502.231    494.246
122.670    672.491    641.153     31.337    494.936    633.041    494.936    503.093    494.936
122.770    677.000    643.880     33.120    495.635    635.618    495.635    503.944    495.635
122.870    654.000    645.898      8.102    496.345    637.513    496.345    504.778    496.345
122.970    656.081    647.166      8.915    497.065    638.689    497.065    505.590    497.065
123.070    619.000    647.670    -28.670    497.796    639.138    497.796    506.377    497.796
123.170    676.033    647.423     28.610    498.537    638.875    498.537    507.134    498.537
123.270    674.210    646.465     27.745    499.289    637.944    499.289    507.858    499.289
123.370    639.993    644.854     -4.861    500.051    636.403    500.051    508.549    500.051
123.470    634.000    642.664     -8.664    500.824    634.325    500.824    509.209    500.824
123.570    658.000    639.979     18.021    501.608    631.792    501.608    509.837    501.608
123.670    652.000    636.885     15.115    502.403    628.889    502.403    510.440    502.403
123.770    660.145    633.472     26.673    503.209    625.699    503.209    511.019    503.209
123.870    600.593    629.826    -29.233    504.026    622.304    504.026    511.582    504.026
123.970    649.000    626.028     22.972    504.853    618.780    504.853    512.132    504.853
124.070    611.490    622.149    -10.659    505.692    615.194    505.692    512.677    505.692
124.170    614.000    618.255     -4.255    506.543    611.604    506.543    513.219    506.543
124.270    599.098    614.397    -15.299    507.404    608.058    507.404    513.766    507.404
124.370    591.000    610.616    -19.616    508.278    604.593    508.278    514.320    508.278
124.470    601.000    606.943     -5.943    509.162    601.236    509.162    514.886    509.162
124.570    582.000    603.397    -21.397    510.058    598.002    510.058    515.468    510.058
124.670    613.000    599.989     13.011    510.966    594.899    510.966    516.068    510.966
124.770    625.000    596.723     28.277    511.886    591.929    511.886    516.689    511.886
124.870    617.000    593.596     23.404    512.817    589.088    512.817    517.333    512.817
124.970    598.454    590.604      7.850    513.760    586.369    513.760    518.002    513.760
