neutron_powder_diffraction_0134
R_wp: 3.964
Temperature (K): 1057.541
Counts: 83058.00
Wavelength (Ã…): 2.52098
COMMENTS
Test file for demonstrating the .xyy file format in Reel1.0
END OF HEADER
   tth       Y_obs     Y_calc      Y_res    Background    Phase_1_Nuc    Phase_1_Mag    Phase_2_Nuc    Phase_2_Mag
  9.970    575.110    567.222      7.888    566.277    567.159    566.277    566.340    566.277
 10.070    589.139    567.451     21.688    566.431    567.388    566.431    566.494    566.431
 10.170    605.000    567.685     37.315    566.578    567.622    566.578    566.641    566.578
 10.270    605.000    567.926     37.074    566.718    567.862    566.718    566.781    566.718
 10.370    574.000    568.176      5.824    566.852    568.112    566.852    566.915    566.852
 10.470    595.487    568.440     27.047    566.979    568.375    566.979    567.043    566.979
 10.570    604.000    568.722     35.278    567.099    568.657    567.099    567.164    567.099
 10.670    583.000    569.029     13.971    567.214    568.963    567.214    567.278    567.214
 10.770    576.000    569.368      6.632    567.322    569.303    567.322    567.386    567.322
 10.870    591.000    569.753     21.247    567.423    569.687    567.423    567.488    567.423
 10.970    571.638    570.198      1.439    567.519    570.132    567.519    567.584    567.519
 11.070    549.000    570.728    -21.728    567.608    570.660    567.608    567.674    567.608
 11.170    594.000    571.374     22.626    567.691    571.306    567.691    567.757    567.691
 11.270    592.100    572.191     19.910    567.769    572.122    567.769    567.835    567.769
 11.370    599.000    573.274     25.726    567.840    573.205    567.840    567.906    567.840
 11.470    636.000    574.842     61.158    567.905    574.772    567.905    567.972    567.905
 11.570    550.000    577.442    -27.442    567.965    577.369    567.965    568.031    567.965
 11.670    594.000    582.356     11.644    568.018    582.281    568.018    568.085    568.018
 11.770    594.428    592.015      2.413    568.066    591.934    568.066    568.134    568.066
 11.870    698.000    609.613     88.387    568.108    609.522    568.108    568.176    568.108
 11.970    670.000    636.904     33.096    568.145    636.797    568.145    568.213    568.145
 12.070    714.000    669.991     44.009    568.176    669.865    568.176    568.244    568.176
 12.170    653.476    695.533    -42.057    568.201    695.393    568.201    568.270    568.201
 12.270    646.000    697.070    -51.070    568.221    696.927    568.221    568.291    568.221
 12.370    644.196    673.325    -29.129    568.235    673.195    568.235    568.307    568.235
 12.470    639.000    640.176     -1.176    568.244    640.064    568.244    568.316    568.244
 12.570    607.000    611.992     -4.992    568.248    611.895    568.248    568.321    568.248
 12.670    561.000    593.493    -32.493    568.247    593.407    568.247    568.319    568.247
 12.770    624.518    583.251     41.267    568.240    583.170    568.240    568.313    568.240
 12.870    596.000    578.058     17.942    568.228    577.979    568.228    568.302    568.228
 12.970    582.453    575.360      7.094    568.211    575.282    568.211    568.285    568.211
 13.070    523.000    573.774    -50.774    568.189    573.697    568.189    568.263    568.189
 13.170    569.000    572.704     -3.704    568.162    572.627    568.162    568.237    568.162
 13.270    576.000    571.915      4.085    568.130    571.838    568.130    568.205    568.130
 13.370    561.000    571.303    -10.303    568.093    571.227    568.093    568.169    568.093
 13.470    579.243    570.815      8.429    568.052    570.738    568.052    568.127    568.052
 13.570    557.000    570.414    -13.414    568.005    570.337    568.005    568.081    568.005
 13.670    569.000    570.077     -1.077    567.954    570.000    567.954    568.030    567.954
 13.770    578.870    569.788      9.082    567.898    569.711    567.898    567.975    567.898
 13.870    598.000    569.535     28.465    567.838    569.457    567.838    567.914    567.838
 13.970    522.000    569.309    -47.309    567.772    569.231    567.772    567.850    567.772
 14.070    529.000    569.104    -40.104    567.703    569.026    567.703    567.780    567.703
 14.170    560.000    568.915     -8.915    567.629    568.836    567.629    567.707    567.629
 14.270    544.000    568.737    -24.737    567.550    568.658    567.550    567.628    567.550
 14.370    578.000    568.569      9.431    567.467    568.490    567.467    567.546    567.467
 14.470    522.000    568.410    -46.410    567.380    568.331    567.380    567.459    567.380
 14.570    558.000    568.255    -10.255    567.288    568.175    567.288    567.368    567.288
 14.670    559.034    568.103     -9.069    567.192    568.023    567.192    567.272    567.192
 14.770    522.000    567.953    -45.953    567.092    567.872    567.092    567.173    567.092
 14.870    558.000    567.805     -9.805    566.988    567.724    566.988    567.069    566.988
 14.970    612.788    567.658     45.130    566.879    567.576    566.879    566.961    566.879
 15.070    532.855    567.512    -34.657    566.767    567.430    566.767    566.849    566.767
 15.170    541.000    567.366    -26.366    566.651    567.283    566.651    566.733    566.651
 15.270    546.353    567.218    -20.865    566.530    567.135    566.530    566.613    566.530
 15.370    569.000    567.069      1.931    566.406    566.986    566.406    566.489    566.406
 15.470    548.545    566.919    -18.374    566.278    566.835    566.278    566.362    566.278
 15.570    549.000    566.767    -17.767    566.146    566.683    566.146    566.230    566.146
 15.670    523.925    566.614    -42.689    566.010    566.529    566.010    566.095    566.010
 15.770    511.000    566.458    -55.458    565.871    566.373    565.871    565.956    565.871
 15.870    566.000    566.300     -0.300    565.728    566.215    565.728    565.813    565.728
 15.970    594.150    566.141     28.009    565.581    566.055    565.581    565.667    565.581
 16.070    590.000    565.979     24.021    565.431    565.893    565.431    565.517    565.431
 16.170    570.464    565.815      4.648    565.277    565.728    565.277    565.364    565.277
 16.270    564.000    565.648     -1.648    565.120    565.561    565.120    565.207    565.120
 16.370    583.527    565.479     18.048    564.959    565.391    564.959    565.047    564.959
 16.470    559.252    565.307     -6.055    564.795    565.219    564.795    564.883    564.795
 16.570    521.364    565.134    -43.771    564.627    565.045    564.627    564.716    564.627
 16.670    583.000    564.970     18.030    564.456    564.881    564.456    564.546    564.456
 16.770    565.586    564.804      0.782    564.282    564.714    564.282    564.372    564.282
 16.870    587.000    564.624     22.376    564.105    564.533    564.105    564.196    564.105
 16.970    590.000    564.439     25.561    563.924    564.348    563.924    564.016    563.924
 17.070    546.000    564.252    -18.252    563.741    564.160    563.741    563.832    563.741
 17.170    549.000    564.063    -15.063    563.554    563.970    563.554    563.646    563.554
 17.270    544.000    563.871    -19.871    563.364    563.778    563.364    563.457    563.364
 17.370    547.000    563.676    -16.676    563.171    563.583    563.171    563.265    563.171
 17.470    583.893    563.479     20.413    562.975    563.385    562.975    563.069    562.975
 17.570    533.000    563.280    -30.280    562.776    563.185    562.776    562.871    562.776
 17.670    580.000    563.078     16.922    562.575    562.983    562.575    562.670    562.575
 17.770    566.000    562.878      3.122    562.370    562.781    562.370    562.466    562.370
 17.870    575.000    562.672     12.328    562.163    562.575    562.163    562.260    562.163
 17.970    565.000    562.462      2.538    561.953    562.365    561.953    562.050    561.953
 18.070    574.000    562.251     11.749    561.740    562.153    561.740    561.838    561.740
 18.170    589.597    562.037     27.560    561.524    561.938    561.524    561.623    561.524
 18.270    593.943    561.821     32.121    561.306    561.722    561.306    561.406    561.306
 18.370    559.219    561.603     -2.384    561.086    561.503    561.086    561.186    561.086
 18.470    533.000    561.382    -28.382    560.862    561.282    560.862    560.963    560.862
 18.570    538.000    561.160    -23.160    560.636    561.058    560.636    560.738    560.636
 18.670    577.000    560.935     16.065    560.408    560.833    560.408    560.510    560.408
 18.770    582.000    560.710     21.290    560.177    560.607    560.177    560.280    560.177
 18.870    548.000    560.486    -12.486    559.944    560.382    559.944    560.048    559.944
 18.970    599.458    560.256     39.202    559.708    560.151    559.708    559.813    559.708
 19.070    577.000    560.023     16.977    559.471    559.917    559.471    559.576    559.471
 19.170    535.000    559.788    -24.788    559.230    559.682    559.230    559.337    559.230
 19.270    532.647    559.552    -26.904    558.988    559.444    558.988    559.095    558.988
 19.370    558.000    559.313     -1.313    558.743    559.205    558.743    558.851    558.743
 19.470    530.000    559.073    -29.073    558.496    558.964    558.496    558.605    558.496
 19.570    536.711    558.838    -22.127    558.247    558.728    558.247    558.357    558.247
 19.670    582.959    558.665     24.293    557.996    558.555    557.996    558.107    557.996
 19.770    581.279    558.461     22.818    557.743    558.350    557.743    557.855    557.743
 19.870    557.000    558.219     -1.219    557.488    558.106    557.488    557.601    557.488
 19.970    522.000    557.971    -35.971    557.231    557.857    557.231    557.344    557.231
 20.070    548.000    557.722     -9.722    556.972    557.607    556.972    557.086    556.972
 20.170    566.000    557.472      8.528    556.711    557.356    556.711    556.826    556.711
 20.270    544.000    557.221    -13.221    556.448    557.105    556.448    556.564    556.448
 20.370    582.000    556.969     25.031    556.183    556.851    556.183    556.301    556.183
 20.470    514.798    556.715    -41.917    555.916    556.596    555.916    556.035    555.916
 20.570    580.392    556.464     23.928    555.648    556.344    555.648    555.768    555.648
 20.670    599.215    556.253     42.962    555.378    556.132    555.378    555.499    555.378
 20.770    561.728    556.020      5.708    555.106    555.898    555.106    555.228    555.106
 20.870    574.000    555.765     18.235    554.833    555.642    554.833    554.956    554.833
 20.970    575.000    555.508     19.492    554.558    555.384    554.558    554.682    554.558
 21.070    550.907    555.250     -4.343    554.281    555.124    554.281    554.407    554.281
 21.170    549.000    554.992     -5.992    554.003    554.865    554.003    554.130    554.003
 21.270    551.000    554.733     -3.733    553.723    554.604    553.723    553.851    553.723
 21.370    590.000    554.476     35.524    553.441    554.346    553.441    553.571    553.441
 21.470    533.059    554.236    -21.178    553.159    554.105    553.159    553.290    553.159
 21.570    571.638    554.009     17.629    552.874    553.876    552.874    553.007    552.874
 21.670    551.000    553.754     -2.754    552.589    553.620    552.589    552.723    552.589
 21.770    495.000    553.498    -58.498    552.302    553.362    552.302    552.438    552.302
 21.870    527.174    553.242    -26.068    552.013    553.105    552.013    552.151    552.013
 21.970    594.000    552.989     41.011    551.724    552.850    551.724    551.863    551.724
 22.070    577.164    552.740     24.424    551.433    552.599    551.433    551.574    551.433
 22.170    530.000    552.494    -22.494    551.140    552.352    551.140    551.283    551.140
 22.270    569.000    552.269     16.731    550.847    552.124    550.847    550.992    550.847
 22.370    527.000    552.028    -25.028    550.553    551.882    550.553    550.699    550.553
 22.470    582.000    551.797     30.203    550.257    551.649    550.257    550.405    550.257
 22.570    534.000    551.567    -17.567    549.960    551.417    549.960    550.110    549.960
 22.670    558.647    551.340      7.307    549.662    551.187    549.662    549.815    549.662
 22.770    545.000    551.120     -6.120    549.363    550.966    549.363    549.518    549.363
 22.870    521.000    550.910    -29.910    549.063    550.754    549.063    549.220    549.063
 22.970    528.130    550.712    -22.582    548.762    550.553    548.762    548.921    548.762
 23.070    577.000    550.529     26.471    548.460    550.368    548.460    548.622    548.460
 23.170    560.000    550.364      9.636    548.157    550.201    548.157    548.321    548.157
 23.270    565.000    550.224     14.776    547.854    550.058    547.854    548.020    547.854
 23.370    549.000    550.120     -1.120    547.549    549.951    547.549    547.718    547.549
 23.470    582.392    550.048     32.344    547.243    549.876    547.243    547.416    547.243
 23.570    556.000    550.038      5.962    546.937    549.864    546.937    547.112    546.937
 23.670    566.000    550.094     15.906    546.630    549.917    546.630    546.808    546.630
 23.770    586.000    550.251     35.749    546.322    550.071    546.322    546.504    546.322
 23.870    563.000    550.534     12.466    546.014    550.351    546.014    546.199    546.014
 23.970    578.000    551.027     26.973    545.704    550.841    545.704    545.893    545.704
 24.070    522.790    551.934    -29.144    545.394    551.746    545.394    545.587    545.394
 24.170    545.000    553.737     -8.737    545.084    553.546    545.084    545.280    545.084
 24.270    532.028    557.457    -25.429    544.773    557.265    544.773    544.973    544.773
 24.370    584.306    564.723     19.583    544.461    564.532    544.461    544.665    544.461
 24.470    563.000    577.304    -14.304    544.149    577.118    544.149    544.357    544.149
 24.570    616.000    595.586     20.414    543.836    595.408    543.836    544.049    543.836
 24.670    613.000    616.036     -3.036    543.522    615.868    543.522    543.741    543.522
 24.770    661.691    629.604     32.087    543.208    629.440    543.208    543.432    543.208
 24.870    650.469    627.292     23.177    542.894    627.122    542.894    543.123    542.894
 24.970    652.000    610.715     41.285    542.579    610.528    542.579    542.814    542.579
 25.070    628.713    589.751     38.962    542.264    589.542    542.264    542.506    542.264
 25.170    596.000    572.169     23.831    541.949    571.941    541.949    542.197    541.949
 25.270    542.000    560.414    -18.414    541.633    560.171    541.633    541.888    541.633
 25.370    606.000    553.626     52.374    541.317    553.370    541.317    541.579    541.317
 25.470    501.000    549.971    -48.971    541.000    549.705    541.000    541.271    541.000
 25.570    537.000    547.925    -10.925    540.683    547.649    540.683    540.962    540.683
 25.670    504.763    546.638    -41.875    540.366    546.352    540.366    540.655    540.366
 25.770    503.746    545.718    -41.972    540.049    545.422    540.049    540.347    540.049
 25.870    588.163    545.005     43.158    539.732    544.698    539.732    540.040    539.732
 25.970    511.100    544.428    -33.328    539.414    544.110    539.414    539.734    539.414
 26.070    555.000    543.954     11.046    539.096    543.622    539.096    539.428    539.096
 26.170    578.000    543.563     34.437    538.778    543.218    538.778    539.124    538.778
 26.270    500.961    543.249    -42.288    538.460    542.890    538.460    538.820    538.460
 26.370    543.000    542.986      0.014    538.142    542.611    538.142    538.518    538.142
 26.470    542.000    542.779     -0.779    537.824    542.387    537.824    538.216    537.824
 26.570    533.000    542.633     -9.633    537.506    542.223    537.506    537.917    537.506
 26.670    546.000    542.551      3.449    537.188    542.120    537.188    537.619    537.188
 26.770    548.000    542.538      5.462    536.870    542.085    536.870    537.323    536.870
 26.870    542.000    542.607     -0.607    536.552    542.129    536.552    537.030    536.552
 26.970    558.000    542.778     15.222    536.234    542.272    536.234    536.739    536.234
 27.070    560.749    543.074     17.675    535.916    542.539    535.916    536.451    535.916
 27.170    505.629    543.536    -37.907    535.598    542.966    535.598    536.167    535.598
 27.270    559.000    544.218     14.782    535.280    543.611    535.280    535.886    535.280
 27.370    537.724    545.209     -7.485    534.963    544.559    534.963    535.611    534.963
 27.470    582.000    546.672     35.328    534.645    545.974    534.645    535.341    534.645
 27.570    515.754    549.034    -33.281    534.328    548.282    534.328    535.078    534.328
 27.670    563.000    553.768      9.232    534.011    552.953    534.011    534.823    534.011
 27.770    572.000    565.621      6.379    533.694    564.731    533.694    534.577    533.694
 27.870    602.000    595.974      6.026    533.378    594.993    533.378    534.342    533.378
 27.970    647.000    661.605    -14.605    533.062    660.509    533.062    534.121    533.062
 28.070    788.000    769.015     18.985    532.746    767.778    532.746    533.916    532.746
 28.170    896.931    888.382      8.550    532.430    886.987    532.430    533.733    532.430
 28.270    920.000    949.173    -29.173    532.115    947.622    532.115    533.577    532.115
 28.370    876.000    903.781    -27.781    531.800    902.069    531.800    533.457    531.800
 28.470    778.436    799.559    -21.123    531.486    797.639    531.486    533.386    531.486
 28.570    703.000    716.062    -13.062    531.172    713.847    531.172    533.381    531.172
 28.670    714.000    696.191     17.809    530.858    693.573    530.858    533.468    530.858
 28.770    716.906    736.675    -19.769    530.545    733.524    530.545    533.680    530.545
 28.870    749.000    800.386    -51.386    530.232    796.540    530.232    534.059    530.232
 28.970    862.000    831.604     30.396    529.920    826.859    529.920    534.654    529.920
 29.070    747.000    796.108    -49.108    529.608    790.208    529.608    535.514    529.608
 29.170    652.000    720.278    -68.278    529.297    712.912    529.297    536.677    529.297
 29.270    629.000    647.608    -18.608    528.986    638.459    528.986    538.149    528.986
 29.370    610.822    599.239     11.584    528.676    588.066    528.676    539.858    528.676
 29.470    554.517    574.503    -19.986    528.366    561.292    528.366    541.581    528.366
 29.570    565.000    563.896      1.104    528.057    549.049    528.057    542.905    528.057
 29.670    516.756    559.064    -42.309    527.749    543.482    527.749    543.330    527.749
 29.770    601.000    555.675     45.325    527.441    540.532    527.441    542.583    527.441
 29.870    575.253    552.362     22.890    527.134    538.659    527.134    540.836    527.134
 29.970    558.000    549.101      8.899    526.827    537.365    526.827    538.563    526.827
 30.070    573.319    546.180     27.139    526.521    536.488    526.521    536.212    526.521
 30.170    511.000    543.847    -32.847    526.216    536.008    526.216    534.054    526.216
 30.270    563.900    542.342     21.558    525.912    536.058    525.912    532.193    525.912
 30.370    591.000    542.156     48.844    525.608    537.118    525.608    530.642    525.608
 30.470    557.445    544.394     13.051    525.305    540.325    525.305    529.367    525.305
 30.570    571.000    550.917     20.083    525.003    547.585    525.003    528.322    525.003
 30.670    540.797    563.529    -22.732    524.702    560.752    524.702    527.456    524.702
 30.770    574.234    581.818     -7.584    524.401    579.457    524.401    526.726    524.401
 30.870    606.413    600.542      5.871    524.101    598.498    524.101    526.097    524.101
 30.970    623.000    609.344     13.656    523.802    607.554    523.802    525.541    523.802
 31.070    622.000    601.166     20.834    523.504    599.590    523.504    525.038    523.504
 31.170    586.000    581.899      4.101    523.207    580.503    523.207    524.574    523.207
 31.270    560.000    561.938     -1.938    522.911    560.691    522.911    524.140    522.911
 31.370    596.000    547.128     48.872    522.615    546.005    522.615    523.730    522.615
 31.470    499.000    538.299    -39.299    522.321    537.277    522.321    523.338    522.321
 31.570    566.000    533.741     32.259    522.027    532.805    522.027    522.961    522.027
 31.670    528.000    531.487     -3.487    521.734    530.623    521.734    522.596    521.734
 31.770    539.000    530.277      8.723    521.443    529.476    521.443    522.242    521.443
 31.870    530.000    529.531      0.469    521.152    528.784    521.152    521.897    521.152
 31.970    560.000    529.027     30.973    520.862    528.328    520.862    521.560    520.862
 32.070    540.000    528.689     11.311    520.573    528.031    520.573    521.229    520.573
 32.170    553.000    528.487     24.513    520.285    527.867    520.285    520.904    520.285
 32.270    530.000    528.413      1.587    519.998    527.826    519.998    520.584    519.998
 32.370    613.000    528.467     84.533    519.713    527.909    519.713    520.269    519.713
 32.470    552.000    528.659     23.341    519.428    528.127    519.428    519.958    519.428
 32.570    543.000    529.009     13.991    519.144    528.501    519.144    519.651    519.144
 32.670    486.104    529.548    -43.444    518.861    529.061    518.861    519.347    518.861
 32.770    512.000    530.320    -18.320    518.580    529.853    518.580    519.047    518.580
 32.870    547.380    531.392     15.988    518.299    530.941    518.299    518.749    518.299
 32.970    535.000    532.860      2.140    518.020    532.425    518.020    518.454    518.020
 33.070    535.000    534.882      0.118    517.742    534.460    517.742    518.162    517.742
 33.170    561.000    537.751     23.249    517.465    537.342    517.465    517.872    517.465
 33.270    520.238    542.152    -21.914    517.189    541.754    517.189    517.584    517.189
 33.370    553.000    549.818      3.182    516.914    549.429    516.914    517.299    516.914
 33.470    569.000    564.814      4.186    516.641    564.433    516.641    517.015    516.641
 33.570    594.000    594.956     -0.956    516.368    594.579    516.368    516.734    516.368
 33.670    669.627    651.233     18.394    516.097    650.855    516.097    516.455    516.097
 33.770    804.000    742.205     61.795    515.827    741.822    515.827    516.177    515.827
 33.870    862.000    862.848     -0.848    515.558    862.457    515.558    515.901    515.558
 33.970   1001.913    982.159     19.754    515.291    981.767    515.291    515.628    515.291
 34.070   1039.000   1042.742     -3.742    515.024   1042.365    515.024    515.356    515.024
 34.170   1010.000   1004.262      5.738    514.759   1003.913    514.759    515.085    514.759
 34.270    945.710    894.037     51.673    514.495    893.714    514.495    514.817    514.495
 34.370    807.000    769.798     37.202    514.233    769.489    514.233    514.550    514.233
 34.470    707.752    669.692     38.060    513.972    669.388    513.972    514.284    513.972
 34.570    567.000    604.424    -37.424    513.712    604.121    513.712    514.021    513.712
 34.670    521.000    567.880    -46.880    513.453    567.577    513.453    513.759    513.453
 34.770    556.000    549.098      6.902    513.196    548.796    513.196    513.498    513.196
 34.870    558.384    539.334     19.050    512.940    539.034    512.940    513.239    512.940
 34.970    541.705    533.664      8.040    512.685    533.367    512.685    512.982    512.685
 35.070    527.421    529.870     -2.449    512.431    529.574    512.431    512.727    512.431
 35.170    553.000    527.057     25.943    512.179    526.764    512.179    512.473    512.179
 35.270    517.000    524.853     -7.853    511.929    524.561    511.929    512.220    511.929
 35.370    512.798    523.072    -10.273    511.680    522.782    511.680    511.969    511.680
 35.470    501.000    521.601    -20.601    511.432    521.312    511.432    511.720    511.432
 35.570    557.573    520.364     37.209    511.185    520.077    511.185    511.472    511.185
 35.670    484.194    519.309    -35.115    510.940    519.023    510.940    511.226    510.940
 35.770    565.000    518.397     46.603    510.696    518.112    510.696    510.981    510.696
 35.870    512.000    517.599     -5.599    510.454    517.315    510.454    510.738    510.454
 35.970    525.905    516.894      9.011    510.213    516.611    510.213    510.497    510.213
 36.070    515.211    516.267     -1.056    509.974    515.984    509.974    510.257    509.974
 36.170    544.431    515.705     28.727    509.736    515.422    509.736    510.018    509.736
 36.270    504.000    515.199    -11.199    509.499    514.916    509.499    509.782    509.499
 36.370    523.000    514.744      8.256    509.264    514.462    509.264    509.547    509.264
 36.470    495.000    514.336    -19.336    509.030    514.054    509.030    509.313    509.030
 36.570    495.000    513.974    -18.974    508.798    513.691    508.798    509.081    508.798
 36.670    481.088    513.660    -32.572    508.567    513.377    508.567    508.850    508.567
 36.770    483.000    513.403    -30.403    508.338    513.119    508.338    508.622    508.338
 36.870    525.000    513.232     11.768    508.110    512.949    508.110    508.394    508.110
 36.970    542.000    513.217     28.783    507.884    512.933    507.884    508.169    507.884
 37.070    510.721    513.478     -2.757    507.660    513.193    507.660    507.945    507.660
 37.170    544.000    514.210     29.790    507.436    513.925    507.436    507.722    507.436
 37.270    486.000    515.641    -29.641    507.215    515.355    507.215    507.501    507.215
 37.370    541.000    517.912     23.088    506.994    517.626    506.994    507.282    506.994
 37.470    562.908    520.885     42.023    506.776    520.598    506.776    507.065    506.776
 37.570    538.000    523.932     14.068    506.559    523.645    506.559    506.849    506.559
 37.670    549.000    525.902     23.098    506.343    525.615    506.343    506.634    506.343
 37.770    513.202    525.789    -12.587    506.129    525.503    506.129    506.422    506.129
 37.870    523.327    523.710     -0.383    505.917    523.424    505.917    506.211    505.917
 37.970    512.000    520.666     -8.666    505.706    520.380    505.706    506.001    505.706
 38.070    509.000    517.532     -8.532    505.496    517.245    505.496    505.794    505.496
 38.170    520.000    514.745      5.255    505.289    514.456    505.289    505.587    505.289
 38.270    496.537    512.517    -15.980    505.082    512.224    505.082    505.383    505.082
 38.370    536.991    510.890     26.101    504.878    510.593    504.878    505.180    504.878
 38.470    493.000    509.767    -16.767    504.675    509.466    504.675    504.979    504.675
 38.570    541.598    509.003     32.595    504.473    508.698    504.473    504.780    504.473
 38.670    505.000    508.469     -3.469    504.273    508.161    504.273    504.582    504.273
 38.770    515.000    508.069      6.931    504.075    507.759    504.075    504.386    504.075
 38.870    488.942    507.746    -18.804    503.879    507.434    503.879    504.192    503.879
 38.970    502.408    507.467     -5.059    503.684    507.152    503.684    503.999    503.684
 39.070    493.920    507.216    -13.296    503.490    506.899    503.490    503.808    503.490
 39.170    478.000    506.985    -28.985    503.298    506.665    503.298    503.619    503.298
 39.270    469.000    506.770    -37.770    503.108    506.447    503.108    503.432    503.108
 39.370    542.000    506.569     35.431    502.920    506.243    502.920    503.246    502.920
 39.470    519.000    506.379     12.621    502.733    506.051    502.733    503.062    502.733
 39.570    486.303    506.200    -19.898    502.547    505.869    502.547    502.879    502.547
 39.670    524.000    506.032     17.968    502.364    505.697    502.364    502.699    502.364
 39.770    508.552    505.873      2.679    502.182    505.535    502.182    502.520    502.182
 39.870    479.000    505.724    -26.724    502.001    505.383    502.001    502.343    502.001
 39.970    490.885    505.584    -14.699    501.823    505.240    501.823    502.168    501.823
 40.070    524.000    505.455     18.545    501.646    505.107    501.646    501.994    501.646
 40.170    512.000    505.336      6.664    501.470    504.984    501.470    501.822    501.470
 40.270    508.000    505.228      2.772    501.296    504.873    501.296    501.652    501.296
 40.370    516.000    505.133     10.867    501.124    504.773    501.124    501.484    501.124
 40.470    475.399    505.051    -29.651    500.954    504.687    500.954    501.318    500.954
 40.570    514.499    504.983      9.516    500.785    504.616    500.785    501.153    500.785
 40.670    467.253    504.934    -37.680    500.618    504.562    500.618    500.990    500.618
 40.770    500.000    504.903     -4.903    500.453    504.528    500.453    500.829    500.453
 40.870    499.000    504.897     -5.897    500.289    504.516    500.289    500.670    500.289
 40.970    484.558    504.917    -20.359    500.127    504.532    500.127    500.512    500.127
 41.070    545.338    504.971     40.367    499.966    504.581    499.966    500.357    499.966
 41.170    518.000    505.066     12.934    499.808    504.671    499.808    500.203    499.808
 41.270    496.000    505.211     -9.211    499.650    504.811    499.650    500.051    499.650
 41.370    523.236    505.421     17.815    499.495    505.016    499.495    499.901    499.495
 41.470    509.476    505.715      3.761    499.341    505.305    499.341    499.753    499.341
 41.570    541.406    506.127     35.280    499.189    505.711    499.189    499.607    499.189
 41.670    508.000    506.717      1.283    499.039    506.296    499.039    499.462    499.039
 41.770    453.000    507.621    -54.621    498.890    507.194    498.890    499.320    498.890
 41.870    546.771    509.130     37.641    498.743    508.698    498.743    499.179    498.743
 41.970    489.000    511.843    -22.843    498.598    511.406    498.598    499.040    498.598
 42.070    524.000    516.809      7.191    498.454    516.367    498.454    498.903    498.454
 42.170    496.322    525.509    -29.187    498.312    525.064    498.312    498.768    498.312
 42.270    521.000    539.436    -18.436    498.172    538.991    498.172    498.635    498.172
 42.370    539.660    559.142    -19.482    498.034    558.699    498.034    498.504    498.034
 42.470    611.000    582.945     28.055    497.897    582.507    497.897    498.375    497.897
 42.570    608.000    605.735      2.265    497.762    605.302    497.762    498.248    497.762
 42.670    531.000    619.291    -88.291    497.628    618.859    497.628    498.123    497.628
 42.770    639.750    617.011     22.740    497.496    616.572    497.496    498.000    497.496
 42.870    556.379    600.140    -43.760    497.366    599.685    497.366    497.879    497.366
 42.970    576.205    576.323     -0.118    497.238    575.847    497.238    497.760    497.238
 43.070    539.000    553.120    -14.120    497.111    552.621    497.111    497.643    497.111
 43.170    502.889    534.687    -31.798    496.986    534.167    496.986    497.528    496.986
 43.270    507.538    522.026    -14.488    496.863    521.487    496.863    497.415    496.863
 43.370    540.832    514.242     26.590    496.741    513.688    496.741    497.304    496.741
 43.470    543.261    509.791     33.470    496.621    509.222    496.621    497.196    496.621
 43.570    479.000    507.286    -28.286    496.503    506.704    496.503    497.089    496.503
 43.670    504.000    505.805     -1.805    496.387    505.209    496.387    496.985    496.387
 43.770    470.000    504.839    -34.839    496.272    504.229    496.272    496.884    496.272
 43.870    492.000    504.146    -12.146    496.158    503.523    496.158    496.784    496.158
 43.970    517.000    503.616     13.384    496.047    502.978    496.047    496.687    496.047
 44.070    528.525    503.196     25.329    495.937    502.543    495.937    496.592    495.937
 44.170    511.000    502.858      8.142    495.829    502.189    495.829    496.499    495.829
 44.270    495.000    502.583     -7.583    495.722    501.898    495.722    496.409    495.722
 44.370    483.000    502.360    -19.360    495.618    501.657    495.618    496.322    495.618
 44.470    474.000    502.179    -28.179    495.514    501.458    495.514    496.237    495.514
 44.570    473.000    502.034    -29.034    495.413    501.294    495.413    496.154    495.413
 44.670    506.000    501.920      4.080    495.313    501.160    495.313    496.074    495.313
 44.770    509.464    501.833      7.631    495.215    501.051    495.215    495.998    495.215
 44.870    521.000    501.771     19.229    495.119    500.967    495.119    495.924    495.119
 44.970    509.000    501.732      7.268    495.024    500.903    495.024    495.852    495.024
 45.070    511.000    501.713      9.287    494.931    500.860    494.931    495.784    494.931
 45.170    530.293    501.715     28.578    494.839    500.835    494.839    495.720    494.839
 45.270    478.544    501.738    -23.194    494.749    500.829    494.749    495.658    494.749
 45.370    483.000    501.780    -18.780    494.661    500.842    494.661    495.600    494.661
 45.470    518.000    501.843     16.157    494.575    500.873    494.575    495.545    494.575
 45.570    486.000    501.927    -15.927    494.490    500.923    494.490    495.495    494.490
 45.670    512.000    502.034      9.966    494.407    500.993    494.407    495.448    494.407
 45.770    501.000    502.165     -1.165    494.325    501.084    494.325    495.406    494.325
 45.870    529.836    502.321     27.514    494.245    501.199    494.245    495.368    494.245
 45.970    497.000    502.507     -5.507    494.167    501.339    494.167    495.335    494.167
 46.070    538.292    502.724     35.568    494.091    501.508    494.091    495.307    494.091
 46.170    537.680    502.978     34.701    494.016    501.709    494.016    495.284    494.016
 46.270    465.320    503.274    -37.954    493.942    501.948    493.942    495.268    493.942
 46.370    522.282    503.619     18.663    493.870    502.230    493.870    495.258    493.870
 46.470    510.000    504.021      5.979    493.800    502.566    493.800    495.255    493.800
 46.570    499.000    504.496     -5.496    493.732    502.967    493.732    495.260    493.732
 46.670    462.516    505.062    -42.546    493.665    503.453    493.665    495.273    493.665
 46.770    491.166    505.759    -14.593    493.600    504.061    493.600    495.295    493.600
 46.870    460.000    506.660    -46.660    493.536    504.866    493.536    495.329    493.536
 46.970    513.000    507.921      5.079    493.474    506.018    493.474    495.374    493.474
 47.070    469.373    509.834    -40.461    493.414    507.812    493.414    495.432    493.414
 47.170    526.000    512.902     13.098    493.355    510.745    493.355    495.505    493.355
 47.270    510.000    517.838     -7.838    493.298    515.531    493.298    495.596    493.298
 47.370    528.470    525.437      3.034    493.242    522.958    493.242    495.706    493.242
 47.470    509.000    536.226    -27.226    493.188    533.552    493.188    495.839    493.188
 47.570    556.000    549.965      6.035    493.135    547.069    493.135    496.000    493.135
 47.670    566.000    565.105      0.895    493.084    561.955    493.084    496.192    493.084
 47.770    582.000    578.427      3.573    493.035    574.987    493.035    496.424    493.035
 47.870    604.000    585.624     18.376    492.987    581.855    492.987    496.703    492.987
 47.970    573.000    583.967    -10.967    492.941    579.815    492.941    497.043    492.941
 48.070    526.000    574.842    -48.842    492.896    570.235    492.896    497.462    492.896
 48.170    539.000    562.346    -23.346    492.853    557.182    492.853    497.986    492.853
 48.270    569.000    550.338     18.662    492.812    544.476    492.812    498.651    492.812
 48.370    557.000    541.103     15.897    492.772    534.349    492.772    499.511    492.772
 48.470    588.000    535.473     52.527    492.733    527.560    492.733    500.636    492.733
 48.570    545.191    533.318     11.873    492.696    523.892    492.696    502.117    492.696
 48.670    534.223    534.089      0.133    492.661    522.682    492.661    504.064    492.661
 48.770    528.000    537.231     -9.231    492.627    523.254    492.627    506.600    492.627
 48.870    576.000    542.396     33.604    492.595    525.143    492.595    509.844    492.595
 48.970    532.000    549.495    -17.495    492.564    528.164    492.564    513.892    492.564
 49.070    522.827    558.700    -35.873    492.534    532.456    492.534    518.775    492.534
 49.170    548.000    570.591    -22.591    492.506    538.691    492.506    524.403    492.506
 49.270    543.453    586.731    -43.278    492.480    548.724    492.480    530.481    492.480
 49.370    634.000    611.056     22.944    492.455    567.101    492.455    536.400    492.455
 49.470    694.092    652.371     41.721    492.432    603.587    492.432    541.196    492.432
 49.570    694.000    727.264    -33.264    492.410    675.864    492.410    543.769    492.410
 49.670    825.390    860.604    -35.214    492.389    809.527    492.389    543.397    492.389
 49.770   1045.558   1078.876    -33.318    492.370   1030.950    492.370    540.190    492.370
 49.870   1406.000   1393.534     12.466    492.353   1350.731    492.353    535.017    492.353
 49.970   1731.371   1779.251    -47.880    492.337   1742.467    492.337    528.977    492.337
 50.070   2143.000   2159.907    -16.907    492.322   2129.175    492.322    522.951    492.322
 50.170   2387.493   2419.104    -31.611    492.309   2393.938    492.309    517.465    492.309
 50.270   2478.000   2452.440     25.560    492.297   2432.082    492.297    512.759    492.297
 50.370   2183.000   2243.069    -60.069    492.287   2226.657    492.287    508.887    492.287
 50.470   1948.911   1878.064     70.847    492.278   1864.755    492.278    505.800    492.278
 50.570   1455.000   1479.861    -24.861    492.270   1468.928    492.270    503.395    492.270
 50.670   1043.000   1139.996    -96.996    492.264   1130.858    492.264    501.550    492.264
 50.770    850.000    898.315    -48.315    492.259    890.534    492.259    500.143    492.259
 50.870    735.000    751.543    -16.543    492.256    744.798    492.256    499.071    492.256
 50.970    711.000    673.752     37.248    492.254    667.812    492.254    498.245    492.254
 51.070    634.888    635.452     -0.564    492.254    630.147    492.254    497.600    492.254
 51.170    642.082    614.364     27.718    492.255    609.566    492.255    497.087    492.255
 51.270    582.913    598.430    -15.516    492.257    594.044    492.257    496.673    492.257
 51.370    561.000    583.677    -22.677    492.260    579.628    492.260    496.334    492.260
 51.470    570.000    570.077     -0.077    492.265    566.311    492.265    496.052    492.265
 51.570    544.910    558.499    -13.589    492.271    554.969    492.271    495.816    492.271
 51.670    552.000    549.508      2.492    492.279    546.181    492.279    495.617    492.279
 51.770    570.000    543.173     26.827    492.288    540.018    492.288    495.450    492.288
 51.870    532.223    539.186     -6.963    492.298    536.180    492.298    495.310    492.298
 51.970    497.000    537.086    -40.086    492.310    534.208    492.310    495.193    492.310
 52.070    491.000    536.456    -45.456    492.322    533.687    492.322    495.095    492.322
 52.170    511.028    537.041    -26.013    492.337    534.366    492.337    495.015    492.337
 52.270    549.000    538.825     10.175    492.352    536.230    492.352    494.950    492.352
 52.370    526.000    542.115    -16.115    492.369    539.587    492.369    494.899    492.369
 52.470    587.655    547.716     39.939    492.387    545.245    492.387    494.861    492.387
 52.570    560.375    557.238      3.138    492.406    554.812    492.406    494.833    492.406
 52.670    552.388    573.444    -21.056    492.427    571.055    492.427    494.816    492.427
 52.770    604.018    600.457      3.561    492.448    598.096    492.448    494.809    492.448
 52.870    656.729    643.407     13.322    492.471    641.067    492.471    494.810    492.471
 52.970    724.000    707.169     16.831    492.496    704.844    492.496    494.820    492.496
 53.070    807.855    794.079     13.775    492.521    791.763    492.521    494.837    492.521
 53.170    851.879    901.048    -49.169    492.548    898.735    492.548    494.862    492.548
 53.270   1012.114   1016.752     -4.638    492.576   1014.441    492.576    494.895    492.576
 53.370   1086.802   1120.022    -33.219    492.605   1117.709    492.605    494.934    492.605
 53.470   1163.000   1182.886    -19.886    492.635   1180.570    492.635    494.980    492.635
 53.570   1224.000   1183.387     40.613    492.667   1181.060    492.667    495.033    492.667
 53.670   1075.204   1121.461    -46.257    492.699   1119.113    492.699    495.093    492.699
 53.770   1024.000   1019.004      4.996    492.733   1016.622    492.733    495.159    492.733
 53.870    940.402    904.002     36.400    492.768    901.577    492.768    495.232    492.768
 53.970    831.339    797.677     33.663    492.804    795.200    492.804    495.312    492.804
 54.070    646.000    711.394    -65.394    492.842    708.860    492.842    495.399    492.842
 54.170    670.858    648.281     22.578    492.880    645.684    492.880    495.492    492.880
 54.270    652.869    606.019     46.850    492.920    603.355    492.920    495.594    492.920
 54.370    637.000    579.741     57.259    492.960    577.006    492.960    495.703    492.960
 54.470    631.000    564.314     66.686    493.002    561.502    493.002    495.820    493.002
 54.570    554.000    555.610     -1.610    493.045    552.713    493.045    495.945    493.045
 54.670    615.000    550.849     64.151    493.089    547.861    493.089    496.080    493.089
 54.770    544.000    548.401     -4.401    493.134    545.314    493.134    496.224    493.134
 54.870    596.000    547.411     48.589    493.180    544.217    493.180    496.378    493.180
 54.970    601.000    547.472     53.528    493.227    544.160    493.227    496.542    493.227
 55.070    575.660    548.413     27.247    493.276    544.972    493.276    496.719    493.276
 55.170    528.000    550.191    -22.191    493.325    546.611    493.325    496.907    493.325
 55.270    527.308    552.837    -25.528    493.375    549.104    493.375    497.110    493.375
 55.370    594.001    556.452     37.549    493.427    552.554    493.427    497.327    493.427
 55.470    592.000    561.241     30.759    493.479    557.161    493.479    497.561    493.479
 55.570    552.239    567.606    -15.367    493.533    563.328    493.533    497.812    493.533
 55.670    584.000    576.372      7.628    493.587    571.878    493.587    498.083    493.587
 55.770    567.000    589.247    -22.247    493.642    584.514    493.642    498.377    493.642
 55.870    638.000    609.621     28.379    493.699    604.625    493.699    498.694    493.699
 55.970    649.903    643.700      6.203    493.756    638.414    493.756    499.038    493.756
 56.070    665.000    701.619    -36.619    493.814    696.011    493.814    499.413    493.814
 56.170    743.000    797.670    -54.670    493.874    791.704    493.874    499.823    493.874
 56.270    916.000    948.369    -32.369    493.934    942.004    493.934    500.271    493.934
 56.370   1124.000   1167.341    -43.341    493.995   1160.535    493.995    500.764    493.995
 56.470   1462.000   1457.347      4.653    494.057   1450.059    494.057    501.308    494.057
 56.570   1757.000   1801.511    -44.511    494.120   1793.696    494.120    501.910    494.120
 56.670   2182.659   2156.711     25.948    494.184   2148.324    494.184    502.580    494.184
 56.770   2468.530   2453.060     15.470    494.249   2444.047    494.249    503.330    494.249
 56.870   2620.000   2609.257     10.743    494.314   2599.546    494.314    504.174    494.314
 56.970   2585.000   2573.077     11.923    494.381   2562.552    494.381    505.133    494.381
 57.070   2402.000   2358.672     43.328    494.448   2347.161    494.448    506.233    494.448
 57.170   1983.884   2034.819    -50.935    494.516   2022.102    494.516    507.510    494.516
 57.270   1658.000   1681.221    -23.221    494.585   1667.035    494.585    509.018    494.585
 57.370   1423.522   1358.224     65.298    494.655   1342.247    494.655    510.830    494.655
 57.470   1156.765   1098.795     57.970    494.726   1080.615    494.726    513.053    494.726
 57.570    930.000    911.842     18.158    494.798    890.911    494.798    515.828    494.798
 57.670    837.000    790.066     46.934    494.870    765.651    494.870    519.348    494.870
 57.770    770.000    718.906     51.094    494.943    690.030    494.943    523.856    494.943
 57.870    688.704    683.748      4.957    495.017    649.140    495.017    529.644    495.017
 57.970    654.363    673.969    -19.606    495.092    632.029    495.092    537.039    495.092
 58.070    691.000    683.976      7.024    495.167    632.763    495.167    546.378    495.167
 58.170    700.288    712.273    -11.985    495.243    649.542    495.243    557.963    495.243
 58.270    751.059    759.576     -8.517    495.320    682.875    495.320    572.000    495.320
 58.370    846.457    826.677     19.780    495.398    733.521    495.398    588.523    495.398
 58.470    917.029    912.450      4.579    495.477    800.613    495.477    607.277    495.477
 58.570   1054.600   1012.285     42.315    495.556    880.255    495.556    627.548    495.556
 58.670    997.000   1117.431   -120.431    495.636    965.087    495.636    647.949    495.636
 58.770   1189.882   1216.334    -26.451    495.716   1045.777    495.716    666.254    495.716
 58.870   1220.000   1297.762    -77.762    495.797   1113.985    495.797    679.572    495.797
 58.970   1362.000   1352.573      9.427    495.879   1163.297    495.879    685.172    495.879
 59.070   1321.095   1373.394    -52.299    495.962   1187.642    495.962    681.748    495.962
 59.170   1455.000   1356.968     98.032    496.045   1182.898    496.045    670.162    496.045
 59.270   1340.000   1309.008     30.992    496.129   1152.255    496.129    652.929    496.129
 59.370   1355.000   1244.170    110.830    496.213   1107.432    496.213    632.984    496.213
 59.470   1284.000   1179.857    104.143    496.298   1063.434    496.298    612.728    496.298
 59.570   1240.000   1131.494    108.506    496.384   1034.118    496.384    593.730    496.384
 59.670   1165.000   1112.140     52.860    496.470   1031.698    496.470    576.840    496.470
 59.770   1131.000   1131.711     -0.711    496.557   1065.742    496.557    562.404    496.557
 59.870   1250.000   1193.041     56.959    496.645   1139.064    496.645    550.447    496.645
 59.970   1316.000   1287.814     28.186    496.733   1243.531    496.733    540.795    496.733
 60.070   1471.000   1395.271     75.729    496.821   1358.675    496.821    533.162    496.821
 60.170   1468.858   1484.355    -15.497    496.910   1453.782    496.910    527.218    496.910
 60.270   1470.811   1521.621    -50.810    497.000   1495.744    497.000    522.632    497.000
 60.370   1495.000   1486.466      8.534    497.090   1464.255    497.090    519.104    497.090
 60.470   1421.000   1383.534     37.466    497.181   1364.194    497.181    516.381    497.181
 60.570   1301.000   1237.975     63.025    497.272   1220.897    497.272    514.262    497.272
 60.670   1048.000   1080.191    -32.191    497.363   1064.910    497.363    512.597    497.363
 60.770    896.000    934.684    -38.684    497.456    920.842    497.456    511.276    497.456
 60.870    785.000    816.143    -31.143    497.548    803.461    497.548    510.222    497.548
 60.970    682.947    729.884    -46.937    497.641    718.140    497.641    509.381    497.641
 61.070    676.000    674.618      1.382    497.735    663.630    497.735    508.717    497.735
 61.170    634.505    646.156    -11.651    497.829    635.771    497.829    508.202    497.829
 61.270    632.341    640.730     -8.390    497.923    630.819    497.923    507.814    497.923
 61.370    691.000    656.992     34.008    498.018    647.444    498.018    507.533    498.018
 61.470    707.000    696.318     10.682    498.113    687.045    498.113    507.338    498.113
 61.570    777.000    761.542     15.458    498.209    752.480    498.209    507.201    498.209
 61.670    864.000    854.480      9.520    498.305    845.602    498.305    507.087    498.305
 61.770   1002.354    972.934     29.420    498.401    964.254    498.401    506.958    498.401
 61.870   1122.000   1108.035     13.965    498.498   1099.609    498.498    506.777    498.498
 61.970   1246.167   1242.793      3.373    498.595   1234.706    498.595    506.522    498.595
 62.070   1337.000   1352.861    -15.861    498.692   1345.201    498.692    506.196    498.692
 62.170   1390.000   1411.828    -21.828    498.790   1404.666    498.790    505.818    498.790
 62.270   1359.000   1402.570    -43.570    498.888   1395.942    498.888    505.419    498.888
 62.370   1303.000   1327.602    -24.602    498.986   1321.504    498.986    505.028    498.986
 62.470   1203.000   1207.273     -4.273    499.084   1201.673    499.084    504.662    499.084
 62.570   1080.000   1068.142     11.858    499.183   1062.991    499.183    504.334    499.183
 62.670    959.336    932.983     26.352    499.282    928.229    499.282    504.049    499.282
 62.770    799.764    816.702    -16.939    499.382    812.292    499.382    503.807    499.382
 62.870    677.000    726.060    -49.060    499.481    721.946    499.481    503.608    499.481
 62.970    658.000    661.265     -3.265    499.581    657.408    499.581    503.447    499.581
 63.070    591.000    618.451    -27.451    499.681    614.816    499.681    503.321    499.681
 63.170    591.000    592.187     -1.187    499.782    588.745    499.782    503.224    499.782
 63.270    581.000    577.354      3.646    499.882    574.081    499.882    503.153    499.882
 63.370    558.000    570.147    -12.147    499.983    567.023    499.983    503.102    499.983
 63.470    582.000    568.371     13.629    500.084    565.378    500.084    503.070    500.084
 63.570    584.000    571.328     12.672    500.185    568.452    500.185    503.051    500.185
 63.670    575.515    579.566     -4.052    500.286    576.793    500.286    503.045    500.286
 63.770    624.000    594.565     29.435    500.388    591.883    500.388    503.049    500.388
 63.870    647.948    618.333     29.615    500.489    615.730    500.489    503.062    500.489
 63.970    692.000    652.834     39.166    500.591    650.299    500.591    503.082    500.591
 64.070    681.000    699.216    -18.216    500.692    696.740    500.692    503.110    500.692
 64.170    712.990    756.935    -43.945    500.794    754.510    500.794    503.143    500.794
 64.270    827.000    822.901      4.099    500.896    820.521    500.896    503.181    500.896
 64.370    905.000    890.874     14.126    500.998    888.538    500.998    503.225    500.998
 64.470    948.000    951.547     -3.547    501.100    949.258    501.100    503.273    501.100
 64.570   1025.000    994.319     30.681    501.202    992.082    501.202    503.325    501.202
 64.670   1035.000   1011.161     23.839    501.305   1008.984    501.305    503.381    501.305
 64.770   1019.855   1000.070     19.785    501.407    997.957    501.407    503.441    501.407
 64.870    966.722    965.131      1.591    501.509    963.082    501.509    503.504    501.509
 64.970    883.366    914.214    -30.848    501.611    912.226    501.611    503.570    501.611
 65.070    874.034    856.330     17.705    501.714    854.396    501.714    503.639    501.714
 65.170    745.000    799.176    -54.176    501.816    797.290    501.816    503.710    501.816
 65.270    722.000    747.621    -25.621    501.918    745.774    501.918    503.785    501.918
 65.370    681.000    703.674    -22.674    502.020    701.859    502.020    503.862    502.020
 65.470    607.000    667.523    -60.523    502.122    665.731    502.122    503.941    502.122
 65.570    636.000    638.601     -2.601    502.225    636.827    502.225    504.022    502.225
 65.670    594.655    616.086    -21.431    502.327    614.327    502.327    504.106    502.327
 65.770    592.000    599.022     -7.022    502.429    597.274    502.429    504.192    502.429
 65.870    627.198    586.437     40.761    502.530    584.699    502.530    504.279    502.530
 65.970    569.000    577.478     -8.478    502.632    575.749    502.632    504.369    502.632
 66.070    570.000    571.464     -1.464    502.734    569.742    502.734    504.461    502.734
 66.170    555.340    567.877    -12.538    502.835    566.162    502.835    504.554    502.835
 66.270    552.000    566.332    -14.332    502.937    564.621    502.937    504.649    502.937
 66.370    562.000    566.562     -4.562    503.038    564.855    503.038    504.747    503.038
 66.470    571.000    568.449      2.551    503.139    566.745    503.139    504.845    503.139
 66.570    555.000    572.094    -17.094    503.240    570.391    503.240    504.946    503.240
 66.670    539.000    577.954    -38.954    503.341    576.249    503.341    505.048    503.341
 66.770    576.062    587.054    -10.992    503.442    585.346    503.442    505.153    503.442
 66.870    600.000    601.311     -1.311    503.542    599.597    503.542    505.259    503.542
 66.970    596.185    623.929    -27.745    503.642    622.207    503.642    505.367    503.642
 67.070    665.000    659.779      5.221    503.742    658.044    503.742    505.476    503.742
 67.170    716.000    715.526      0.474    503.842    713.777    503.842    505.588    503.842
 67.270    793.439    799.227     -5.788    503.942    797.462    503.942    505.701    503.942
 67.370    871.957    919.077    -47.121    504.041    917.295    504.041    505.817    504.041
 67.470   1060.000   1081.224    -21.224    504.140   1079.427    504.140    505.935    504.140
 67.570   1319.000   1286.863     32.137    504.239   1285.057    504.239    506.055    504.239
 67.670   1490.590   1529.256    -38.665    504.337   1527.450    504.337    506.177    504.337
 67.770   1854.000   1791.403     62.597    504.435   1789.608    504.435    506.302    504.435
 67.870   2041.000   2045.104     -4.104    504.533   2043.332    504.533    506.429    504.533
 67.970   2349.000   2252.635     96.365    504.631   2250.897    504.631    506.559    504.631
 68.070   2465.772   2373.902     91.870    504.728   2372.199    504.728    506.692    504.728
 68.170   2447.000   2380.797     66.203    504.825   2379.116    504.825    506.828    504.825
 68.270   2321.000   2271.591     49.409    504.921   2269.901    504.921    506.967    504.921
 68.370   2132.097   2072.001     60.096    505.017   2070.267    505.017    507.110    505.017
 68.470   1827.996   1821.693      6.302    505.113   1819.883    505.113    507.257    505.113
 68.570   1497.000   1559.203    -62.203    505.209   1557.292    505.209    507.407    505.209
 68.670   1358.000   1313.946     44.054    505.304   1311.922    505.304    507.563    505.304
 68.770   1048.636   1104.142    -55.506    505.398   1101.999    505.398    507.723    505.398
 68.870    977.000    937.561     39.439    505.492    935.298    505.492    507.889    505.492
 68.970    788.000    813.732    -25.732    505.586    811.352    505.586    508.061    505.586
 69.070    749.000    726.893     22.107    505.680    724.398    505.680    508.239    505.680
 69.170    643.000    668.934    -25.934    505.772    666.326    505.772    508.424    505.772
 69.270    589.746    631.690    -41.944    505.865    628.966    505.865    508.618    505.865
 69.370    621.690    608.287     13.403    505.957    605.445    505.957    508.820    505.957
 69.470    625.269    593.632     31.637    506.048    590.663    506.048    509.032    506.048
 69.570    566.000    584.309    -18.309    506.139    581.205    506.139    509.254    506.139
 69.670    545.000    578.215    -33.215    506.230    574.964    506.230    509.489    506.230
 69.770    548.355    574.140    -25.785    506.320    570.729    506.320    509.738    506.320
 69.870    569.000    571.427     -2.427    506.410    567.840    506.410    510.002    506.410
 69.970    544.000    569.736    -25.736    506.498    565.955    506.498    510.283    506.498
 70.070    561.464    568.906     -7.442    506.587    564.911    506.587    510.584    506.587
 70.170    601.000    568.884     32.116    506.675    564.653    506.675    510.908    506.675
 70.270    610.358    569.706     40.653    506.762    565.211    506.762    511.257    506.762
 70.370    549.000    571.511    -22.511    506.849    566.723    506.849    511.636    506.849
 70.470    557.430    574.604    -17.175    506.935    569.487    506.935    512.050    506.935
 70.570    563.851    579.554    -15.703    507.021    574.065    507.021    512.506    507.021
 70.670    586.457    587.350     -0.892    507.106    581.437    507.106    513.011    507.106
 70.770    569.000    599.600    -30.600    507.190    593.199    507.190    513.579    507.190
 70.870    590.000    618.739    -28.739    507.274    611.770    507.274    514.225    507.274
 70.970    637.000    648.166    -11.166    507.357    640.522    507.357    514.974    507.357
 71.070    675.000    692.189    -17.189    507.440    683.729    507.440    515.859    507.440
 71.170    778.000    755.640     22.360    507.521    746.173    507.521    516.930    507.521
 71.270    792.609    843.057    -50.448    507.603    832.325    507.603    518.255    507.603
 71.370    867.000    957.442    -90.442    507.683    945.095    507.683    519.926    507.683
 71.470   1138.000   1098.768     39.232    507.763   1084.337    507.763    522.065    507.763
 71.570   1254.000   1262.528     -8.528    507.842   1245.395    507.842    524.823    507.842
 71.670   1467.000   1438.669     28.331    507.921   1418.040    507.921    528.380    507.921
 71.770   1617.223   1611.176      6.048    507.998   1586.061    507.998    532.936    507.998
 71.870   1704.000   1758.798    -54.798    508.075   1728.010    508.075    538.694    508.075
 71.970   1840.651   1858.193    -17.542    508.152   1820.364    508.152    545.833    508.152
 72.070   1931.000   1890.780     40.220    508.227   1844.412    508.227    554.481    508.227
 72.170   1870.000   1851.093     18.907    508.302   1794.650    508.302    564.667    508.302
 72.270   1804.000   1749.801     54.199    508.376   1681.849    508.376    576.284    508.376
 72.370   1611.000   1608.085      2.915    508.450   1527.483    508.450    589.032    508.450
 72.470   1493.391   1448.892     44.499    508.522   1355.053    508.522    602.360    508.522
 72.570   1312.474   1291.195     21.278    508.594   1184.395    508.594    615.402    508.594
 72.670   1012.000   1147.880   -135.880    508.665   1029.598    508.665    626.959    508.665
 72.770   1032.629   1025.662      6.968    508.735    898.810    508.735    635.600    508.735
 72.870    882.567    926.095    -43.529    508.804    794.925    508.804    639.986    508.804
 72.970    857.135    847.294      9.841    508.873    716.831    508.873    639.345    508.873
 73.070    790.000    785.773      4.227    508.940    660.907    508.940    633.814    508.940
 73.170    721.000    737.821    -16.821    509.007    622.467    509.007    624.367    509.007
 73.270    661.000    700.192    -39.192    509.073    596.862    509.073    612.408    509.073
 73.370    634.000    670.326    -36.326    509.138    580.146    509.138    599.323    509.138
 73.470    614.000    646.355    -32.355    509.203    569.342    509.203    586.220    509.203
 73.570    624.871    627.005     -2.134    509.266    562.402    509.266    573.874    509.266
 73.670    600.000    611.459    -11.459    509.329    558.033    509.329    562.761    509.329
 73.770    626.000    599.198     26.802    509.390    555.474    509.390    553.123    509.390
 73.870    624.741    589.856     34.885    509.451    554.292    509.451    545.026    509.451
 73.970    549.000    583.106    -34.106    509.511    554.223    509.511    538.410    509.511
 74.070    598.152    578.593     19.559    509.570    555.055    509.570    533.129    509.570
 74.170    598.000    575.897     22.103    509.628    556.555    509.628    528.995    509.628
 74.270    583.913    574.518      9.395    509.685    558.430    509.685    525.804    509.685
 74.370    603.000    573.889     29.111    509.741    560.306    509.741    523.361    509.741
 74.470    631.000    573.401     57.599    509.796    561.746    509.796    521.492    509.796
 74.570    538.994    572.483    -33.489    509.850    562.322    509.850    520.054    509.850
 74.670    624.000    570.733     53.267    509.903    561.746    509.903    518.935    509.903
 74.770    595.518    568.042     27.476    509.955    559.991    509.955    518.049    509.955
 74.870    604.308    564.607     39.701    510.007    557.320    510.007    517.332    510.007
 74.970    624.000    560.833     63.167    510.057    554.182    510.057    516.742    510.057
 75.070    618.000    557.200     60.800    510.106    551.087    510.106    516.247    510.106
 75.170    580.000    554.191     25.809    510.154    548.543    510.154    515.824    510.154
 75.270    565.615    552.278     13.337    510.201    547.035    510.201    515.459    510.201
 75.370    580.000    551.929     28.071    510.247    547.044    510.247    515.142    510.247
 75.470    539.701    553.622    -13.921    510.293    549.054    510.293    514.863    510.293
 75.570    597.000    557.836     39.164    510.337    553.552    510.337    514.617    510.337
 75.670    576.000    565.018     10.982    510.380    560.989    510.380    514.400    510.380
 75.770    601.000    575.512     25.488    510.422    571.711    510.422    514.206    510.422
 75.870    590.000    589.447      0.553    510.462    585.852    510.462    514.033    510.462
 75.970    621.000    606.614     14.386    510.502    603.206    510.502    513.879    510.502
 76.070    648.000    626.351     21.649    510.541    623.111    510.541    513.741    510.541
 76.170    670.654    647.448     23.205    510.579    644.363    510.579    513.617    510.579
 76.270    678.000    668.127      9.873    510.615    665.183    510.615    513.506    510.615
 76.370    733.412    686.090     47.322    510.650    683.277    510.650    513.405    510.650
 76.470    704.000    698.786      5.214    510.685    696.097    510.685    513.315    510.685
 76.570    664.677    704.003    -39.326    510.718    701.431    510.718    513.233    510.718
 76.670    714.616    700.684     13.932    510.750    698.223    510.750    513.158    510.750
 76.770    700.000    689.410     10.590    510.781    687.055    510.781    513.091    510.781
 76.870    662.001    672.114    -10.113    510.811    669.858    510.811    513.029    510.811
 76.970    652.000    651.295      0.705    510.839    649.132    510.839    512.973    510.839
 77.070    687.000    629.338     57.662    510.867    627.260    510.867    512.922    510.867
 77.170    622.000    608.158     13.842    510.893    606.159    510.893    512.875    510.893
 77.270    601.560    589.091     12.469    510.918    587.166    510.918    512.832    510.918
 77.370    536.000    572.900    -36.900    510.942    571.043    510.942    512.792    510.942
 77.470    532.000    559.845    -27.845    510.965    558.049    510.965    512.755    510.965
 77.570    534.000    549.795    -15.795    510.986    548.057    510.986    512.721    510.986
 77.670    537.000    542.373     -5.373    511.007    540.688    511.007    512.690    511.007
 77.770    576.206    537.082     39.123    511.026    535.446    511.026    512.660    511.026
 77.870    537.000    533.413      3.587    511.044    531.823    511.044    512.632    511.044
 77.970    503.000    530.914    -27.914    511.060    529.367    511.060    512.606    511.060
 78.070    468.000    529.223    -61.223    511.076    527.716    511.076    512.582    511.076
 78.170    503.000    528.073    -25.073    511.090    526.604    511.090    512.559    511.090
 78.270    552.788    527.283     25.505    511.103    525.849    511.103    512.537    511.103
 78.370    572.000    526.735     45.265    511.115    525.334    511.115    512.516    511.115
 78.470    468.000    526.362    -58.362    511.125    524.991    511.125    512.496    511.125
 78.570    500.000    526.128    -26.128    511.135    524.786    511.135    512.477    511.135
 78.670    519.000    526.021     -7.021    511.143    524.704    511.143    512.458    511.143
 78.770    568.386    526.041     42.344    511.149    524.749    511.149    512.441    511.149
 78.870    530.000    526.200      3.800    511.155    524.929    511.155    512.425    511.155
 78.970    510.000    526.500    -16.500    511.159    525.248    511.159    512.410    511.159
 79.070    516.000    526.970    -10.970    511.162    525.735    511.162    512.396    511.162
 79.170    475.000    527.673    -52.673    511.164    526.451    511.164    512.384    511.164
 79.270    523.000    528.608     -5.608    511.164    527.397    511.164    512.373    511.164
 79.370    559.199    529.799     29.400    511.163    528.595    511.163    512.365    511.163
 79.470    485.000    531.278    -46.278    511.161    530.077    511.161    512.358    511.161
 79.570    466.000    533.086    -67.086    511.157    531.885    511.157    512.354    511.157
 79.670    511.000    535.289    -24.289    511.152    534.085    511.152    512.352    511.152
 79.770    571.000    537.989     33.011    511.146    536.777    511.146    512.353    511.146
 79.870    567.261    541.340     25.921    511.138    540.117    511.138    512.357    511.138
 79.970    509.978    545.565    -35.587    511.129    544.328    511.129    512.362    511.129
 80.070    508.023    550.978    -42.955    511.119    549.724    511.119    512.370    511.119
 80.170    533.000    557.975    -24.975    511.107    556.703    511.107    512.377    511.107
 80.270    599.000    567.000     32.000    511.094    565.710    511.094    512.385    511.094
 80.370    580.823    578.454      2.369    511.080    577.147    511.080    512.389    511.080
 80.470    570.000    592.589    -22.589    511.064    591.270    511.064    512.389    511.064
 80.570    615.000    609.409      5.591    511.047    608.085    511.047    512.382    511.047
 80.670    646.000    628.589     17.411    511.029    627.268    511.029    512.365    511.029
 80.770    622.000    649.433    -27.433    511.009    648.126    511.009    512.337    511.009
 80.870    632.196    670.896    -38.699    510.988    669.614    510.988    512.297    510.988
 80.970    704.000    691.687     12.313    510.965    690.440    510.965    512.248    510.965
 81.070    688.000    710.457    -22.457    510.941    709.251    510.941    512.189    510.941
 81.170    710.040    725.975    -15.935    510.916    724.815    510.916    512.125    510.916
 81.270    748.136    737.250     10.886    510.889    736.137    510.889    512.059    510.889
 81.370    740.000    743.601     -3.601    510.861    742.533    510.861    511.990    510.861
 81.470    758.000    744.734     13.266    510.832    743.710    510.832    511.922    510.832
 81.570    731.000    740.754     -9.754    510.801    739.770    510.801    511.855    510.801
 81.670    705.585    732.113    -26.528    510.768    731.164    510.768    511.789    510.768
 81.770    741.135    719.569     21.566    510.735    718.651    510.735    511.725    510.735
 81.870    693.772    704.166    -10.394    510.699    703.273    510.699    511.663    510.699
 81.970    732.387    687.105     45.282    510.663    686.233    510.663    511.603    510.663
 82.070    622.056    669.515    -47.459    510.625    668.661    510.625    511.544    510.625
 82.170    628.000    652.240    -24.240    510.585    651.399    510.585    511.488    510.585
 82.270    621.000    635.767    -14.767    510.545    634.937    510.545    511.432    510.545
 82.370    617.000    620.317     -3.317    510.502    619.495    510.502    511.377    510.502
 82.470    624.474    606.010     18.464    510.459    605.194    510.459    511.322    510.459
 82.570    573.000    592.988    -19.988    510.413    592.175    510.413    511.268    510.413
 82.670    615.846    581.442     34.405    510.367    580.629    510.367    511.214    510.367
 82.770    568.000    571.571     -3.571    510.319    570.758    510.319    511.159    510.319
 82.870    528.563    563.547    -34.984    510.269    562.733    510.269    511.104    510.269
 82.970    589.000    557.489     31.511    510.218    556.672    510.218    511.049    510.218
 83.070    561.290    553.455      7.834    510.166    552.635    510.166    510.992    510.166
 83.170    525.000    551.432    -26.432    510.112    550.607    510.112    510.935    510.112
 83.270    563.665    551.316     12.348    510.057    550.487    510.057    510.877    510.057
 83.370    563.000    552.907     10.093    510.000    552.073    510.000    510.817    510.000
 83.470    575.000    555.891     19.109    509.942    555.052    509.942    510.757    509.942
 83.570    523.087    559.850    -36.762    509.882    559.006    509.882    510.696    509.882
 83.670    593.649    564.267     29.382    509.821    563.419    509.821    510.634    509.821
 83.770    529.333    568.551    -39.218    509.758    567.699    509.758    510.570    509.758
 83.870    582.375    572.076     10.299    509.694    571.222    509.694    510.506    509.694
 83.970    585.000    574.256     10.744    509.629    573.400    509.629    510.440    509.629
 84.070    579.000    574.660      4.340    509.562    573.805    509.562    510.373    509.562
 84.170    560.000    573.126    -13.126    509.493    572.273    509.493    510.305    509.493
 84.270    533.000    569.808    -36.808    509.423    568.957    509.423    510.236    509.423
 84.370    565.000    565.098     -0.098    509.352    564.251    509.352    510.165    509.352
 84.470    562.828    559.507      3.321    509.279    558.663    509.279    510.094    509.279
 84.570    494.000    553.545    -59.545    509.204    552.705    509.204    510.021    509.204
 84.670    531.000    547.657    -16.657    509.128    546.819    509.128    509.947    509.128
 84.770    556.872    542.185     14.687    509.051    541.348    509.051    509.872    509.051
 84.870    556.079    537.362     18.717    508.972    536.527    508.972    509.796    508.972
 84.970    554.000    533.315     20.685    508.892    532.479    508.892    509.718    508.892
 85.070    526.742    530.076     -3.334    508.810    529.239    508.810    509.639    508.810
 85.170    504.699    527.607    -22.908    508.727    526.768    508.727    509.560    508.727
 85.270    516.642    525.829     -9.186    508.642    524.987    508.642    509.478    508.642
 85.370    508.727    524.643    -15.917    508.556    523.798    508.556    509.396    508.556
 85.470    544.000    523.958     20.042    508.468    523.108    508.468    509.313    508.468
 85.570    538.522    523.702     14.820    508.379    522.847    508.379    509.228    508.379
 85.670    535.000    523.832     11.168    508.288    522.972    508.288    509.143    508.288
 85.770    508.847    524.348    -15.501    508.196    523.482    508.196    509.056    508.196
 85.870    536.000    525.286     10.714    508.102    524.413    508.102    508.968    508.102
 85.970    528.000    526.724      1.276    508.007    525.842    508.007    508.878    508.007
 86.070    544.000    528.774     15.226    507.911    527.883    507.911    508.788    507.911
 86.170    522.000    531.580     -9.580    507.813    530.679    507.813    508.697    507.813
 86.270    551.000    535.300     15.700    507.713    534.387    507.713    508.604    507.713
 86.370    555.989    540.089     15.900    507.612    539.163    507.612    508.511    507.612
 86.470    533.000    546.077    -13.077    507.509    545.136    507.509    508.416    507.509
 86.570    558.000    553.336      4.664    507.405    552.378    507.405    508.320    507.405
 86.670    531.607    561.848    -30.241    507.300    560.872    507.300    508.223    507.300
 86.770    561.000    571.477    -10.477    507.193    570.481    507.193    508.125    507.193
 86.870    579.000    581.942     -2.942    507.085    580.925    507.085    508.026    507.085
 86.970    628.460    592.800     35.660    506.975    591.763    506.975    507.927    506.975
 87.070    617.000    603.450     13.550    506.863    602.392    506.863    507.826    506.863
 87.170    627.000    613.145     13.855    506.750    612.068    506.750    507.724    506.750
 87.270    666.422    621.056     45.366    506.636    619.962    506.636    507.621    506.636
 87.370    662.865    626.390     36.475    506.520    625.281    506.520    507.518    506.520
 87.470    649.481    628.562     20.919    506.403    627.443    506.403    507.413    506.403
 87.570    662.000    627.375     34.625    506.285    626.248    506.285    507.308    506.285
 87.670    620.000    623.080     -3.080    506.164    621.948    506.164    507.202    506.164
 87.770    653.171    616.301     36.870    506.043    615.165    506.043    507.095    506.043
 87.870    646.598    607.865     38.733    505.920    606.726    505.920    506.987    505.920
 87.970    580.552    598.658    -18.105    505.795    597.516    505.795    506.879    505.795
 88.070    642.000    589.520     52.480    505.669    588.373    505.669    506.770    505.669
 88.170    631.000    581.190     49.810    505.542    580.037    505.542    506.661    505.542
 88.270    602.000    574.261     27.739    505.413    573.100    505.413    506.551    505.413
 88.370    607.000    569.161     37.839    505.283    567.990    505.283    506.440    505.283
 88.470    587.000    566.141     20.859    505.151    564.958    505.151    506.330    505.151
 88.570    590.000    565.270     24.730    505.018    564.074    505.018    506.219    505.018
 88.670    551.828    566.446    -14.619    504.884    565.235    504.884    506.107    504.884
 88.770    571.000    569.411      1.589    504.748    568.183    504.748    505.996    504.748
 88.870    588.000    573.762     14.238    504.610    572.516    504.610    505.884    504.610
 88.970    591.000    578.982     12.018    504.471    577.716    504.471    505.773    504.471
 89.070    603.000    584.458     18.542    504.331    583.171    504.331    505.662    504.331
 89.170    619.159    589.519     29.639    504.190    588.208    504.190    505.551    504.190
 89.270    613.000    593.489     19.511    504.047    592.151    504.047    505.441    504.047
 89.370    554.856    595.768    -40.912    503.902    594.400    503.902    505.331    503.902
 89.470    567.000    595.947    -28.947    503.756    594.545    503.756    505.222    503.756
 89.570    580.000    593.898    -13.898    503.609    592.457    503.609    505.114    503.609
 89.670    526.000    589.795    -63.795    503.461    588.310    503.461    505.007    503.461
 89.770    578.000    584.047     -6.047    503.311    582.514    503.311    504.902    503.311
 89.870    547.000    577.184    -30.184    503.159    575.598    503.159    504.799    503.159
 89.970    567.177    569.750     -2.573    503.007    568.106    503.007    504.698    503.007
 90.070    536.846    562.235    -25.389    502.852    560.529    502.852    504.599    502.852
 90.170    528.000    555.044    -27.044    502.697    553.271    502.697    504.504    502.697
 90.270    557.224    548.476      8.748    502.540    546.631    502.540    504.413    502.540
 90.370    496.000    542.719    -46.719    502.382    540.796    502.382    504.327    502.382
 90.470    493.000    537.884    -44.884    502.223    535.877    502.223    504.247    502.223
 90.570    559.835    534.000     25.835    502.062    531.901    502.062    504.174    502.062
 90.670    529.000    531.015     -2.015    501.900    528.814    501.900    504.110    501.900
 90.770    503.000    528.844    -25.844    501.736    526.529    501.736    504.057    501.736
 90.870    565.000    527.389     37.611    501.571    524.945    501.571    504.019    501.571
 90.970    491.000    526.554    -35.554    501.405    523.963    501.405    503.999    501.405
 91.070    532.000    526.261      5.739    501.238    523.499    501.238    504.001    501.238
 91.170    503.000    526.461    -23.461    501.069    523.499    501.069    504.030    501.069
 91.270    554.609    527.141     27.467    500.899    523.945    500.899    504.094    500.899
 91.370    513.000    528.330    -15.330    500.728    524.857    500.728    504.198    500.728
 91.470    531.000    530.097      0.903    500.555    526.296    500.555    504.352    500.555
 91.570    545.092    532.553     12.539    500.381    528.365    500.381    504.564    500.381
 91.670    550.839    535.851     14.988    500.206    531.206    500.206    504.844    500.206
 91.770    532.173    540.173     -8.001    500.030    534.990    500.030    505.203    500.030
 91.870    574.000    545.725     28.275    499.852    539.914    499.852    505.651    499.852
 91.970    562.000    552.719      9.281    499.673    546.180    499.673    506.196    499.673
 92.070    552.592    561.356     -8.765    499.493    553.981    499.493    506.847    499.493
 92.170    535.000    571.802    -36.802    499.312    563.478    499.312    507.610    499.312
 92.270    596.179    584.160     12.018    499.129    574.771    499.129    508.487    499.129
 92.370    627.440    598.453     28.987    498.945    587.882    498.945    509.478    498.945
 92.470    583.646    614.599    -30.953    498.760    602.738    498.760    510.578    498.760
 92.570    657.174    632.383     24.791    498.574    619.134    498.574    511.773    498.574
 92.670    609.445    651.454    -42.009    498.387    636.740    498.387    513.045    498.387
 92.770    634.790    671.318    -36.528    498.198    655.089    498.198    514.366    498.198
 92.870    645.456    691.355    -45.899    498.009    673.600    498.009    515.697    498.009
 92.970    685.000    710.864    -25.864    497.818    691.623    497.818    516.988    497.818
 93.070    681.785    729.149    -47.364    497.626    708.526    497.626    518.175    497.626
 93.170    791.414    745.620     45.794    497.433    723.792    497.433    519.187    497.433
 93.270    761.000    760.029      0.971    497.238    737.247    497.238    519.947    497.238
 93.370    792.269    772.347     19.921    497.043    748.935    497.043    520.383    497.043
 93.470    785.928    782.753      3.176    496.847    759.083    496.847    520.445    496.847
 93.570    797.431    791.566      5.865    496.649    768.035    496.649    520.112    496.649
 93.670    847.289    799.158     48.132    496.450    776.144    496.450    519.398    496.450
 93.770    766.000    805.923    -39.923    496.250    783.760    496.250    518.350    496.250
 93.870    838.000    812.309     25.691    496.050    791.263    496.050    517.035    496.050
 93.970    851.525    818.827     32.698    495.848    799.087    495.848    515.529    495.848
 94.070    845.324    825.994     19.330    495.645    807.676    495.645    513.907    495.645
 94.170    841.000    834.208      6.792    495.441    817.361    495.441    512.234    495.441
 94.270    893.626    843.585     50.040    495.236    828.207    495.236    510.563    495.236
 94.370    872.000    853.830     18.170    495.030    839.876    495.030    508.935    495.030
 94.470    902.000    864.213     37.787    494.823    851.612    494.823    507.380    494.823
 94.570    929.685    873.617     56.069    494.615    862.274    494.615    505.919    494.615
 94.670    948.000    880.652     67.348    494.406    870.460    494.406    504.565    494.406
 94.770    895.000    883.855     11.145    494.196    874.701    494.196    503.325    494.196
 94.870    900.000    881.960     18.040    493.985    873.726    493.985    502.202    493.985
 94.970    864.522    874.191     -9.668    493.773    866.762    493.773    501.192    493.773
 95.070    907.000    860.480     46.520    493.560    853.747    493.560    500.292    493.560
 95.170    874.000    841.512     32.488    493.346    835.371    493.346    499.493    493.346
 95.270    832.000    818.581     13.419    493.132    812.938    493.132    498.786    493.132
 95.370    830.000    793.362     36.638    492.916    788.130    492.916    498.162    492.916
 95.470    794.000    767.686     26.314    492.700    762.790    492.700    497.611    492.700
 95.570    770.000    743.386     26.614    492.482    738.760    492.482    497.122    492.482
 95.670    730.986    722.198      8.788    492.264    717.786    492.264    496.688    492.264
 95.770    741.000    705.701     35.299    492.045    701.455    492.045    496.299    492.045
 95.870    744.784    695.286     49.498    491.825    691.165    491.825    495.948    491.825
 95.970    690.623    692.141     -1.518    491.605    688.111    491.605    495.630    491.605
 96.070    654.858    697.240    -42.382    491.383    693.273    491.383    495.338    491.383
 96.170    680.000    711.345    -31.345    491.161    707.416    491.161    495.069    491.161
 96.270    753.000    734.982     18.018    490.938    731.070    490.938    494.820    490.938
 96.370    809.000    768.411     40.589    490.714    764.498    490.714    494.587    490.714
 96.470    842.022    811.569     30.453    490.490    807.640    490.490    494.368    490.490
 96.570    841.000    864.001    -23.001    490.264    860.042    490.264    494.163    490.264
 96.670    918.410    924.779     -6.369    490.038    920.779    490.038    493.970    490.038
 96.770   1061.000    992.435     68.565    489.812    988.383    489.812    493.789    489.812
 96.870   1018.493   1064.896    -46.403    489.584   1060.782    489.584    493.618    489.584
 96.970   1176.901   1139.520     37.381    489.356   1135.335    489.356    493.459    489.356
 97.070   1234.000   1213.046     20.954    489.127   1208.783    489.127    493.311    489.127
 97.170   1302.206   1281.706     20.500    488.898   1277.356    488.898    493.174    488.898
 97.270   1421.000   1341.429     79.571    488.668   1336.984    488.668    493.050    488.668
 97.370   1411.445   1388.190     23.255    488.437   1383.641    488.437    492.938    488.437
 97.470   1409.000   1418.543     -9.543    488.206   1413.877    488.206    492.841    488.206
 97.570   1469.671   1430.228     39.443    487.974   1425.432    487.974    492.759    487.974
 97.670   1344.000   1422.630    -78.630    487.742   1417.686    487.742    492.694    487.742
 97.770   1395.401   1396.873     -1.472    487.509   1391.759    487.509    492.650    487.509
 97.870   1400.800   1355.507     45.293    487.276   1350.197    487.276    492.629    487.276
 97.970   1304.000   1301.991      2.009    487.042   1296.454    487.042    492.635    487.042
 98.070   1264.217   1240.175     24.042    486.807   1234.373    486.807    492.673    486.807
 98.170   1225.744   1173.928     51.816    486.572   1167.818    486.572    492.751    486.572
 98.270   1117.000   1106.903     10.097    486.337   1100.434    486.337    492.875    486.337
 98.370   1017.591   1042.399    -24.809    486.101   1035.510    486.101    493.056    486.101
 98.470    968.022    983.288    -15.266    485.865    975.906    485.865    493.307    485.865
 98.570    907.000    931.986    -24.986    485.628    924.025    485.628    493.642    485.628
 98.670    810.000    890.460    -80.460    485.391    881.817    485.391    494.079    485.391
 98.770    840.152    860.255    -20.103    485.153    850.805    485.153    494.638    485.153
 98.870    845.000    842.537      2.463    484.916    832.133    484.916    495.344    484.916
 98.970    805.000    838.141    -33.141    484.677    826.611    484.677    496.223    484.677
 99.070    839.018    847.617     -8.599    484.439    834.760    484.439    497.304    484.439
 99.170    863.501    871.257     -7.756    484.200    856.840    484.200    498.618    484.200
 99.270    938.000    909.092     28.908    483.961    892.851    483.961    500.198    483.961
 99.370    977.000    960.868     16.132    483.722    942.507    483.722    502.076    483.722
 99.470   1034.000   1025.993      8.007    483.482   1005.185    483.482    504.282    483.482
 99.570   1123.000   1103.472     19.528    483.242   1079.867    483.242    506.843    483.242
 99.670   1210.000   1191.838     18.162    483.002   1165.060    483.002    509.782    483.002
 99.770   1268.030   1289.079    -21.049    482.762   1258.742    482.762    513.111    482.762
 99.870   1350.000   1392.601    -42.601    482.522   1358.314    482.522    516.834    482.522
 99.970   1511.000   1499.222     11.778    482.281   1460.602    482.281    520.944    482.281
100.070   1656.888   1605.236     51.651    482.041   1561.927    482.041    525.415    482.041
100.170   1821.000   1706.596    114.404    481.800   1658.279    481.800    530.206    481.800
100.270   1807.000   1799.198      7.802    481.559   1745.619    481.559    535.255    481.559
100.370   1959.000   1879.261     79.739    481.318   1820.248    481.318    540.474    481.318
100.470   2016.000   1943.649     72.351    481.077   1879.147    481.077    545.750    481.077
100.570   2045.000   1990.013     54.987    480.836   1920.106    480.836    550.938    480.836
100.670   2033.000   2016.775     16.225    480.595   1941.725    480.595    555.862    480.595
100.770   1970.000   2023.049    -53.049    480.354   1943.322    480.354    560.316    480.354
100.870   2090.749   2008.673     82.076    480.113   1924.956    480.113    564.077    480.113
100.970   1935.000   1974.441    -39.441    479.873   1887.647    479.873    566.921    479.873
101.070   1984.433   1922.300     62.133    479.632   1833.536    479.632    568.652    479.632
101.170   1810.834   1855.389    -44.555    479.391   1765.899    479.391    569.134    479.391
101.270   1741.000   1777.805    -36.805    479.151   1688.884    479.151    568.316    479.151
101.370   1691.000   1694.102     -3.102    478.910   1607.005    478.910    566.239    478.910
101.470   1615.000   1608.759      6.241    478.670   1524.610    478.670    563.034    478.670
101.570   1484.000   1525.736    -41.736    478.430   1445.473    478.430    558.892    478.430
101.670   1480.376   1448.213     32.163    478.190   1372.551    478.190    554.034    478.190
101.770   1354.000   1378.457    -24.457    477.951   1307.887    477.951    548.686    477.951
101.870   1325.642   1317.799      7.842    477.712   1252.606    477.712    543.054    477.712
101.970   1228.000   1266.668    -38.668    477.473   1206.958    477.473    537.318    477.473
102.070   1195.881   1224.665    -28.785    477.234   1170.397    477.234    531.627    477.234
102.170   1193.000   1190.673      2.327    476.996   1141.688    476.996    526.096    476.996
102.270   1127.000   1162.990    -35.990    476.758   1119.041    476.758    520.816    476.758
102.370   1196.729   1139.507     57.222    476.520   1100.281    476.520    515.851    476.520
102.470   1075.481   1117.936    -42.455    476.283   1083.077    476.283    511.245    476.283
102.570   1083.000   1096.082    -13.082    476.046   1065.208    476.046    507.023    476.046
102.670   1097.834   1072.136     25.698    475.810   1044.852    475.810    503.197    475.810
102.770   1030.000   1044.900    -14.900    475.574   1020.815    475.574    499.763    475.574
102.870    985.585   1013.899    -28.314    475.339    992.632    475.339    496.708    475.339
102.970   1034.526    979.317     55.210    475.105    960.509    475.105    494.011    475.105
103.070    950.784    941.830      8.954    474.870    925.149    474.870    491.646    474.870
103.170    894.000    902.403     -8.403    474.637    887.546    474.637    489.583    474.637
103.270    879.000    862.109     16.891    474.404    848.807    474.404    487.790    474.404
103.370    783.000    822.009    -39.009    474.172    810.024    474.172    486.234    474.172
103.470    809.698    783.069     26.629    473.940    772.195    473.940    484.884    473.940
103.570    786.208    746.114     40.094    473.709    736.175    473.709    483.711    473.709
103.670    734.000    711.800     22.200    473.479    702.646    473.479    482.687    473.479
103.770    739.000    680.595     58.405    473.250    672.103    473.250    481.789    473.250
103.870    678.000    652.785     25.215    473.021    644.850    473.021    480.996    473.021
103.970    665.305    628.477     36.828    472.793    621.015    472.793    480.289    472.793
104.070    587.524    607.628    -20.104    472.566    600.567    472.566    479.654    472.566
104.170    591.000    590.069      0.931    472.340    583.353    472.340    479.079    472.340
104.270    584.000    575.542      8.458    472.115    569.123    472.115    478.552    472.115
104.370    553.000    563.733    -10.733    471.890    557.572    471.890    478.065    471.890
104.470    563.849    554.303      9.546    471.667    548.368    471.667    477.613    471.667
104.570    575.000    546.916     28.084    471.445    541.180    471.445    477.189    471.445
104.670    542.000    541.257      0.743    471.223    535.697    471.223    476.789    471.223
104.770    520.000    537.048    -17.048    471.003    531.644    471.003    476.410    471.003
104.870    553.000    534.057     18.943    470.783    528.793    470.783    476.049    470.783
104.970    507.000    532.102    -25.102    470.565    526.963    470.565    475.705    470.565
105.070    526.947    531.050     -4.103    470.348    526.022    470.348    475.375    470.348
105.170    524.000    530.816     -6.816    470.132    525.887    470.132    475.059    470.132
105.270    548.000    531.360     16.640    469.917    526.519    469.917    474.754    469.917
105.370    535.000    532.679      2.321    469.704    527.916    469.704    474.461    469.704
105.470    573.891    534.803     39.088    469.491    530.109    469.491    474.178    469.491
105.570    572.000    537.789     34.211    469.280    533.155    469.280    473.905    469.280
105.670    540.000    541.710     -1.710    469.070    537.127    469.070    473.642    469.070
105.770    603.000    546.643     56.357    468.862    542.104    468.862    473.387    468.862
105.870    539.505    552.657    -13.152    468.655    548.154    468.655    473.141    468.655
105.970    563.000    559.802      3.198    468.449    555.329    468.449    472.904    468.449
106.070    590.000    568.100     21.900    468.245    563.650    468.245    472.674    468.245
106.170    573.000    577.521     -4.521    468.042    573.087    468.042    472.451    468.042
106.270    588.000    587.986      0.014    467.841    583.562    467.841    472.237    467.841
106.370    605.000    599.357      5.643    467.641    594.937    467.641    472.029    467.641
106.470    611.069    611.438     -0.369    467.443    607.018    467.443    471.829    467.443
106.570    592.905    623.973    -31.068    467.246    619.547    467.246    471.636    467.246
106.670    643.000    636.652      6.348    467.051    632.215    467.051    471.450    467.051
106.770    681.963    649.111     32.851    466.858    644.658    466.858    471.270    466.858
106.870    654.000    660.973     -6.973    466.666    656.499    466.666    471.098    466.666
106.970    653.000    671.833    -18.833    466.476    667.335    466.476    470.933    466.476
107.070    696.450    681.311     15.139    466.288    676.784    466.288    470.774    466.288
107.170    674.000    689.091    -15.091    466.102    684.531    466.102    470.623    466.102
107.270    677.909    694.974    -17.065    465.917    690.377    465.917    470.478    465.917
107.370    665.000    698.913    -33.913    465.735    694.274    465.735    470.341    465.735
107.470    652.449    701.029    -48.580    465.554    696.343    465.554    470.210    465.554
107.570    728.975    701.590     27.384    465.375    696.853    465.375    470.088    465.375
107.670    679.000    700.970    -21.970    465.198    696.176    465.198    469.972    465.198
107.770    712.000    699.582     12.418    465.023    694.725    465.023    469.864    465.023
107.870    703.000    697.829      5.171    464.850    692.905    464.850    469.764    464.850
107.970    710.000    696.060     13.940    464.679    691.061    464.679    469.672    464.679
108.070    735.084    694.539     40.545    464.511    689.459    464.511    469.587    464.511
108.170    739.851    693.427     46.425    464.344    688.260    464.344    469.512    464.344
108.270    716.000    692.776     23.224    464.180    687.516    464.180    469.445    464.180
108.370    716.089    692.525     23.564    464.017    687.165    464.017    469.387    464.017
108.470    720.000    692.506     27.494    463.857    687.038    463.857    469.338    463.857
108.570    676.000    692.456    -16.456    463.700    686.872    463.700    469.300    463.700
108.670    714.000    692.043     21.957    463.544    686.335    463.544    469.271    463.544
108.770    648.799    690.900    -42.101    463.391    685.059    463.391    469.253    463.391
108.870    720.000    688.677     31.323    463.241    682.695    463.241    469.246    463.241
108.970    661.000    685.092    -24.092    463.093    678.961    463.093    469.250    463.093
109.070    667.000    679.978    -12.978    462.947    673.686    462.947    469.265    462.947
109.170    602.000    673.304    -71.304    462.804    666.841    462.804    469.294    462.804
109.270    615.603    665.176    -49.573    462.663    658.530    462.663    469.337    462.663
109.370    680.000    655.806     24.194    462.525    648.965    462.525    469.394    462.525
109.470    639.000    645.480     -6.480    462.390    638.430    462.390    469.467    462.390
109.570    614.000    634.513    -20.513    462.257    627.240    462.257    469.556    462.257
109.670    626.136    623.226      2.910    462.127    615.715    462.127    469.663    462.127
109.770    632.000    611.922     20.078    462.000    604.156    462.000    469.789    462.000
109.870    610.932    600.876     10.056    461.875    592.836    461.875    469.936    461.875
109.970    593.668    590.324      3.344    461.754    581.990    461.754    470.106    461.754
110.070    597.000    580.463     16.537    461.635    571.813    461.635    470.301    461.635
110.170    539.128    571.446    -32.318    461.519    562.454    461.519    470.525    461.519
110.270    534.718    563.382    -28.664    461.406    554.020    461.406    470.780    461.406
110.370    559.000    556.339      2.661    461.296    546.574    461.296    471.071    461.296
110.470    562.264    550.346     11.919    461.189    540.141    461.189    471.402    461.189
110.570    560.000    545.398     14.602    461.085    534.709    461.085    471.780    461.085
110.670    527.000    541.468    -14.468    460.985    530.245    460.985    472.212    460.985
110.770    504.143    538.501    -34.358    460.887    526.685    460.887    472.706    460.887
110.870    522.279    536.433    -14.153    460.793    523.955    460.793    473.271    460.793
110.970    533.000    535.189     -2.189    460.701    521.970    460.701    473.921    460.701
111.070    550.077    534.695     15.382    460.614    520.639    460.614    474.668    460.614
111.170    578.000    534.877     43.123    460.529    519.874    460.529    475.529    460.529
111.270    572.000    535.668     36.332    460.448    519.591    460.448    476.522    460.448
111.370    503.000    537.012    -34.012    460.370    519.711    460.370    477.667    460.370
111.470    529.000    538.860     -9.860    460.296    520.162    460.296    478.989    460.296
111.570    513.302    541.179    -27.877    460.225    520.885    460.225    480.513    460.225
111.670    567.000    543.944     23.056    460.158    521.827    460.158    482.269    460.158
111.770    577.660    547.147     30.513    460.094    522.946    460.094    484.288    460.094
111.870    523.000    550.789    -27.789    460.034    524.212    460.034    486.604    460.034
111.970    531.556    554.863    -23.307    459.977    525.582    459.977    489.251    459.977
112.070    545.000    559.417    -14.417    459.925    527.068    459.925    492.266    459.925
112.170    577.538    564.523     13.015    459.876    528.705    459.876    495.687    459.876
112.270    585.000    570.204     14.796    459.831    530.480    459.831    499.547    459.831
112.370    520.000    576.515    -56.515    459.790    532.414    459.790    503.883    459.790
112.470    562.000    583.517    -21.517    459.752    534.537    459.752    508.723    459.752
112.570    662.000    591.278     70.722    459.719    536.892    459.719    514.096    459.719
112.670    558.000    599.871    -41.871    459.689    539.531    459.689    520.021    459.689
112.770    575.000    609.379    -34.379    459.664    542.524    459.664    526.510    459.664
112.870    592.000    619.891    -27.891    459.643    545.957    459.643    533.567    459.643
112.970    613.895    631.514    -17.619    459.626    549.946    459.626    541.184    459.626
113.070    581.000    644.375    -63.375    459.613    554.637    459.613    549.339    459.613
113.170    667.000    658.631      8.369    459.604    560.226    459.604    557.996    459.604
113.270    612.000    674.484    -62.484    459.599    566.965    459.599    567.105    459.599
113.370    662.393    692.191    -29.798    459.599    575.181    459.599    576.593    459.599
113.470    759.235    712.082     47.154    459.603    585.296    459.603    586.371    459.603
113.570    750.000    734.580     15.420    459.612    597.847    459.612    596.323    459.612
113.670    797.328    760.223     37.105    459.625    613.509    459.625    606.312    459.625
113.770    756.000    789.686    -33.686    459.643    633.123    459.643    616.174    459.643
113.870    812.259    823.804    -11.545    459.665    657.714    459.665    625.715    459.665
113.970    833.167    863.596    -30.429    459.692    688.520    459.692    634.720    459.692
114.070    892.421    910.287    -17.866    459.723    727.001    459.723    642.951    459.723
114.170    912.000    965.324    -53.324    459.759    774.852    459.759    650.159    459.759
114.270   1011.000   1030.386    -19.386    459.800    834.000    459.800    656.098    459.800
114.370   1110.334   1107.386      2.948    459.846    906.581    459.846    660.543    459.846
114.470   1235.331   1198.454     36.878    459.896    994.905    459.896    663.315    459.896
114.570   1359.374   1305.893     53.481    459.952   1101.397    459.952    664.292    459.952
114.670   1481.000   1432.117     48.883    460.012   1228.508    460.012    663.435    460.012
114.770   1629.209   1579.537     49.672    460.078   1378.611    460.078    660.784    460.078
114.870   1834.000   1750.432     83.568    460.149   1553.866    460.149    656.458    460.149
114.970   2071.000   1946.775    124.225    460.224   1756.067    460.224    650.637    460.224
115.070   2203.000   2170.051     32.949    460.305   1986.474    460.305    643.547    460.305
115.170   2558.000   2421.060    136.940    460.391   2245.641    460.391    635.433    460.391
115.270   2801.000   2699.730    101.270    460.483   2533.251    460.483    626.544    460.483
115.370   2911.483   3004.953    -93.470    460.579   2847.957    460.579    617.118    460.579
115.470   3277.000   3334.446    -57.446    460.681   3187.264    460.681    607.372    460.681
115.570   3749.000   3684.663     64.337    460.789   3547.435    460.789    597.497    460.789
115.670   4057.000   4050.753      6.247    460.902   3923.454    460.902    587.659    460.902
115.770   4425.000   4426.567     -1.567    461.020   4309.037    461.020    577.997    461.020
115.870   4737.000   4804.727    -67.727    461.145   4696.693    461.145    568.624    461.145
115.970   5118.000   5176.757    -58.757    461.274   5077.857    461.274    559.633    461.274
116.070   5571.000   5533.272     37.728    461.410   5443.074    461.410    551.093    461.410
116.170   5793.364   5864.248    -70.884    461.551   5782.268    461.551    543.057    461.551
116.270   6346.000   6159.387    186.613    461.698   6085.107    461.698    535.561    461.698
116.370   6431.000   6408.601     22.399    461.851   6341.481    461.851    528.626    461.851
116.470   6632.000   6602.623     29.377    462.010   6542.111    462.010    522.261    462.010
116.570   6716.000   6733.707    -17.707    462.175   6679.254    462.175    516.462    462.175
116.670   6886.000   6796.349     89.651    462.346   6747.413    462.346    511.217    462.346
116.770   6900.000   6787.863    112.137    462.523   6743.919    462.523    506.506    462.523
116.870   6827.000   6708.685    118.315    462.706   6669.227    462.706    502.303    462.706
116.970   6476.000   6562.307    -86.307    462.895   6526.859    462.895    498.578    462.895
117.070   6458.000   6354.874    103.126    463.091   6322.988    463.091    495.295    463.091
117.170   6213.126   6094.539    118.587    463.293   6065.800    463.293    492.421    463.293
117.270   5565.000   5790.741   -225.741    463.501   5764.770    463.501    489.917    463.501
117.370   5218.000   5453.532   -235.532    463.716   5429.985    463.716    487.747    463.716
117.470   5080.210   5093.009    -12.799    463.937   5071.577    463.937    485.878    463.937
117.570   4630.000   4718.878    -88.878    464.165   4699.287    464.165    484.274    464.165
117.670   4441.518   4340.122    101.395    464.399   4322.132    464.399    482.906    464.399
117.770   3924.000   3964.776    -40.776    464.640   3948.175    464.640    481.743    464.640
117.870   3656.403   3599.755     56.648    464.888   3584.360    464.888    480.760    464.888
117.970   3328.438   3250.768     77.670    465.143   3236.423    465.143    479.934    465.143
118.070   2980.000   2922.279     57.721    465.404   2908.849    465.404    479.243    465.404
118.170   2583.281   2617.531    -34.250    465.673   2604.903    465.673    478.670    465.673
118.270   2284.000   2338.619    -54.619    465.948   2326.696    465.948    478.198    465.948
118.370   2073.000   2086.589    -13.589    466.230   2075.290    466.230    477.813    466.230
118.470   1869.000   1861.577      7.423    466.520   1850.834    466.520    477.505    466.520
118.570   1585.000   1662.953    -77.953    466.816   1652.710    466.816    477.264    466.816
118.670   1477.086   1489.481    -12.395    467.120   1479.690    467.120    477.081    467.120
118.770   1396.935   1339.468     57.467    467.431   1330.088    467.431    476.949    467.431
118.870   1205.000   1210.915     -5.915    467.750   1201.913    467.750    476.862    467.750
118.970   1004.000   1101.652    -97.652    468.076   1092.997    468.076    476.817    468.076
119.070    992.029   1009.454    -17.425    468.409   1001.121    468.409    476.808    468.409
119.170    893.000    932.134    -39.134    468.750    924.100    468.750    476.833    468.750
119.270    843.000    867.611    -24.611    469.098    859.857    469.098    476.889    469.098
119.370    781.658    813.966    -32.307    469.454    806.472    469.454    476.975    469.454
119.470    805.262    769.531     35.731    469.818    762.280    469.818    477.088    469.818
119.570    705.333    732.776    -27.443    470.190    725.753    470.190    477.226    470.190
119.670    761.000    702.400     58.600    470.569    695.588    470.569    477.390    470.569
119.770    721.493    677.301     44.192    470.956    670.686    470.956    477.578    470.956
119.870    638.000    656.560    -18.560    471.352    650.128    471.352    477.789    471.352
119.970    599.000    639.422    -40.422    471.755    633.158    471.755    478.023    471.755
120.070    627.000    625.270      1.730    472.166    619.160    472.166    478.280    472.166
120.170    608.739    613.607     -4.868    472.586    607.638    472.586    478.559    472.586
120.270    618.952    604.036     14.916    473.014    598.194    473.014    478.860    473.014
120.370    556.000    596.238    -40.238    473.450    590.512    473.450    479.180    473.450
120.470    638.000    589.969     48.031    473.894    584.344    473.894    479.524    473.894
120.570    564.000    585.030    -21.030    474.347    579.491    474.347    479.891    474.347
120.670    549.982    581.264    -31.282    474.809    575.799    474.809    480.280    474.809
120.770    580.068    578.548      1.520    475.279    573.143    475.279    480.691    475.279
120.870    581.000    576.783      4.217    475.757    571.424    475.757    481.124    475.757
120.970    572.000    575.888     -3.888    476.244    570.562    476.244    481.579    476.244
121.070    557.000    575.794    -18.794    476.741    570.488    476.741    482.056    476.741
121.170    579.000    576.441      2.559    477.245    571.143    477.245    482.554    477.245
121.270    571.519    577.774     -6.255    477.759    572.472    477.759    483.074    477.759
121.370    600.880    579.739     21.140    478.282    574.421    478.282    483.615    478.282
121.470    575.000    582.281     -7.281    478.814    576.934    478.814    484.177    478.814
121.570    549.000    585.340    -36.340    479.355    579.954    479.355    484.759    479.355
121.670    549.000    588.852    -39.852    479.905    583.417    479.905    485.361    479.905
121.770    588.000    592.748     -4.748    480.464    587.253    480.464    485.981    480.464
121.870    564.000    596.949    -32.949    481.033    591.388    481.033    486.620    481.033
121.970    577.659    601.372    -23.713    481.611    595.737    481.611    487.274    481.611
122.070    655.000    605.919     49.081    482.198    600.210    482.198    487.938    482.198
122.170    631.821    610.503     21.318    482.795    604.711    482.795    488.621    482.795
122.270    577.122    615.015    -37.893    483.402    609.137    483.402    489.316    483.402
122.370    652.000    619.348     32.652    484.018    613.384    484.018    490.022    484.018
122.470    649.109    623.394     25.715    484.644    617.346    484.644    490.734    484.644
122.570    650.084    627.048     23.037    485.280    620.920    485.280    491.451    485.280
122.670    645.000    630.212     14.788    485.926    624.013    485.926    492.171    485.926
122.770    604.000    632.803    -28.803    486.581    626.543    486.581    492.889    486.581
122.870    669.000    634.754     34.246    487.247    628.446    487.247    493.604    487.247
122.970    631.000    636.023     -5.023    487.923    629.684    487.923    494.312    487.923
123.070    599.810    636.591    -36.782    488.609    630.239    488.609    495.012    488.609
123.170    643.000    636.466      6.534    489.305    630.122    489.305    495.700    489.305
123.270    662.000    635.678     26.322    490.012    629.363    490.012    496.376    490.012
123.370    655.000    634.276     20.724    490.729    628.014    490.729    497.039    490.729
123.470    655.000    632.323     22.677    491.456    626.137    491.456    497.689    491.456
123.570    621.000    629.893     -8.893    492.194    623.805    492.194    498.327    492.194
123.670    625.000    627.063     -2.063    492.943    621.094    492.943    498.954    492.943
123.770    600.165    623.913    -23.748    493.702    618.082    493.702    499.574    493.702
123.870    665.000    620.521     44.479    494.473    614.844    494.473    500.187    494.473
123.970    600.000    616.959    -16.959    495.254    611.450    495.254    500.797    495.254
124.070    650.000    613.296     36.704    496.046    607.965    496.046    501.407    496.046
124.170    618.000    609.589      8.411    496.848    604.445    496.848    502.020    496.848
124.270    598.000    605.890     -7.890    497.662    600.939    497.662    502.639    497.662
124.370    592.733    602.239     -9.506    498.488    597.483    498.488    503.265    498.488
124.470    634.618    598.665     35.953    499.324    594.107    499.324    503.902    499.324
124.570    594.000    595.191     -1.191    500.172    590.830    500.172    504.550    500.172
124.670    574.923    591.830    -16.907    501.031    587.663    501.031    505.213    501.031
124.770    563.000    588.589    -25.589    501.901    584.612    501.901    505.891    501.901
124.870    624.201    585.467     38.733    502.784    581.676    502.784    506.586    502.784
124.970    591.000    582.464      8.536    503.677    578.853    503.677    507.298    503.677
