neutron_powder_diffraction_0098
R_wp: 3.992
Temperature (K): 879.789
Counts: 83730.00
Wavelength (Ã…): 2.52098
COMMENTS
Test file for demonstrating the .xyy file format in Reel1.0
END OF HEADER
   tth       Y_obs     Y_calc      Y_res    Background    Phase_1_Nuc    Phase_1_Mag    Phase_2_Nuc    Phase_2_Mag
  9.970    635.000    548.752     86.248    547.533    548.578    547.533    547.706    547.533
 10.070    654.000    549.368    104.632    548.061    549.193    548.061    548.236    548.061
 10.170    570.000    549.986     20.014    548.579    549.810    548.579    548.754    548.579
 10.270    516.575    550.607    -34.033    549.085    550.431    549.085    549.261    549.085
 10.370    582.152    551.236     30.917    549.580    551.058    549.580    549.756    549.580
 10.470    603.000    551.875     51.125    550.064    551.697    550.064    550.241    550.064
 10.570    563.314    552.531     10.783    550.536    552.352    550.536    550.715    550.536
 10.670    579.000    553.210     25.790    550.998    553.030    550.998    551.177    550.998
 10.770    575.000    553.921     21.079    551.450    553.740    551.450    551.629    551.450
 10.870    540.953    554.677    -13.724    551.890    554.495    551.890    552.071    551.890
 10.970    574.000    555.494     18.506    552.320    555.312    552.320    552.501    552.320
 11.070    581.000    556.397     24.603    552.740    556.213    552.740    552.921    552.740
 11.170    564.000    557.420      6.580    553.148    557.235    553.148    553.331    553.148
 11.270    576.000    558.616     17.384    553.547    558.430    553.547    553.730    553.547
 11.370    532.000    560.078    -28.078    553.935    559.890    553.935    554.119    553.935
 11.470    585.000    561.999     23.001    554.313    561.810    554.313    554.498    554.313
 11.570    626.000    564.832     61.168    554.681    564.641    554.681    554.867    554.681
 11.670    576.000    569.587      6.413    555.039    569.392    555.039    555.226    555.039
 11.770    585.000    578.161      6.839    555.387    577.962    555.387    555.575    555.387
 11.870    615.000    593.210     21.790    555.725    593.001    555.725    555.914    555.725
 11.970    663.200    616.786     46.414    556.054    616.564    556.054    556.243    556.054
 12.070    648.000    647.412      0.588    556.373    647.173    556.373    556.562    556.373
 12.170    646.698    676.249    -29.551    556.682    675.993    556.682    556.872    556.682
 12.270    687.000    687.208     -0.208    556.981    686.945    556.981    557.173    556.981
 12.370    636.000    671.660    -35.660    557.271    671.405    557.271    557.464    557.271
 12.470    605.000    641.504    -36.504    557.552    641.265    557.552    557.746    557.552
 12.570    616.000    612.425      3.575    557.824    612.201    557.824    558.018    557.824
 12.670    588.000    591.383     -3.383    558.086    591.170    558.086    558.281    558.086
 12.770    554.000    578.663    -24.663    558.339    578.456    558.339    558.535    558.339
 12.870    565.000    571.821     -6.821    558.584    571.617    558.584    558.781    558.584
 12.970    532.000    568.277    -36.277    558.819    568.074    558.819    559.017    558.819
 13.070    555.000    566.340    -11.340    559.045    566.137    559.045    559.244    559.045
 13.170    536.000    565.164    -29.164    559.263    564.961    559.263    559.463    559.263
 13.270    522.036    564.384    -42.348    559.472    564.181    559.472    559.672    559.472
 13.370    520.000    563.843    -43.843    559.672    563.639    559.672    559.874    559.672
 13.470    526.000    563.460    -37.460    559.864    563.256    559.864    560.066    559.864
 13.570    548.340    563.190    -14.850    560.047    562.985    560.047    560.251    560.047
 13.670    524.000    563.002    -39.002    560.222    562.796    560.222    560.426    560.222
 13.770    582.611    562.872     19.739    560.388    562.665    560.388    560.594    560.388
 13.870    554.000    562.786     -8.786    560.547    562.579    560.547    560.753    560.547
 13.970    580.000    562.733     17.267    560.697    562.525    560.697    560.904    560.697
 14.070    582.000    562.705     19.295    560.839    562.495    560.839    561.047    560.839
 14.170    587.000    562.694     24.306    560.973    562.484    560.973    561.183    560.973
 14.270    530.568    562.696    -32.128    561.099    562.485    561.099    561.310    561.099
 14.370    524.721    562.708    -37.988    561.217    562.496    561.217    561.429    561.217
 14.470    563.000    562.727      0.273    561.328    562.513    561.328    561.541    561.328
 14.570    535.000    562.749    -27.749    561.430    562.535    561.430    561.644    561.430
 14.670    576.000    562.775     13.225    561.526    562.559    561.526    561.741    561.526
 14.770    545.000    562.806    -17.806    561.613    562.589    561.613    561.829    561.613
 14.870    512.000    562.855    -50.855    561.693    562.638    561.693    561.910    561.693
 14.970    542.000    562.884    -20.884    561.766    562.666    561.766    561.984    561.766
 15.070    535.000    562.908    -27.908    561.831    562.688    561.831    562.051    561.831
 15.170    573.000    562.929     10.071    561.889    562.708    561.889    562.110    561.889
 15.270    547.000    562.956    -15.956    561.940    562.733    561.940    562.162    561.940
 15.370    509.000    563.025    -54.025    561.984    562.801    561.984    562.207    561.984
 15.470    517.000    563.113    -46.113    562.020    562.888    562.020    562.245    562.020
 15.570    519.000    563.126    -44.126    562.050    562.901    562.050    562.276    562.050
 15.670    567.000    563.128      3.872    562.073    562.901    562.073    562.300    562.073
 15.770    554.000    563.125     -9.125    562.089    562.897    562.089    562.317    562.089
 15.870    543.000    563.118    -20.118    562.098    562.888    562.098    562.327    562.098
 15.970    522.436    563.105    -40.670    562.100    562.875    562.100    562.331    562.100
 16.070    594.350    563.088     31.263    562.096    562.856    562.096    562.328    562.096
 16.170    519.430    563.065    -43.635    562.085    562.832    562.085    562.319    562.085
 16.270    600.167    563.038     37.129    562.068    562.803    562.068    562.303    562.068
 16.370    584.000    563.005     20.995    562.044    562.769    562.044    562.280    562.044
 16.470    563.000    562.967      0.033    562.014    562.729    562.014    562.252    562.014
 16.570    585.000    562.923     22.077    561.978    562.684    561.978    562.217    561.978
 16.670    558.000    562.875     -4.875    561.936    562.635    561.936    562.176    561.936
 16.770    523.715    562.821    -39.106    561.887    562.579    561.887    562.129    561.887
 16.870    582.000    562.762     19.238    561.832    562.519    561.832    562.075    561.832
 16.970    609.000    562.698     46.302    561.771    562.453    561.771    562.016    561.771
 17.070    574.000    562.628     11.372    561.704    562.382    561.704    561.951    561.704
 17.170    541.000    562.554    -21.554    561.632    562.306    561.632    561.880    561.632
 17.270    569.378    562.474      6.904    561.553    562.225    561.553    561.803    561.553
 17.370    566.383    562.393      3.990    561.469    562.142    561.469    561.720    561.469
 17.470    548.000    562.307    -14.307    561.379    562.054    561.379    561.632    561.379
 17.570    519.000    562.216    -43.216    561.284    561.962    561.284    561.538    561.284
 17.670    588.000    562.120     25.880    561.183    561.864    561.183    561.438    561.183
 17.770    556.000    562.051     -6.051    561.076    561.793    561.076    561.334    561.076
 17.870    511.000    561.980    -50.980    560.964    561.720    560.964    561.223    560.964
 17.970    568.000    561.869      6.131    560.847    561.608    560.847    561.108    560.847
 18.070    536.055    561.749    -25.694    560.724    561.487    560.724    560.987    560.724
 18.170    558.987    561.625     -2.638    560.596    561.361    560.596    560.861    560.596
 18.270    565.000    561.497      3.503    560.463    561.230    560.463    560.729    560.463
 18.370    582.229    561.363     20.866    560.324    561.095    560.324    560.593    560.324
 18.470    548.000    561.225    -13.225    560.181    560.955    560.181    560.451    560.181
 18.570    509.000    561.083    -52.083    560.033    560.811    560.033    560.305    560.033
 18.670    553.000    560.936     -7.936    559.879    560.662    559.879    560.154    559.879
 18.770    493.000    560.785    -67.785    559.721    560.508    559.721    559.998    559.721
 18.870    519.000    560.629    -41.629    559.558    560.351    559.558    559.837    559.558
 18.970    558.000    560.469     -2.469    559.391    560.189    559.391    559.671    559.391
 19.070    541.411    560.308    -18.898    559.218    560.026    559.218    559.501    559.218
 19.170    577.000    560.150     16.850    559.041    559.865    559.041    559.326    559.041
 19.270    549.000    559.978    -10.978    558.859    559.691    558.859    559.146    558.859
 19.370    580.016    559.802     20.214    558.673    559.513    558.673    558.962    558.673
 19.470    591.000    559.630     31.370    558.483    559.338    558.483    558.774    558.483
 19.570    574.000    559.500     14.500    558.288    559.206    558.288    558.581    558.288
 19.670    540.000    559.351    -19.351    558.088    559.055    558.088    558.385    558.088
 19.770    530.000    559.163    -29.163    557.885    558.865    557.885    558.183    557.885
 19.870    521.000    558.969    -37.969    557.677    558.667    557.677    557.978    557.677
 19.970    516.989    558.770    -41.782    557.465    558.467    557.465    557.768    557.465
 20.070    525.000    558.569    -33.569    557.248    558.262    557.248    557.555    557.248
 20.170    556.985    558.364     -1.379    557.028    558.055    557.028    557.337    557.028
 20.270    522.000    558.156    -36.156    556.804    557.844    556.804    557.116    556.804
 20.370    558.000    557.945      0.055    556.576    557.630    556.576    556.890    556.576
 20.470    542.000    557.730    -15.730    556.343    557.413    556.343    556.661    556.343
 20.570    558.000    557.513      0.487    556.108    557.193    556.108    556.428    556.108
 20.670    530.000    557.294    -27.294    555.868    556.971    555.868    556.191    555.868
 20.770    557.675    557.084      0.591    555.624    556.758    555.624    555.951    555.624
 20.870    517.275    556.882    -39.607    555.377    556.552    555.377    555.707    555.377
 20.970    568.946    556.657     12.289    555.126    556.324    555.126    555.460    555.126
 21.070    516.957    556.434    -39.477    554.872    556.098    554.872    555.209    554.872
 21.170    512.000    556.271    -44.271    554.614    555.931    554.614    554.954    554.614
 21.270    559.000    556.064      2.936    554.353    555.720    554.353    554.696    554.353
 21.370    555.000    555.847     -0.847    554.088    555.500    554.088    554.435    554.088
 21.470    522.686    555.618    -32.932    553.820    555.268    553.820    554.171    553.820
 21.570    543.000    555.386    -12.386    553.549    555.031    553.549    553.903    553.549
 21.670    573.987    555.172     18.816    553.274    554.813    553.274    553.633    553.274
 21.770    546.000    554.956     -8.956    552.996    554.594    552.996    553.359    552.996
 21.870    550.582    554.723     -4.141    552.715    554.356    552.715    553.082    552.715
 21.970    519.000    554.493    -35.493    552.431    554.122    552.431    552.802    552.431
 22.070    594.789    554.257     40.532    552.144    553.881    552.144    552.520    552.144
 22.170    556.000    554.035      1.965    551.854    553.655    551.854    552.234    551.854
 22.270    584.000    553.806     30.194    551.561    553.422    551.561    551.946    551.561
 22.370    578.298    553.573     24.725    551.265    553.184    551.265    551.654    551.265
 22.470    585.731    553.346     32.385    550.966    552.952    550.966    551.361    550.966
 22.570    586.000    553.123     32.877    550.664    552.723    550.664    551.064    550.664
 22.670    525.000    552.902    -27.902    550.360    552.497    550.360    550.765    550.360
 22.770    559.455    552.687      6.768    550.053    552.277    550.053    550.464    550.053
 22.870    519.100    552.484    -33.384    549.743    552.068    549.743    550.160    549.743
 22.970    560.000    552.290      7.710    549.431    551.868    549.431    549.853    549.431
 23.070    531.000    552.109    -21.109    549.116    551.681    549.116    549.544    549.116
 23.170    574.000    551.949     22.051    548.798    551.515    548.798    549.233    548.798
 23.270    560.000    551.806      8.194    548.478    551.365    548.478    548.920    548.478
 23.370    586.000    551.690     34.310    548.156    551.242    548.156    548.605    548.156
 23.470    535.000    551.610    -16.610    547.831    551.155    547.831    548.287    547.831
 23.570    584.491    551.577     32.915    547.504    551.115    547.504    547.968    547.504
 23.670    557.000    551.606      5.394    547.175    551.136    547.175    547.646    547.175
 23.770    588.761    551.721     37.040    546.843    551.244    546.843    547.323    546.843
 23.870    567.000    551.956     15.044    546.509    551.471    546.509    546.997    546.509
 23.970    550.000    552.366     -2.366    546.174    551.872    546.174    546.670    546.174
 24.070    557.000    553.072      3.928    545.836    552.569    545.836    546.342    545.836
 24.170    569.000    554.351     14.649    545.496    553.840    545.496    546.011    545.496
 24.270    580.000    556.822     23.178    545.153    556.303    545.153    545.679    545.153
 24.370    592.000    561.658     30.342    544.809    561.132    544.809    545.346    544.809
 24.470    587.000    570.544     16.456    544.463    570.013    544.463    545.011    544.463
 24.570    559.024    584.915    -25.891    544.116    584.384    544.116    544.675    544.116
 24.670    628.000    604.282     23.718    543.766    603.753    543.766    544.337    543.766
 24.770    659.000    623.789     35.211    543.414    623.261    543.414    543.999    543.414
 24.870    674.847    633.203     41.644    543.061    632.669    543.061    543.659    543.061
 24.970    577.701    625.273    -47.572    542.706    624.719    542.706    543.319    542.706
 25.070    604.286    606.000     -1.715    542.350    605.418    542.350    542.977    542.350
 25.170    616.319    585.749     30.570    541.991    585.136    541.991    542.635    541.991
 25.270    553.644    570.084    -16.440    541.632    569.442    541.632    542.292    541.632
 25.370    587.021    559.965     27.056    541.270    559.298    541.270    541.948    541.270
 25.470    588.000    554.124     33.876    540.907    553.435    540.907    541.604    540.907
 25.570    525.821    550.864    -25.044    540.543    550.153    540.543    541.260    540.543
 25.670    596.000    548.937     47.063    540.177    548.203    540.177    540.916    540.177
 25.770    590.000    547.661     42.339    539.810    546.903    539.810    540.571    539.810
 25.870    590.000    546.724     43.276    539.442    545.941    539.442    540.227    539.442
 25.970    548.000    545.993      2.007    539.072    545.184    539.072    539.883    539.072
 26.070    617.000    545.406     71.594    538.701    544.569    538.701    539.540    538.701
 26.170    577.000    544.931     32.069    538.329    544.063    538.329    539.197    538.329
 26.270    522.385    544.548    -22.163    537.955    543.648    537.955    538.856    537.955
 26.370    572.785    544.244     28.541    537.581    543.311    537.581    538.515    537.581
 26.470    548.000    544.017      3.983    537.205    543.046    537.205    538.177    537.205
 26.570    525.000    543.864    -18.864    536.828    542.853    536.828    537.840    536.828
 26.670    543.000    543.791     -0.791    536.450    542.737    536.450    537.505    536.450
 26.770    512.850    543.805    -30.955    536.071    542.704    536.071    537.173    536.071
 26.870    547.348    543.920      3.428    535.692    542.768    535.692    536.844    535.692
 26.970    563.000    544.156     18.844    535.311    542.948    535.311    536.519    535.311
 27.070    577.000    544.544     32.456    534.929    543.275    534.929    536.198    534.929
 27.170    592.725    545.126     47.599    534.547    543.790    534.547    535.882    534.547
 27.270    579.000    545.963     33.037    534.164    544.555    534.164    535.571    534.164
 27.370    573.000    547.151     25.849    533.779    545.663    533.779    535.267    533.779
 27.470    512.793    548.867    -36.074    533.395    547.290    533.395    534.970    533.395
 27.570    514.350    551.529    -37.179    533.009    549.855    533.009    534.681    533.009
 27.670    584.000    556.375     27.625    532.623    554.592    532.623    534.402    532.623
 27.770    606.000    566.880     39.120    532.236    564.974    532.236    534.134    532.236
 27.870    577.280    590.785    -13.505    531.849    588.739    531.849    533.878    531.849
 27.970    596.795    639.838    -43.043    531.461    637.630    531.461    533.636    531.461
 28.070    717.000    721.977     -4.977    531.072    719.585    531.072    533.409    531.072
 28.170    838.014    825.427     12.587    530.683    822.835    530.683    533.199    530.683
 28.270    896.000    907.494    -11.494    530.294    904.701    530.294    533.008    530.294
 28.370    921.138    917.645      3.492    529.904    914.653    529.904    532.838    529.904
 28.470    903.000    854.256     48.744    529.514    851.046    529.514    532.689    529.514
 28.570    789.000    771.930     17.070    529.123    768.469    529.123    532.565    529.123
 28.670    750.000    723.894     26.106    528.732    720.146    528.732    532.464    528.732
 28.770    734.000    728.208      5.792    528.340    724.144    528.340    532.388    528.340
 28.870    784.000    769.101     14.899    527.949    764.700    527.949    532.333    527.949
 28.970    815.000    808.029      6.971    527.557    803.281    527.557    532.296    527.557
 29.070    809.000    806.046      2.954    527.165    800.944    527.165    532.272    527.165
 29.170    730.554    757.007    -26.452    526.773    751.544    526.773    532.249    526.773
 29.270    709.000    688.898     20.102    526.380    683.078    526.380    532.214    526.380
 29.370    642.898    629.628     13.270    525.988    623.475    525.988    532.150    525.988
 29.470    583.000    589.880     -6.880    525.595    583.442    525.595    532.040    525.595
 29.570    600.000    567.605     32.395    525.202    560.949    525.202    531.862    525.202
 29.670    577.000    556.326     20.674    524.810    549.536    524.810    531.601    524.810
 29.770    571.956    550.529     21.427    524.417    543.702    524.417    531.246    524.417
 29.870    569.000    547.131     21.869    524.024    540.363    524.024    530.793    524.024
 29.970    600.000    544.808     55.192    523.632    538.192    523.632    530.248    523.632
 30.070    513.798    543.088    -29.290    523.239    536.703    523.239    529.625    523.239
 30.170    555.000    541.843     13.157    522.847    535.750    522.847    528.940    522.847
 30.270    607.000    541.140     65.860    522.455    535.381    522.455    528.212    522.455
 30.370    554.000    541.299     12.701    522.063    535.897    522.063    527.462    522.063
 30.470    583.000    543.045     39.955    521.671    538.006    521.671    526.705    521.671
 30.570    601.000    547.578     53.422    521.279    542.895    521.279    525.952    521.279
 30.670    637.000    556.230     80.770    520.888    551.887    520.888    525.215    520.888
 30.770    567.000    569.431     -2.431    520.497    565.405    520.497    524.497    520.497
 30.870    585.000    585.103     -0.103    520.106    581.371    520.106    523.802    520.106
 30.970    580.000    597.449    -17.449    519.716    593.991    519.716    523.132    519.716
 31.070    574.476    599.151    -24.675    519.326    595.948    519.326    522.487    519.326
 31.170    608.004    588.407     19.597    518.936    585.444    518.936    521.866    518.936
 31.270    554.000    571.447    -17.447    518.547    568.703    518.547    521.268    518.547
 31.370    546.240    555.362     -9.123    518.158    552.815    518.158    520.691    518.158
 31.470    528.000    543.492    -15.492    517.770    541.121    517.770    520.133    517.770
 31.570    537.447    536.061      1.386    517.382    533.845    517.382    519.592    517.382
 31.670    592.000    531.862     60.138    516.994    529.786    516.994    519.068    516.994
 31.770    514.986    529.544    -14.558    516.608    527.592    516.608    518.558    516.608
 31.870    545.000    528.182     16.818    516.222    526.341    516.222    518.061    516.222
 31.970    587.000    527.300     59.700    515.836    525.559    515.836    517.576    515.836
 32.070    536.881    526.694     10.186    515.451    525.044    515.451    517.101    515.451
 32.170    507.605    526.287    -18.681    515.067    524.717    515.067    516.635    515.067
 32.270    496.102    526.048    -29.945    514.683    524.551    514.683    516.178    514.683
 32.370    575.000    525.970     49.030    514.300    524.540    514.300    515.729    514.300
 32.470    503.814    526.060    -22.246    513.918    524.690    513.918    515.287    513.918
 32.570    497.558    526.333    -28.776    513.536    525.018    513.536    514.851    513.536
 32.670    483.561    526.820    -43.259    513.155    525.554    513.155    514.421    513.155
 32.770    548.000    527.563     20.437    512.776    526.342    512.776    513.996    512.776
 32.870    505.744    528.627    -22.883    512.396    527.447    512.396    513.575    512.396
 32.970    528.000    530.105     -2.105    512.018    528.963    512.018    513.159    512.018
 33.070    555.000    532.147     22.853    511.641    531.039    511.641    512.747    511.641
 33.170    518.976    535.014    -16.038    511.264    533.937    511.264    512.339    511.264
 33.270    515.913    539.246    -23.332    510.888    538.197    510.888    511.935    510.888
 33.370    571.000    546.057     24.943    510.513    545.033    510.513    511.533    510.513
 33.470    551.000    558.072     -7.072    510.140    557.070    510.140    511.135    510.140
 33.570    596.000    580.227     15.773    509.767    579.244    509.767    510.740    509.767
 33.670    596.000    619.922    -23.922    509.395    618.953    509.395    510.347    509.395
 33.770    665.000    684.838    -19.838    509.024    683.878    509.024    509.958    509.024
 33.870    798.449    777.354     21.095    508.654    776.403    508.654    509.570    508.654
 33.970    884.000    886.258     -2.258    508.285    885.320    508.285    509.185    508.285
 34.070   1025.000    979.201     45.799    507.917    978.284    507.917    508.803    507.917
 34.170    950.958   1009.614    -58.656    507.550   1008.727    507.550    508.422    507.550
 34.270    950.000    956.685     -6.685    507.185    955.824    507.185    508.044    507.185
 34.370    830.434    853.014    -22.581    506.820    852.172    506.820    507.668    506.820
 34.470    705.000    745.125    -40.125    506.457    744.294    506.457    507.294    506.457
 34.570    617.000    659.188    -42.188    506.095    658.365    506.095    506.922    506.095
 34.670    601.000    601.420     -0.420    505.734    600.604    505.734    506.553    505.734
 34.770    594.000    567.009     26.991    505.374    566.199    505.374    506.185    505.374
 34.870    549.000    547.820      1.180    505.015    547.017    505.015    505.819    505.015
 34.970    497.857    537.014    -39.157    504.658    536.217    504.658    505.454    504.658
 35.070    517.821    530.389    -12.568    504.301    529.598    504.301    505.092    504.301
 35.170    538.000    525.842     12.158    503.946    525.056    503.946    504.732    503.946
 35.270    468.000    522.430    -54.430    503.593    521.649    503.593    504.373    503.593
 35.370    488.164    519.730    -31.565    503.240    518.954    503.240    504.016    503.240
 35.470    483.000    517.525    -34.525    502.889    516.753    502.889    503.661    502.889
 35.570    492.000    515.686    -23.686    502.540    514.918    502.540    503.308    502.540
 35.670    476.000    514.126    -38.126    502.191    513.360    502.191    502.957    502.191
 35.770    490.000    512.782    -22.782    501.844    512.019    501.844    502.607    501.844
 35.870    511.000    511.609     -0.609    501.499    510.848    501.499    502.260    501.499
 35.970    476.000    510.574    -34.574    501.154    509.815    501.154    501.914    501.154
 36.070    524.000    509.652     14.348    500.812    508.895    500.812    501.569    500.812
 36.170    501.000    508.824     -7.824    500.470    508.067    500.470    501.227    500.470
 36.270    528.000    508.075     19.925    500.130    507.319    500.130    500.886    500.130
 36.370    477.000    507.394    -30.394    499.792    506.639    499.792    500.547    499.792
 36.470    504.000    506.775     -2.775    499.455    506.020    499.455    500.210    499.455
 36.570    485.047    506.212    -21.165    499.119    505.457    499.119    499.875    499.119
 36.670    505.000    505.704     -0.704    498.785    504.948    498.785    499.542    498.785
 36.770    469.347    505.252    -35.905    498.453    504.496    498.453    499.210    498.453
 36.870    522.000    504.868     17.132    498.122    504.110    498.122    498.880    498.122
 36.970    499.509    504.579     -5.070    497.792    503.820    497.792    498.552    497.792
 37.070    528.000    504.446     23.554    497.464    503.686    497.464    498.226    497.464
 37.170    523.879    504.589     19.289    497.138    503.827    497.138    497.901    497.138
 37.270    481.000    505.193    -24.193    496.813    504.429    496.813    497.579    496.813
 37.370    471.000    506.473    -35.473    496.490    505.707    496.490    497.258    496.490
 37.470    526.000    508.574     17.426    496.169    507.805    496.169    496.939    496.169
 37.570    517.000    511.385      5.615    495.849    510.615    495.849    496.622    495.849
 37.670    491.000    514.331    -23.331    495.530    513.559    495.530    496.307    495.530
 37.770    521.733    516.293      5.440    495.214    515.519    495.214    495.994    495.214
 37.870    513.793    516.222     -2.429    494.899    515.447    494.899    495.682    494.899
 37.970    508.000    514.138     -6.138    494.586    513.360    494.586    495.373    494.586
 38.070    531.000    510.998     20.002    494.274    510.218    494.274    495.065    494.274
 38.170    494.000    507.716    -13.716    493.964    506.931    493.964    494.760    493.964
 38.270    482.000    504.781    -22.781    493.656    503.991    493.656    494.456    493.656
 38.370    482.000    502.420    -20.420    493.349    501.622    493.349    494.154    493.349
 38.470    499.800    500.663     -0.864    493.045    499.859    493.045    493.854    493.045
 38.570    515.000    499.407     15.593    492.742    498.596    492.742    493.556    492.742
 38.670    477.000    498.506    -21.506    492.440    497.688    492.440    493.261    492.440
 38.770    537.428    497.832     39.596    492.141    497.007    492.141    492.967    492.141
 38.870    487.440    497.304     -9.864    491.843    496.474    491.843    492.675    491.843
 38.970    511.000    496.862     14.138    491.547    496.025    491.547    492.385    491.547
 39.070    478.000    496.472    -18.472    491.253    495.629    491.253    492.097    491.253
 39.170    507.460    496.116     11.344    490.960    495.266    490.960    491.811    490.960
 39.270    453.666    495.785    -42.119    490.670    494.928    490.670    491.528    490.670
 39.370    550.000    495.472     54.528    490.381    494.608    490.381    491.246    490.381
 39.470    478.000    495.176    -17.176    490.094    494.305    490.094    490.966    490.094
 39.570    494.000    494.895     -0.895    489.809    494.016    489.809    490.689    489.809
 39.670    523.000    494.626     28.374    489.526    493.739    489.526    490.414    489.526
 39.770    493.000    494.370     -1.370    489.245    493.475    489.245    490.140    489.245
 39.870    473.000    494.126    -21.126    488.965    493.223    488.965    489.869    488.965
 39.970    488.269    493.894     -5.625    488.687    492.982    488.687    489.600    488.687
 40.070    485.000    493.674     -8.674    488.412    492.753    488.412    489.333    488.412
 40.170    462.000    493.467    -31.467    488.138    492.537    488.138    489.069    488.138
 40.270    521.077    493.273     27.805    487.866    492.333    487.866    488.806    487.866
 40.370    459.887    493.092    -33.205    487.596    492.143    487.596    488.546    487.596
 40.470    474.979    492.927    -17.948    487.327    491.968    487.327    488.288    487.327
 40.570    472.000    492.779    -20.779    487.061    491.809    487.061    488.032    487.061
 40.670    522.626    492.650     29.976    486.797    491.669    486.797    487.779    486.797
 40.770    495.000    492.543      2.457    486.534    491.551    486.534    487.528    486.534
 40.870    470.697    492.460    -21.763    486.274    491.457    486.274    487.279    486.274
 40.970    454.000    492.407    -38.407    486.015    491.392    486.015    487.032    486.015
 41.070    502.000    492.388      9.612    485.759    491.361    485.759    486.788    485.759
 41.170    486.000    492.411     -6.411    485.504    491.371    485.504    486.546    485.504
 41.270    480.776    492.486    -11.710    485.252    491.433    485.252    486.306    485.252
 41.370    480.000    492.624    -12.624    485.001    491.558    485.001    486.069    485.001
 41.470    513.426    492.843     20.583    484.752    491.763    484.752    485.834    484.752
 41.570    491.000    493.170     -2.170    484.506    492.076    484.506    485.602    484.506
 41.670    482.000    493.648    -11.648    484.261    492.540    484.261    485.372    484.261
 41.770    490.000    494.361     -4.361    484.018    493.238    484.018    485.145    484.018
 41.870    437.000    495.479    -58.479    483.777    494.341    483.777    484.920    483.777
 41.970    455.338    497.343    -42.005    483.539    496.189    483.539    484.697    483.539
 42.070    466.918    500.575    -33.658    483.302    499.406    483.302    484.478    483.302
 42.170    427.000    506.155    -79.155    483.067    504.971    483.067    484.260    483.067
 42.270    489.000    515.325    -26.325    482.834    514.127    482.834    484.046    482.834
 42.370    493.936    529.192    -35.256    482.604    527.983    482.604    483.834    482.604
 42.470    528.000    547.980    -19.980    482.375    546.761    482.375    483.625    482.375
 42.570    529.000    570.043    -41.043    482.148    568.816    482.148    483.418    482.148
 42.670    560.000    590.860    -30.860    481.924    589.624    481.924    483.214    481.924
 42.770    602.000    603.252     -1.252    481.701    602.004    481.701    483.013    481.701
 42.870    567.000    601.412    -34.412    481.481    600.143    481.481    482.815    481.481
 42.970    542.018    586.261    -44.243    481.262    584.962    481.262    482.620    481.262
 43.070    560.045    564.402     -4.357    481.046    563.068    481.046    482.428    481.046
 43.170    512.000    542.530    -30.530    480.831    541.159    480.831    482.238    480.831
 43.270    502.000    524.476    -22.476    480.619    523.067    480.619    482.052    480.619
 43.370    471.000    511.399    -40.399    480.409    509.955    480.409    481.869    480.409
 43.470    497.104    502.814     -5.710    480.201    501.337    480.201    481.689    480.201
 43.570    496.000    497.542     -1.542    479.994    496.032    479.994    481.512    479.994
 43.670    469.105    494.379    -25.274    479.790    492.837    479.790    481.338    479.790
 43.770    491.000    492.427     -1.427    479.588    490.852    479.588    481.168    479.588
 43.870    474.378    491.134    -16.756    479.388    489.525    479.388    481.001    479.388
 43.970    495.000    490.204      4.796    479.190    488.560    479.190    480.837    479.190
 44.070    494.133    489.490      4.643    478.995    487.809    478.995    480.678    478.995
 44.170    512.000    488.919     23.081    478.801    487.201    478.801    480.522    478.801
 44.270    487.171    488.454     -1.283    478.609    486.696    478.609    480.369    478.609
 44.370    477.000    488.071    -11.071    478.419    486.271    478.419    480.221    478.419
 44.470    496.000    487.753      8.247    478.232    485.910    478.232    480.077    478.232
 44.570    522.923    487.490     35.433    478.046    485.602    478.046    479.936    478.046
 44.670    474.000    487.274    -13.274    477.863    485.338    477.863    479.801    477.863
 44.770    472.000    487.097    -15.097    477.682    485.111    477.682    479.669    477.682
 44.870    511.326    486.956     24.369    477.503    484.918    477.503    479.542    477.503
 44.970    503.000    486.848     16.152    477.325    484.754    477.325    479.421    477.325
 45.070    519.636    486.769     32.867    477.150    484.617    477.150    479.304    477.150
 45.170    471.785    486.719    -14.934    476.977    484.506    476.977    479.192    476.977
 45.270    506.000    486.697     19.303    476.806    484.418    476.806    479.086    476.806
 45.370    462.000    486.701    -24.701    476.638    484.354    476.638    478.986    476.638
 45.470    503.000    486.732     16.268    476.471    484.312    476.471    478.892    476.471
 45.570    458.790    486.791    -28.001    476.306    484.294    476.306    478.804    476.306
 45.670    513.015    486.879     26.136    476.144    484.300    476.144    478.723    476.144
 45.770    470.453    486.997    -16.544    475.983    484.332    475.983    478.649    475.983
 45.870    524.560    487.147     37.413    475.825    484.389    475.825    478.583    475.825
 45.970    495.000    487.333      7.667    475.668    484.476    475.668    478.525    475.668
 46.070    505.000    487.556     17.444    475.514    484.594    475.514    478.476    475.514
 46.170    488.000    487.823      0.177    475.362    484.748    475.362    478.437    475.362
 46.270    529.936    488.137     41.799    475.212    484.941    475.212    478.408    475.212
 46.370    454.231    488.506    -34.275    475.063    485.180    475.063    478.389    475.063
 46.470    492.000    488.939      3.061    474.917    485.473    474.917    478.383    474.917
 46.570    475.150    489.447    -14.297    474.774    485.830    474.774    478.390    474.774
 46.670    515.844    490.046     25.798    474.632    486.266    474.632    478.411    474.632
 46.770    477.092    490.763    -13.670    474.492    486.806    474.492    478.448    474.492
 46.870    509.000    491.641     17.359    474.354    487.491    474.354    478.503    474.354
 46.970    512.000    492.764     19.236    474.218    488.405    474.218    478.576    474.218
 47.070    456.009    494.292    -38.283    474.085    489.704    474.085    478.671    474.085
 47.170    491.366    496.507     -5.141    473.953    491.668    473.953    478.789    473.953
 47.270    504.000    499.860      4.140    473.824    494.744    473.824    478.934    473.824
 47.370    479.000    504.961    -25.961    473.696    499.540    473.696    479.108    473.696
 47.470    522.000    512.464      9.536    473.571    506.706    473.571    479.315    473.571
 47.570    537.644    522.808     14.836    473.447    516.676    473.447    479.559    473.447
 47.670    531.393    535.828     -4.435    473.326    529.282    473.326    479.843    473.326
 47.770    535.949    550.320    -14.372    473.207    543.317    473.207    480.173    473.207
 47.870    570.000    563.659      6.341    473.089    556.150    473.089    480.553    473.089
 47.970    567.757    572.097     -4.341    472.974    564.033    472.974    480.989    472.974
 48.070    600.000    572.764     27.236    472.861    564.092    472.861    481.487    472.861
 48.170    565.000    566.089     -1.089    472.750    556.746    472.750    482.052    472.750
 48.270    615.000    555.386     59.614    472.640    545.304    472.640    482.691    472.640
 48.370    513.000    544.295    -31.295    472.533    533.398    472.533    483.409    472.533
 48.470    537.000    535.201      1.799    472.428    523.403    472.428    484.212    472.428
 48.570    532.000    529.134      2.866    472.325    516.350    472.325    485.101    472.325
 48.670    560.000    526.185     33.815    472.224    512.325    472.224    486.079    472.224
 48.770    539.000    525.936     13.064    472.124    510.917    472.124    487.142    472.124
 48.870    514.000    527.841    -13.841    472.027    511.585    472.027    488.283    472.027
 48.970    539.000    531.468      7.532    471.932    513.916    471.932    489.486    471.932
 49.070    512.988    536.644    -23.656    471.839    517.761    471.839    490.724    471.839
 49.170    546.414    543.590      2.824    471.748    523.377    471.748    491.963    471.748
 49.270    563.000    553.245      9.755    471.658    531.754    471.658    493.151    471.658
 49.370    548.000    568.053    -20.053    471.571    545.397    471.571    494.227    471.571
 49.470    634.343    593.465     40.878    471.486    569.823    471.486    495.123    471.486
 49.570    661.000    639.992     21.008    471.402    615.609    471.402    495.770    471.402
 49.670    730.628    724.646      5.981    471.321    699.822    471.321    496.112    471.321
 49.770    853.000    869.259    -16.259    471.241    844.328    471.241    496.114    471.241
 49.870   1115.089   1092.911     22.177    471.164   1068.217    471.164    495.772    471.164
 49.970   1335.000   1398.235    -63.235    471.088   1374.105    471.088    495.111    471.088
 50.070   1839.405   1756.074     83.330    471.015   1732.803    471.015    494.184    471.015
 50.170   2084.000   2096.630    -12.630    470.943   2074.458    470.943    493.055    470.943
 50.270   2378.905   2319.366     59.539    470.873   2298.469    470.873    491.796    470.873
 50.370   2323.000   2338.364    -15.364    470.805   2318.826    470.805    490.469    470.805
 50.470   2157.000   2145.233     11.767    470.739   2127.041    470.739    489.130    470.739
 50.570   1844.000   1817.393     26.607    470.675   1800.468    470.675    487.817    470.675
 50.670   1449.000   1458.518     -9.518    470.613   1442.766    470.613    486.561    470.613
 50.770   1123.000   1145.754    -22.754    470.552   1131.083    470.552    485.379    470.552
 50.870    904.000    914.975    -10.975    470.494    901.301    470.494    484.282    470.494
 50.970    723.000    767.432    -44.432    470.437    754.678    470.437    483.273    470.437
 51.070    661.000    684.406    -23.406    470.383    672.497    470.383    482.353    470.383
 51.170    658.418    641.520     16.897    470.330    630.381    470.330    481.520    470.330
 51.270    571.155    617.957    -46.802    470.279    607.513    470.279    480.768    470.279
 51.370    644.000    600.647     43.353    470.229    590.824    470.229    480.092    470.229
 51.470    569.816    584.457    -14.641    470.182    575.186    470.182    479.487    470.182
 51.570    555.000    569.043    -14.043    470.137    560.261    470.137    478.947    470.137
 51.670    599.000    555.444     43.556    470.093    547.092    470.093    478.465    470.093
 51.770    546.225    544.483      1.742    470.051    536.513    470.051    478.038    470.051
 51.870    532.205    536.427     -4.222    470.011    528.792    470.011    477.659    470.011
 51.970    577.000    531.071     45.929    469.973    523.731    469.973    477.323    469.973
 52.070    496.206    527.980    -31.774    469.936    520.897    469.936    477.028    469.936
 52.170    542.448    526.684     15.765    469.901    519.825    469.901    476.768    469.901
 52.270    558.000    526.851     31.149    469.868    520.186    469.868    476.541    469.868
 52.370    531.000    528.375      2.625    469.837    521.876    469.837    476.343    469.837
 52.470    526.474    531.455     -4.980    469.808    525.096    469.808    476.172    469.808
 52.570    520.025    536.727    -16.701    469.780    530.487    469.780    476.026    469.780
 52.670    541.350    545.495     -4.145    469.754    539.352    469.754    475.902    469.754
 52.770    548.371    560.016    -11.646    469.730    553.952    469.730    475.800    469.730
 52.870    593.901    583.699     10.202    469.708    577.694    469.708    475.717    469.708
 52.970    667.384    620.930     46.453    469.687    614.970    469.687    475.652    469.687
 53.070    708.000    676.235     31.765    469.668    670.305    469.668    475.605    469.668
 53.170    778.000    752.606     25.394    469.650    746.692    469.650    475.574    469.650
 53.270    793.886    849.206    -55.319    469.635    843.297    469.635    475.559    469.635
 53.370    940.000    958.873    -18.873    469.621    952.959    469.621    475.559    469.621
 53.470   1073.675   1065.849      7.826    469.608   1059.921    469.608    475.574    469.608
 53.570   1208.000   1145.547     62.453    469.598   1139.594    469.598    475.603    469.598
 53.670   1162.000   1171.927     -9.927    469.589   1165.934    469.589    475.647    469.589
 53.770   1096.439   1134.531    -38.092    469.581   1128.478    469.581    475.705    469.581
 53.870   1023.000   1047.957    -24.957    469.575   1041.822    469.575    475.777    469.575
 53.970    893.000    939.380    -46.380    469.571    933.146    469.571    475.863    469.571
 54.070    837.095    832.099      4.996    469.569    825.750    469.569    475.964    469.569
 54.170    738.000    740.054     -2.054    469.568    733.578    469.568    476.080    469.568
 54.270    662.494    668.934     -6.440    469.569    662.318    469.569    476.211    469.569
 54.370    645.856    618.594     27.262    469.571    611.827    469.571    476.357    469.571
 54.470    651.000    585.552     65.448    469.575    578.621    469.575    476.520    469.575
 54.570    556.000    565.189     -9.189    469.580    558.081    469.580    476.699    469.580
 54.670    507.504    553.260    -45.756    469.587    545.959    469.587    476.897    469.587
 54.770    563.000    546.583     16.417    469.596    539.074    469.596    477.112    469.596
 54.870    545.000    543.109      1.891    469.606    535.374    469.606    477.348    469.606
 54.970    571.625    541.664     29.962    469.617    533.684    469.617    477.604    469.617
 55.070    565.141    541.646     23.496    469.630    533.400    469.630    477.883    469.630
 55.170    562.000    542.781     19.219    469.645    534.247    469.645    478.186    469.645
 55.270    520.000    544.980    -24.980    469.661    536.134    469.661    478.514    469.661
 55.370    566.000    548.266     17.734    469.678    539.081    469.678    478.871    469.678
 55.470    570.000    552.760     17.240    469.697    543.208    469.697    479.257    469.697
 55.570    551.584    558.721     -7.137    469.718    548.770    469.718    479.677    469.718
 55.670    610.564    566.653     43.910    469.740    556.269    469.740    480.132    469.740
 55.770    561.533    577.545    -16.013    469.763    566.689    469.763    480.627    469.763
 55.870    610.822    593.295     17.527    469.788    581.925    469.788    481.166    469.788
 55.970    568.077    617.370    -49.293    469.814    605.438    469.814    481.752    469.814
 56.070    662.028    655.612      6.416    469.842    643.065    469.842    482.393    469.842
 56.170    683.000    716.867    -33.867    469.871    703.646    469.871    483.093    469.871
 56.270    820.341    812.797      7.544    469.901    798.836    469.901    483.859    469.901
 56.370    876.000    956.116    -80.116    469.933    941.343    469.933    484.699    469.933
 56.470   1115.216   1156.753    -41.537    469.966   1141.092    469.966    485.622    469.966
 56.570   1368.000   1416.278    -48.278    470.001   1399.646    470.001    486.636    470.001
 56.670   1611.000   1721.736   -110.736    470.036   1704.047    470.036    487.754    470.036
 56.770   1878.000   2040.338   -162.338    470.074   2021.498    470.074    488.987    470.074
 56.870   2314.000   2317.433     -3.433    470.112   2297.336    470.112    490.347    470.112
 56.970   2473.662   2485.349    -11.687    470.152   2463.869    470.152    491.849    470.152
 57.070   2445.689   2492.381    -46.692    470.193   2469.354    470.193    493.509    470.193
 57.170   2418.000   2336.930     81.070    470.235   2312.151    470.235    495.342    470.235
 57.270   2146.000   2068.847     77.153    470.279   2042.085    470.279    497.367    470.279
 57.370   1813.677   1756.066     57.611    470.324   1727.080    470.324    499.599    470.324
 57.470   1364.000   1454.432    -90.432    470.370   1422.980    470.370    502.059    470.370
 57.570   1128.000   1197.995    -69.995    470.417   1163.833    470.417    504.763    470.417
 57.670    953.000   1000.823    -47.823    470.465    963.694    470.465    507.727    470.465
 57.770    814.087    862.303    -48.215    470.515    821.945    470.515    510.966    470.515
 57.870    796.000    773.428     22.572    470.566    729.570    470.566    514.488    470.566
 57.970    697.076    722.602    -25.527    470.618    674.968    470.618    518.296    470.618
 58.070    722.000    699.738     22.262    470.672    648.059    470.672    522.380    470.672
 58.170    706.000    698.169      7.831    470.726    642.196    470.726    526.718    470.726
 58.270    710.000    714.690     -4.690    470.782    654.214    470.782    531.266    470.782
 58.370    736.380    748.407    -12.026    470.838    683.291    470.838    535.955    470.838
 58.470    771.000    799.084    -28.084    470.896    729.290    470.896    540.685    470.896
 58.570    788.000    865.451    -77.451    470.955    791.077    470.955    545.320    470.955
 58.670    950.613    943.780      6.833    471.015    865.094    471.015    549.692    471.015
 58.770   1002.882   1027.215    -24.334    471.076    944.682    471.076    553.607    471.076
 58.870   1089.000   1106.859    -17.859    471.139   1021.150    471.139    556.857    471.139
 58.970   1213.511   1174.691     38.820    471.202   1086.671    471.202    559.246    471.202
 59.070   1237.474   1224.966     12.508    471.266   1135.655    471.266    560.618    471.266
 59.170   1396.000   1252.546    143.454    471.332   1163.055    471.332    560.878    471.332
 59.270   1343.000   1253.521     89.479    471.398   1164.971    471.398    560.013    471.398
 59.370   1277.904   1230.218     47.685    471.465   1143.655    471.465    558.093    471.465
 59.470   1262.000   1193.367     68.633    471.534   1109.695    471.534    555.256    471.534
 59.570   1257.000   1157.117     99.883    471.603   1077.054    471.603    551.689    471.603
 59.670   1175.000   1133.553     41.447    471.673   1057.616    471.673    547.599    471.673
 59.770   1131.219   1131.739     -0.520    471.745   1060.245    471.745    543.186    471.745
 59.870   1146.000   1158.421    -12.421    471.817   1091.510    471.817    538.630    471.817
 59.970   1236.000   1216.304     19.696    471.890   1153.975    471.890    534.077    471.890
 60.070   1386.000   1300.423     85.577    471.964   1242.566    471.964    529.637    471.964
 60.170   1404.000   1395.744      8.256    472.039   1342.180    472.039    525.391    472.039
 60.270   1528.000   1477.758     50.242    472.115   1428.263    472.115    521.389    472.115
 60.370   1573.000   1517.896     55.104    472.192   1472.222    472.192    517.661    472.192
 60.470   1483.000   1495.564    -12.564    472.269   1453.447    472.269    514.219    472.269
 60.570   1479.000   1410.186     68.814    472.348   1371.350    472.348    511.065    472.348
 60.670   1317.000   1280.730     36.270    472.427   1244.889    472.427    508.191    472.427
 60.770   1117.000   1133.619    -16.619    472.507   1100.498    472.507    505.586    472.507
 60.870    950.000    991.765    -41.765    472.588    961.101    472.588    503.232    472.588
 60.970    863.441    870.306     -6.865    472.670    841.855    472.670    501.114    472.670
 61.070    773.936    776.585     -2.649    472.752    750.123    472.752    499.212    472.752
 61.170    772.000    711.946     60.054    472.836    687.272    472.836    497.507    472.836
 61.270    697.000    674.342     22.658    472.920    651.272    472.920    495.982    472.920
 61.370    680.000    660.952     19.048    473.005    639.323    473.005    494.618    473.005
 61.470    685.431    670.060     15.370    473.090    649.726    473.090    493.398    473.090
 61.570    693.000    701.708     -8.708    473.176    682.538    473.176    492.306    473.176
 61.670    709.279    757.064    -47.785    473.263    738.945    473.263    491.325    473.263
 61.770    849.233    836.786     12.447    473.351    819.618    473.351    490.440    473.351
 61.870    881.092    938.876    -57.784    473.439    922.577    473.439    489.640    473.439
 61.970   1054.000   1056.643     -2.643    473.528   1041.145    473.528    488.911    473.528
 62.070   1199.767   1177.271     22.496    473.618   1162.522    473.618    488.244    473.618
 62.170   1261.000   1281.656    -20.656    473.708   1267.617    473.708    487.630    473.708
 62.270   1302.000   1347.282    -45.282    473.799   1333.920    473.799    487.063    473.799
 62.370   1317.154   1356.244    -39.090    473.890   1343.529    473.890    486.538    473.890
 62.470   1367.895   1305.280     62.615    473.982   1293.178    473.982    486.050    473.982
 62.570   1180.000   1208.056    -28.056    474.075   1196.524    474.075    485.598    474.075
 62.670   1049.000   1086.736    -37.736    474.168   1075.733    474.168    485.179    474.168
 62.770    964.777    962.122      2.655    474.262    951.608    474.262    484.792    474.262
 62.870    874.000    849.027     24.973    474.356    838.967    474.356    484.435    474.356
 62.970    757.953    755.651      2.301    474.451    746.011    474.451    484.108    474.451
 63.070    731.521    684.569     46.951    474.546    675.320    474.546    483.808    474.546
 63.170    646.000    634.266     11.734    474.642    625.381    474.642    483.535    474.642
 63.270    594.000    601.042     -7.042    474.738    592.498    474.738    483.287    474.738
 63.370    587.000    580.650      6.350    474.835    572.425    474.835    483.062    474.835
 63.470    563.551    569.431     -5.881    474.932    561.503    474.932    482.859    474.932
 63.570    555.638    564.885     -9.247    475.030    557.233    475.030    482.677    475.030
 63.670    612.000    565.805     46.195    475.128    558.411    475.128    482.515    475.128
 63.770    565.000    572.165     -7.165    475.226    565.009    475.226    482.371    475.226
 63.870    611.000    584.868     26.132    475.325    577.933    475.325    482.243    475.325
 63.970    653.000    605.410     47.590    475.424    598.678    475.424    482.132    475.424
 64.070    663.000    635.413     27.587    475.524    628.867    475.524    482.035    475.524
 64.170    677.000    676.035      0.965    475.624    669.660    475.624    481.952    475.624
 64.270    755.000    727.277     27.723    475.724    721.059    475.724    481.882    475.724
 64.370    804.000    787.269     16.731    475.825    781.196    475.825    481.824    475.825
 64.470    857.000    851.641      5.359    475.926    845.704    475.926    481.777    475.926
 64.570    877.045    913.214    -36.168    476.027    907.407    476.027    481.741    476.027
 64.670    909.000    962.671    -53.671    476.128    956.993    476.128    481.715    476.128
 64.770    975.000    991.040    -16.040    476.230    985.489    476.230    481.698    476.230
 64.870   1028.871    993.331     35.540    476.332    987.905    476.332    481.690    476.332
 64.970    967.000    970.564     -3.564    476.435    965.260    476.435    481.690    476.435
 65.070    961.693    928.781     32.912    476.537    923.593    476.537    481.699    476.537
 65.170    835.000    876.451    -41.451    476.640    871.370    476.640    481.714    476.640
 65.270    812.000    821.706     -9.706    476.743    816.724    476.743    481.737    476.743
 65.370    765.000    770.350     -5.350    476.846    765.455    476.846    481.766    476.846
 65.470    745.697    725.252     20.444    476.949    720.433    476.949    481.802    476.949
 65.570    664.000    686.966    -22.966    477.052    682.212    477.052    481.844    477.052
 65.670    635.956    654.969    -19.012    477.156    650.270    477.156    481.891    477.156
 65.770    594.000    628.653    -34.653    477.260    624.001    477.260    481.945    477.260
 65.870    593.000    607.543    -14.543    477.363    602.931    477.363    482.004    477.363
 65.970    567.000    591.136    -24.136    477.467    586.557    477.467    482.068    477.467
 66.070    631.000    578.857     52.143    477.571    574.307    477.571    482.138    477.571
 66.170    535.000    570.133    -35.133    477.675    565.609    477.675    482.212    477.675
 66.270    554.849    564.456     -9.608    477.779    559.953    477.779    482.292    477.779
 66.370    544.000    561.409    -17.409    477.883    556.924    477.883    482.376    477.883
 66.470    578.000    560.671     17.329    477.988    556.200    477.988    482.465    477.988
 66.570    518.027    562.056    -44.029    478.092    557.596    478.092    482.559    478.092
 66.670    596.509    565.585     30.924    478.196    561.131    478.196    482.658    478.196
 66.770    571.488    571.605     -0.117    478.300    567.152    478.300    482.761    478.300
 66.870    581.000    580.973      0.027    478.404    576.517    478.404    482.870    478.404
 66.970    598.105    595.300      2.805    478.508    590.837    478.508    482.983    478.508
 67.070    641.000    617.251     23.749    478.612    612.774    478.612    483.101    478.612
 67.170    623.095    650.808    -27.713    478.716    646.314    478.716    483.224    478.716
 67.270    683.000    701.379    -18.379    478.820    696.864    478.820    483.352    478.820
 67.370    748.668    775.521    -26.852    478.924    770.980    478.924    483.485    478.924
 67.470    933.850    880.087     53.763    479.027    875.518    479.027    483.623    479.027
 67.570   1082.299   1020.714     61.585    479.131   1016.117    479.131    483.767    479.131
 67.670   1266.654   1199.751     66.903    479.234   1195.126    479.234    483.916    479.234
 67.770   1460.476   1413.994     46.482    479.337   1409.344    479.337    484.071    479.337
 67.870   1600.459   1652.654    -52.196    479.440   1647.983    479.440    484.233    479.440
 67.970   1901.000   1895.894      5.106    479.543   1891.207    479.543    484.400    479.543
 68.070   2149.289   2114.446     34.844    479.646   2109.745    479.646    484.575    479.646
 68.170   2302.000   2272.284     29.716    479.748   2267.567    479.748    484.756    479.748
 68.270   2397.000   2336.030     60.970    479.850   2331.286    479.850    484.945    479.850
 68.370   2304.742   2290.215     14.528    479.952   2285.420    479.952    485.142    479.952
 68.470   2244.000   2146.378     97.622    480.054   2141.498    480.054    485.348    480.054
 68.570   1891.548   1935.998    -44.450    480.155   1930.993    480.155    485.562    480.155
 68.670   1643.885   1695.355    -51.470    480.257   1690.190    480.257    485.786    480.257
 68.770   1397.906   1455.054    -57.148    480.357   1449.705    480.357    486.020    480.357
 68.870   1238.000   1236.493      1.507    480.458   1230.943    480.458    486.265    480.458
 68.970   1163.000   1051.877    111.123    480.558   1046.115    480.558    486.523    480.558
 69.070    891.043    905.542    -14.499    480.658    899.560    480.658    486.793    480.658
 69.170    824.000    795.906     28.094    480.757    789.698    480.757    487.078    480.757
 69.270    775.000    717.733     57.267    480.857    711.293    480.857    487.378    480.857
 69.370    641.634    664.255    -22.620    480.955    657.573    480.955    487.695    480.955
 69.470    635.000    628.788      6.212    481.054    621.852    481.054    488.032    481.054
 69.570    625.000    605.688     19.312    481.152    598.482    481.152    488.389    481.152
 69.670    589.000    590.699     -1.699    481.249    583.202    481.249    488.770    481.249
 69.770    620.209    580.889     39.320    481.346    573.079    481.346    489.176    481.346
 69.870    583.159    574.391      8.768    481.443    566.238    481.443    489.612    481.443
 69.970    606.000    570.086     35.914    481.539    561.558    481.539    490.080    481.539
 70.070    565.000    567.344     -2.344    481.635    558.404    481.635    490.586    481.635
 70.170    534.000    565.835    -31.835    481.730    556.441    481.730    491.134    481.730
 70.270    540.734    565.410    -24.676    481.825    555.513    481.825    491.731    481.825
 70.370    543.000    566.051    -23.051    481.919    555.596    481.919    492.381    481.919
 70.470    551.000    567.861    -16.861    482.013    556.785    482.013    493.095    482.013
 70.570    559.363    571.097    -11.734    482.106    559.328    482.106    493.879    482.106
 70.670    577.000    576.245      0.755    482.198    563.701    482.198    494.745    482.198
 70.770    610.237    584.131     26.107    482.290    570.718    482.290    495.704    482.290
 70.870    595.000    596.067     -1.067    482.382    581.679    482.382    496.768    482.382
 70.970    595.000    614.001    -19.001    482.472    598.516    482.472    497.951    482.472
 71.070    673.000    640.622     32.378    482.563    623.905    482.563    499.268    482.563
 71.170    652.000    679.342    -27.342    482.652    661.238    482.652    500.736    482.652
 71.270    723.000    734.055    -11.055    482.741    714.394    482.741    502.371    482.741
 71.370    717.000    808.610    -91.610    482.829    787.202    482.829    504.192    482.829
 71.470    863.656    905.977    -42.321    482.917    882.618    482.917    506.216    482.917
 71.570    974.000   1027.184    -53.184    483.004   1001.652    483.004    508.460    483.004
 71.670   1158.000   1170.192    -12.192    483.090   1142.249    483.090    510.940    483.090
 71.770   1248.000   1328.883    -80.883    483.176   1298.284    483.176    513.669    483.176
 71.870   1516.284   1492.331     23.953    483.261   1458.823    483.261    516.657    483.261
 71.970   1649.000   1644.567      4.433    483.345   1607.898    483.345    519.906    483.345
 72.070   1780.281   1765.629     14.652    483.428   1725.556    483.428    523.409    483.428
 72.170   1873.000   1835.388     37.612    483.511   1791.687    483.511    527.146    483.511
 72.270   1858.000   1840.449     17.551    483.593   1792.929    483.593    531.080    483.593
 72.370   1769.626   1780.424    -10.799    483.674   1728.950    483.674    535.149    483.674
 72.470   1656.000   1668.106    -12.106    483.754   1612.625    483.754    539.262    483.754
 72.570   1571.000   1523.351     47.649    483.833   1463.934    483.833    543.296    483.833
 72.670   1411.000   1366.063     44.937    483.912   1302.938    483.912    547.092    483.912
 72.770   1232.000   1212.219     19.781    483.990   1145.803    483.990    550.464    483.990
 72.870   1075.484   1072.748      2.736    484.067   1003.660    484.067    553.211    484.067
 72.970    894.000    953.759    -59.759    484.143    882.808    484.143    555.145    484.143
 73.070    881.000    857.305     23.695    484.218    785.447    484.218    556.121    484.218
 73.170    763.000    782.410    -19.410    484.292    710.678    484.292    556.063    484.292
 73.270    763.809    726.211     37.598    484.366    655.628    484.366    554.982    484.366
 73.370    708.000    685.017     22.983    484.438    616.511    484.438    552.973    484.438
 73.470    657.000    655.135      1.865    484.510    589.477    484.510    550.194    484.510
 73.570    655.860    633.378     22.482    484.581    571.143    484.581    546.839    484.581
 73.670    577.000    617.286    -40.286    484.651    558.852    484.651    543.106    484.651
 73.770    620.000    605.124     14.876    484.719    550.688    484.719    539.176    484.719
 73.870    555.000    595.765    -40.765    484.787    545.375    484.787    535.199    484.787
 73.970    576.000    588.522    -12.522    484.854    542.108    484.854    531.291    484.854
 74.070    599.986    582.982     17.003    484.920    540.392    484.920    527.535    484.920
 74.170    553.306    578.879    -25.573    484.985    539.906    484.985    523.986    484.985
 74.270    603.000    575.986     27.014    485.049    540.390    485.049    520.678    485.049
 74.370    581.000    574.060      6.940    485.112    541.583    485.112    517.625    485.112
 74.470    599.239    572.792     26.447    485.174    543.174    485.174    514.833    485.174
 74.570    573.000    571.796      1.204    485.234    544.780    485.234    512.298    485.234
 74.670    526.642    570.625    -43.983    485.294    545.961    485.294    510.008    485.294
 74.770    670.000    568.841    101.159    485.353    546.297    485.353    507.950    485.353
 74.870    626.000    566.155     59.845    485.410    545.510    485.410    506.108    485.410
 74.970    550.258    562.546    -12.288    485.467    543.599    485.467    504.464    485.467
 75.070    590.000    558.277     31.723    485.522    540.846    485.522    503.000    485.522
 75.170    586.000    553.797     32.203    485.576    537.715    485.576    501.699    485.576
 75.270    577.000    549.615     27.385    485.629    534.734    485.629    500.544    485.629
 75.370    564.031    546.233     17.798    485.681    532.422    485.681    499.518    485.681
 75.470    577.000    544.133     32.867    485.732    531.278    485.732    498.608    485.732
 75.570    575.000    543.788     31.212    485.782    531.785    485.782    497.798    485.782
 75.670    515.390    545.656    -30.266    485.830    534.416    485.830    497.078    485.830
 75.770    562.000    550.172     11.828    485.878    539.615    485.878    496.435    485.878
 75.870    513.989    557.702    -43.713    485.924    547.759    485.924    495.861    485.924
 75.970    546.086    568.475    -22.389    485.969    559.085    485.969    495.346    485.969
 76.070    617.000    582.504     34.496    486.012    573.613    486.012    494.883    486.012
 76.170    588.843    599.475    -10.633    486.055    591.037    486.055    494.466    486.055
 76.270    621.000    618.665      2.335    486.096    610.639    486.096    494.089    486.096
 76.370    691.000    638.872     52.128    486.136    631.221    486.136    493.746    486.136
 76.470    661.000    658.379      2.621    486.175    651.073    486.175    493.434    486.175
 76.570    666.000    675.000     -9.000    486.212    668.012    486.212    493.149    486.212
 76.670    715.000    686.331     28.669    486.249    679.639    486.249    492.889    486.249
 76.770    697.376    690.343      7.032    486.284    683.928    486.284    492.650    486.284
 76.870    688.000    686.164      1.836    486.317    680.007    486.317    492.429    486.317
 76.970    666.858    674.482     -7.624    486.350    668.567    486.350    492.226    486.350
 77.070    645.000    657.212    -12.212    486.381    651.523    486.381    492.038    486.381
 77.170    606.000    636.720    -30.720    486.410    631.243    486.410    491.864    486.410
 77.270    589.000    615.203    -26.203    486.439    609.922    486.439    491.702    486.439
 77.370    568.000    594.393    -26.393    486.466    589.294    486.466    491.551    486.466
 77.470    544.000    575.494    -31.494    486.491    570.566    486.491    491.411    486.491
 77.570    536.000    559.213    -23.213    486.515    554.443    486.515    491.279    486.515
 77.670    548.000    545.822      2.178    486.538    541.201    486.538    491.157    486.538
 77.770    509.000    535.257    -26.257    486.560    530.774    486.560    491.041    486.560
 77.870    569.128    527.222     41.906    486.580    522.869    486.580    490.933    486.580
 77.970    495.000    521.300    -26.300    486.599    517.067    486.599    490.831    486.599
 78.070    507.999    517.040     -9.040    486.616    512.921    486.616    490.735    486.616
 78.170    513.000    514.025     -1.025    486.632    510.013    486.632    490.644    486.632
 78.270    543.981    511.905     32.076    486.646    507.993    486.646    490.558    486.646
 78.370    470.279    510.410    -40.131    486.660    506.593    486.660    490.477    486.660
 78.470    486.282    509.345    -23.063    486.671    505.617    486.671    490.400    486.671
 78.570    499.000    508.580     -9.580    486.681    504.936    486.681    490.326    486.681
 78.670    483.000    508.033    -25.033    486.690    504.467    486.690    490.256    486.690
 78.770    526.000    507.656     18.344    486.697    504.164    486.697    490.190    486.697
 78.870    525.195    507.428     17.768    486.703    504.006    486.703    490.126    486.703
 78.970    506.185    507.343     -1.158    486.707    503.986    486.707    490.064    486.707
 79.070    474.000    507.410    -33.410    486.710    504.115    486.710    490.006    486.710
 79.170    506.000    507.646     -1.646    486.711    504.408    486.711    489.949    486.711
 79.270    490.000    508.076    -18.076    486.711    504.892    486.711    489.895    486.711
 79.370    509.000    508.731      0.269    486.709    505.598    486.709    489.843    486.709
 79.470    489.000    509.652    -20.652    486.706    506.565    486.706    489.792    486.706
 79.570    495.000    510.884    -15.884    486.701    507.842    486.701    489.743    486.701
 79.670    482.000    512.490    -30.490    486.694    509.488    486.694    489.695    486.694
 79.770    528.000    514.550     13.450    486.686    511.586    486.686    489.648    486.686
 79.870    493.000    517.175    -24.175    486.677    514.247    486.677    489.603    486.677
 79.970    486.603    520.512    -33.909    486.666    517.618    486.666    489.558    486.666
 80.070    511.000    524.753    -13.753    486.653    521.890    486.653    489.514    486.653
 80.170    544.000    530.137     13.863    486.639    527.305    486.639    489.470    486.639
 80.270    576.000    536.959     39.041    486.623    534.155    486.623    489.426    486.623
 80.370    496.000    545.559    -49.559    486.606    542.783    486.606    489.382    486.606
 80.470    552.000    556.293     -4.293    486.587    553.545    486.587    489.337    486.587
 80.570    604.583    569.456     35.128    486.566    566.735    486.566    489.292    486.566
 80.670    575.457    585.180     -9.723    486.544    582.488    486.544    489.245    486.544
 80.770    600.000    603.346     -3.346    486.520    600.683    486.520    489.197    486.520
 80.870    595.000    623.510    -28.510    486.495    620.876    486.495    489.147    486.495
 80.970    635.000    644.874     -9.874    486.467    642.271    486.467    489.095    486.467
 81.070    632.000    666.318    -34.318    486.439    663.748    486.439    489.041    486.439
 81.170    732.344    686.584     45.760    486.408    684.047    486.408    488.985    486.408
 81.270    659.000    704.458    -45.458    486.376    701.954    486.376    488.927    486.376
 81.370    732.000    718.853     13.147    486.343    716.381    486.343    488.868    486.343
 81.470    691.530    728.973    -37.444    486.307    726.535    486.307    488.806    486.307
 81.570    733.000    734.350     -1.350    486.270    731.945    486.270    488.743    486.270
 81.670    733.000    734.865     -1.865    486.231    732.490    486.231    488.679    486.231
 81.770    687.849    730.706    -42.857    486.191    728.360    486.191    488.614    486.191
 81.870    738.000    722.290     15.710    486.149    719.971    486.149    488.548    486.149
 81.970    734.731    710.229     24.502    486.105    707.933    486.105    488.481    486.105
 82.070    689.000    695.360     -6.360    486.060    693.086    486.060    488.413    486.060
 82.170    660.000    678.698    -18.698    486.012    676.443    486.012    488.345    486.012
 82.270    637.277    661.247    -23.970    485.964    659.009    485.964    488.276    485.964
 82.370    670.000    643.799     26.201    485.913    641.575    485.913    488.207    485.913
 82.470    663.203    626.857     36.346    485.861    624.646    485.861    488.137    485.861
 82.570    586.000    610.714    -24.714    485.807    608.514    485.807    488.066    485.807
 82.670    589.000    595.593     -6.593    485.751    593.401    485.751    487.996    485.751
 82.770    528.000    581.738    -53.738    485.693    579.553    485.693    487.924    485.693
 82.870    521.000    569.424    -48.424    485.634    567.245    485.634    487.852    485.634
 82.970    518.000    558.909    -40.909    485.573    556.733    485.573    487.779    485.573
 83.070    550.000    550.388     -0.388    485.511    548.215    485.511    487.706    485.511
 83.170    524.548    543.979    -19.431    485.446    541.808    485.446    487.632    485.446
 83.270    538.683    539.720     -1.036    485.380    537.549    485.380    487.557    485.380
 83.370    581.842    537.558     44.284    485.312    535.387    485.312    487.481    485.312
 83.470    526.000    537.353    -11.353    485.242    535.180    485.242    487.405    485.242
 83.570    524.000    538.860    -14.860    485.171    536.686    485.171    487.328    485.171
 83.670    502.310    541.738    -39.428    485.098    539.561    485.098    487.250    485.098
 83.770    552.645    545.542      7.103    485.023    543.363    485.023    487.171    485.023
 83.870    549.000    549.747     -0.747    484.946    547.564    484.946    487.091    484.946
 83.970    561.750    553.755      7.995    484.867    551.570    484.867    487.011    484.867
 84.070    539.000    556.943    -17.943    484.787    554.757    484.787    486.929    484.787
 84.170    551.000    558.741     -7.741    484.705    556.554    484.705    486.846    484.705
 84.270    529.000    558.746    -29.746    484.621    556.560    484.621    486.762    484.621
 84.370    602.132    556.833     45.298    484.535    554.648    484.535    486.678    484.535
 84.470    587.000    553.177     33.823    484.448    550.994    484.448    486.592    484.448
 84.570    557.000    548.177      8.823    484.359    545.996    484.359    486.505    484.359
 84.670    528.000    542.333    -14.333    484.268    540.154    484.268    486.417    484.268
 84.770    564.472    536.137     28.336    484.175    533.958    484.175    486.329    484.175
 84.870    564.364    530.011     34.353    484.080    527.832    484.080    486.239    484.080
 84.970    525.000    524.283      0.717    483.984    522.103    483.984    486.148    483.984
 85.070    532.000    519.180     12.820    483.886    516.997    483.886    486.055    483.886
 85.170    476.000    514.832    -38.832    483.786    512.645    483.786    485.962    483.786
 85.270    512.000    511.284      0.716    483.684    509.092    483.684    485.868    483.684
 85.370    517.960    508.517      9.443    483.580    506.318    483.580    485.773    483.580
 85.470    508.365    506.467      1.898    483.475    504.260    483.475    485.676    483.475
 85.570    505.000    505.051     -0.051    483.368    502.834    483.368    485.579    483.368
 85.670    460.429    504.182    -43.753    483.259    501.955    483.259    485.480    483.259
 85.770    479.306    503.789    -24.483    483.148    501.551    483.148    485.381    483.148
 85.870    493.000    503.826    -10.826    483.035    501.575    483.035    485.280    483.035
 85.970    481.000    504.278    -23.278    482.921    502.013    482.921    485.179    482.921
 86.070    538.000    505.166     32.834    482.805    502.886    482.805    485.076    482.805
 86.170    510.000    506.545      3.455    482.686    504.249    482.686    484.972    482.686
 86.270    514.000    508.503      5.497    482.567    506.189    482.567    484.868    482.567
 86.370    522.000    511.155     10.845    482.445    508.822    482.445    484.762    482.445
 86.470    547.626    514.631     32.995    482.322    512.276    482.322    484.656    482.322
 86.570    526.000    519.061      6.939    482.196    516.684    482.196    484.548    482.196
 86.670    505.000    524.561    -19.561    482.069    522.159    482.069    484.440    482.069
 86.770    506.000    531.206    -25.206    481.940    528.776    481.940    484.331    481.940
 86.870    552.000    539.004     12.996    481.810    536.545    481.810    484.221    481.810
 86.970    577.000    547.872     29.128    481.677    545.382    481.677    484.111    481.677
 87.070    569.000    557.608     11.392    481.543    555.085    481.543    483.999    481.543
 87.170    568.000    567.875      0.125    481.407    565.319    481.407    483.887    481.407
 87.270    560.771    578.192    -17.421    481.269    575.600    481.269    483.774    481.269
 87.370    564.063    587.931    -23.869    481.130    585.306    481.130    483.661    481.130
 87.470    568.956    596.359    -27.404    480.988    593.700    480.988    483.547    480.988
 87.570    648.000    602.714     45.286    480.845    600.023    480.845    483.433    480.845
 87.670    601.000    606.353     -5.353    480.700    603.633    480.700    483.318    480.700
 87.770    633.553    606.936     26.617    480.553    604.189    480.553    483.203    480.553
 87.870    563.536    604.521    -40.985    480.405    601.748    480.405    483.087    480.405
 87.970    610.000    599.544     10.456    480.254    596.747    480.254    482.971    480.254
 88.070    645.000    592.699     52.301    480.102    589.877    480.102    482.856    480.102
 88.170    564.889    584.783    -19.894    479.948    581.935    479.948    482.740    479.948
 88.270    589.000    576.594     12.406    479.792    573.718    479.792    482.624    479.792
 88.370    552.000    568.860    -16.860    479.635    565.954    479.635    482.508    479.635
 88.470    588.000    562.197     25.803    479.476    559.258    479.476    482.393    479.476
 88.570    516.764    557.077    -40.313    479.315    554.101    479.315    482.278    479.315
 88.670    548.000    553.806     -5.806    479.152    550.792    479.152    482.164    479.152
 88.770    575.000    552.521     22.479    478.988    549.464    478.988    482.050    478.988
 88.870    554.000    553.184      0.816    478.821    550.082    478.821    481.938    478.821
 88.970    520.000    555.601    -35.601    478.653    552.451    478.653    481.826    478.653
 89.070    584.515    559.431     25.084    478.484    556.229    478.484    481.716    478.484
 89.170    599.000    564.207     34.793    478.312    560.950    478.312    481.608    478.312
 89.270    595.479    569.359     26.120    478.139    566.043    478.139    481.501    478.139
 89.370    576.000    574.243      1.757    477.964    570.863    477.964    481.397    477.964
 89.470    573.000    578.188     -5.188    477.787    574.740    477.787    481.295    477.787
 89.570    565.000    580.582    -15.582    477.609    577.059    477.609    481.196    477.609
 89.670    561.685    580.974    -19.289    477.429    577.369    477.429    481.101    477.429
 89.770    583.000    579.181      3.819    477.247    575.488    477.247    481.009    477.247
 89.870    536.226    575.324    -39.098    477.063    571.534    477.063    480.921    477.063
 89.970    518.000    569.770    -51.770    476.878    565.874    476.878    480.837    476.878
 90.070    609.000    563.019     45.981    476.691    559.009    476.691    480.759    476.691
 90.170    588.000    555.599     32.401    476.503    551.467    476.503    480.687    476.503
 90.270    561.000    547.993     13.007    476.312    543.731    476.312    480.620    476.312
 90.370    564.000    540.606     23.394    476.120    536.205    476.120    480.561    476.120
 90.470    516.331    533.749    -17.417    475.927    529.199    475.927    480.509    475.927
 90.570    556.519    527.637     28.882    475.732    522.930    475.732    480.466    475.732
 90.670    541.299    522.401     18.898    475.535    517.526    475.535    480.432    475.535
 90.770    503.000    518.089    -15.089    475.336    513.035    475.336    480.407    475.336
 90.870    475.122    514.691    -39.569    475.136    509.447    475.136    480.393    475.136
 90.970    514.000    512.151      1.849    474.934    506.705    474.934    480.390    474.934
 91.070    490.318    510.391    -20.073    474.731    504.729    474.731    480.400    474.731
 91.170    478.586    509.326    -30.740    474.526    503.435    474.526    480.423    474.526
 91.270    529.000    508.881     20.119    474.319    502.745    474.319    480.459    474.319
 91.370    509.000    509.002     -0.002    474.111    502.605    474.111    480.510    474.111
 91.470    509.006    509.664     -0.658    473.901    502.990    473.901    480.576    473.901
 91.570    488.738    510.880    -22.142    473.689    503.911    473.689    480.658    473.689
 91.670    533.000    512.697     20.303    473.476    505.414    473.476    480.757    473.476
 91.770    521.000    515.201      5.799    473.262    507.587    473.262    480.873    473.262
 91.870    508.002    518.513    -10.511    473.045    510.547    473.045    481.007    473.045
 91.970    563.977    522.779     41.198    472.828    514.442    472.828    481.157    472.828
 92.070    530.000    528.167      1.833    472.609    519.440    472.609    481.326    472.609
 92.170    518.755    534.850    -16.094    472.388    525.714    472.388    481.511    472.388
 92.270    501.778    542.992    -41.214    472.165    533.429    472.165    481.712    472.165
 92.370    518.000    552.729    -34.729    471.942    542.723    471.942    481.927    471.942
 92.470    502.000    564.150    -62.150    471.716    553.686    471.716    482.155    471.716
 92.570    571.000    577.266     -6.266    471.490    566.333    471.490    482.392    471.490
 92.670    583.000    592.063     -9.063    471.261    580.652    471.261    482.635    471.261
 92.770    603.402    608.368     -4.966    471.032    596.478    471.032    482.880    471.032
 92.870    626.924    625.918      1.006    470.800    613.551    470.800    483.119    470.800
 92.970    669.000    644.332     24.668    470.568    631.498    470.568    483.348    470.568
 93.070    627.000    663.121    -36.121    470.334    649.839    470.334    483.558    470.334
 93.170    650.000    681.715    -31.715    470.098    668.011    470.098    483.741    470.098
 93.270    703.000    699.537      3.463    469.861    685.448    469.861    483.887    469.861
 93.370    710.000    716.114     -6.114    469.623    701.683    469.623    483.989    469.623
 93.470    740.000    731.180      8.820    469.383    716.462    469.383    484.037    469.383
 93.570    784.000    744.730     39.270    469.142    729.786    469.142    484.023    469.142
 93.670    738.000    756.965    -18.965    468.900    741.861    468.900    483.943    468.900
 93.770    748.000    768.179    -20.179    468.656    752.984    468.656    483.792    468.656
 93.870    804.312    778.641     25.670    468.411    763.427    468.411    483.570    468.411
 93.970    781.551    788.546     -6.995    468.164    773.381    468.164    483.277    468.164
 94.070    778.722    798.033    -19.311    467.917    782.983    467.917    482.918    467.917
 94.170    772.000    807.252    -35.252    467.668    792.376    467.668    482.498    467.668
 94.270    791.000    816.400    -25.400    467.417    801.750    467.417    482.025    467.417
 94.370    814.000    825.684    -11.684    467.166    811.302    467.166    481.509    467.166
 94.470    805.996    835.202    -29.206    466.913    821.123    466.913    480.957    466.913
 94.570    824.000    844.816    -20.816    466.659    831.064    466.659    480.380    466.659
 94.670    854.000    854.059     -0.059    466.403    840.651    466.403    479.785    466.403
 94.770    806.167    862.136    -55.969    466.147    849.081    466.147    479.181    466.147
 94.870    902.000    867.968     34.032    465.889    855.267    465.889    478.575    465.889
 94.970    949.000    870.358     78.642    465.630    858.008    465.630    477.973    465.630
 95.070    872.890    868.216      4.674    465.370    856.208    465.370    477.379    465.370
 95.170    836.669    860.829    -24.160    465.108    849.149    465.108    476.797    465.108
 95.270    877.924    848.084     29.840    464.846    836.713    464.846    476.232    464.846
 95.370    886.000    830.538     55.462    464.582    819.457    464.582    475.684    464.582
 95.470    872.000    809.321     62.679    464.318    798.507    464.318    475.156    464.318
 95.570    860.000    785.925     74.075    464.052    775.354    464.052    474.650    464.052
 95.670    792.239    761.999     30.240    463.785    751.646    463.785    474.165    463.785
 95.770    782.024    739.197     42.827    463.517    729.036    463.517    473.703    463.517
 95.870    735.000    719.087     15.913    463.248    709.095    463.248    473.263    463.248
 95.970    724.000    703.109     20.891    462.978    693.259    462.978    472.847    462.978
 96.070    720.568    692.538     28.030    462.707    682.805    462.707    472.454    462.707
 96.170    730.046    688.470     41.576    462.435    678.830    462.435    472.084    462.435
 96.270    690.000    691.787     -1.787    462.162    682.215    462.162    471.737    462.162
 96.370    737.000    703.230     33.770    461.888    693.701    461.888    471.413    461.888
 96.470    741.000    723.338     17.662    461.613    713.829    461.613    471.112    461.613
 96.570    793.000    752.343     40.657    461.338    742.830    461.338    470.834    461.338
 96.670    772.000    790.239    -18.239    461.061    780.697    461.061    470.579    461.061
 96.770    840.526    836.725      3.800    460.783    827.132    460.783    470.348    460.783
 96.870    855.763    891.112    -35.349    460.505    881.445    460.505    470.140    460.505
 96.970    982.000    952.289     29.711    460.226    942.523    460.226    469.955    460.226
 97.070   1013.000   1018.670     -5.670    459.945   1008.783    459.945    469.795    459.945
 97.170   1100.000   1088.161     11.839    459.665   1078.129    459.665    469.661    459.665
 97.270   1159.001   1158.142      0.858    459.383   1147.940    459.383    469.552    459.383
 97.370   1250.746   1225.497     25.249    459.100   1215.101    459.100    469.470    459.100
 97.470   1270.000   1286.705    -16.705    458.817   1276.090    458.817    469.417    458.817
 97.570   1354.000   1338.067     15.933    458.533   1327.205    458.533    469.392    458.533
 97.670   1401.000   1376.091     24.909    458.248   1364.954    458.248    469.399    458.248
 97.770   1343.340   1398.031    -54.692    457.963   1386.588    457.963    469.438    457.963
 97.870   1374.000   1402.421    -28.421    457.677   1390.636    457.677    469.512    457.677
 97.970   1395.715   1389.366      6.349    457.390   1377.202    457.390    469.623    457.390
 98.070   1320.198   1360.481    -40.283    457.103   1347.896    457.103    469.772    457.103
 98.170   1307.684   1318.499    -10.814    456.815   1305.447    456.815    469.962    456.815
 98.270   1252.987   1266.774    -13.788    456.526   1253.208    456.526    470.196    456.526
 98.370   1197.000   1208.853    -11.853    456.237   1194.722    456.237    470.476    456.237
 98.470   1140.000   1148.178     -8.178    455.948   1133.427    455.948    470.805    455.948
 98.570   1084.000   1087.917     -3.917    455.658   1072.492    455.658    471.186    455.658
 98.670   1041.404   1030.881     10.523    455.367   1014.724    455.367    471.621    455.367
 98.770   1039.612    979.496     60.116    455.076    962.547    455.076    472.114    455.076
 98.870    884.058    935.803    -51.745    454.784    918.000    454.784    472.667    454.784
 98.970    895.559    901.480     -5.921    454.492    882.760    454.492    473.283    454.492
 99.070    898.000    877.860     20.140    454.200    858.156    454.200    473.965    454.200
 99.170    851.000    865.948    -14.948    453.907    845.193    453.907    474.714    453.907
 99.270    815.000    866.448    -51.448    453.614    844.573    453.614    475.534    453.614
 99.370    855.305    879.775    -24.470    453.321    856.710    453.321    476.424    453.321
 99.470    927.000    906.069     20.931    453.027    881.743    453.027    477.388    453.027
 99.570    967.000    945.197     21.803    452.733    919.539    452.733    478.425    452.733
 99.670    972.000    996.723    -24.723    452.439    969.663    452.439    479.534    452.439
 99.770   1053.000   1059.917     -6.917    452.144   1031.387    452.144    480.715    452.144
 99.870   1123.630   1133.685    -10.055    451.849   1103.620    451.849    481.963    451.849
 99.970   1149.000   1216.494    -67.494    451.555   1184.833    451.555    483.276    451.555
100.070   1303.000   1306.369     -3.369    451.260   1273.058    451.260    484.646    451.260
100.170   1332.117   1400.847    -68.730    450.964   1365.842    450.964    486.064    450.964
100.270   1497.000   1497.004     -0.004    450.669   1460.271    450.669    487.520    450.669
100.370   1629.000   1591.543     37.457    450.374   1553.062    450.374    488.998    450.374
100.470   1630.481   1681.000    -50.519    450.078   1640.769    450.078    490.481    450.078
100.570   1804.000   1762.032     41.968    449.783   1720.069    449.783    491.946    449.783
100.670   1839.000   1831.717      7.283    449.487   1788.065    449.487    493.369    449.487
100.770   1853.000   1887.740    -34.740    449.192   1842.470    449.192    494.721    449.192
100.870   1972.000   1928.402     43.598    448.897   1881.613    448.897    495.969    448.897
100.970   1934.000   1952.495    -18.495    448.602   1904.320    448.602    497.081    448.602
101.070   1959.000   1959.203     -0.203    448.306   1909.808    448.306    498.023    448.306
101.170   1880.047   1948.171    -68.124    448.011   1897.755    448.011    498.761    448.011
101.270   1933.000   1919.753     13.247    447.717   1868.543    447.717    499.267    447.717
101.370   1890.000   1875.306     14.694    447.422   1823.553    447.422    499.516    447.422
101.470   1908.000   1817.311     90.689    447.128   1765.284    447.128    499.492    447.128
101.570   1773.000   1749.204     23.796    446.834   1697.180    446.834    499.186    446.834
101.670   1653.797   1674.947    -21.151    446.540   1623.201    446.540    498.599    446.540
101.770   1564.000   1598.516    -34.516    446.246   1547.316    446.246    497.743    446.246
101.870   1530.000   1523.478      6.522    445.953   1473.073    445.953    496.636    445.953
101.970   1434.094   1452.722    -18.628    445.660   1403.336    445.660    495.303    445.660
102.070   1446.757   1388.330     58.427    445.368   1340.160    445.368    493.775    445.368
102.170   1374.000   1331.568     42.432    445.076   1284.777    445.076    492.086    445.076
102.270   1285.000   1282.903      2.097    444.785   1237.621    444.785    490.269    444.785
102.370   1248.000   1242.062      5.938    444.494   1198.385    444.494    488.358    444.494
102.470   1225.754   1208.122     17.632    444.203   1166.117    444.203    486.384    444.203
102.570   1194.872   1179.620     15.252    443.914   1139.325    443.914    484.374    443.914
102.670   1145.665   1154.707     -9.042    443.624   1116.137    443.624    482.354    443.624
102.770   1196.000   1131.355     64.645    443.336   1094.501    443.336    480.344    443.336
102.870   1118.000   1107.613     10.387    443.048   1072.450    443.048    478.362    443.048
102.970   1080.106   1081.876     -1.770    442.761   1048.364    442.761    476.420    442.761
103.070    962.000   1053.098    -91.098    442.474   1021.187    442.474    474.530    442.474
103.170    973.000   1020.884    -47.884    442.189    990.513    442.189    472.700    442.189
103.270    964.403    985.433    -21.030    441.904    956.535    441.904    470.936    441.904
103.370    955.000    947.381      7.619    441.620    919.886    441.620    469.243    441.620
103.470    962.740    907.614     55.127    441.336    881.449    441.336    467.622    441.336
103.570    940.000    867.108     72.892    441.054    842.200    441.054    466.074    441.054
103.670    851.000    826.819     24.181    440.773    803.094    440.773    464.601    440.773
103.770    812.000    787.616     24.384    440.492    765.000    440.492    463.202    440.492
103.870    725.622    750.233    -24.611    440.213    728.656    440.213    461.874    440.213
103.970    740.115    715.275     24.840    439.934    694.667    439.934    460.617    439.934
104.070    673.202    683.208    -10.006    439.657    663.502    439.657    459.429    439.657
104.170    698.000    654.306     43.694    439.381    635.438    439.381    458.306    439.381
104.270    588.605    628.706    -40.101    439.106    610.614    439.106    457.247    439.106
104.370    647.000    606.410     40.590    438.832    589.036    438.832    456.248    438.832
104.470    593.940    587.310      6.630    438.559    570.599    438.559    455.307    438.559
104.570    604.000    571.212     32.788    438.288    555.110    438.288    454.420    438.288
104.670    613.000    557.861     55.139    438.018    542.319    438.018    453.585    438.018
104.770    591.758    546.973     44.785    437.749    531.944    437.749    452.799    437.749
104.870    564.000    538.253     25.747    437.482    523.693    437.482    452.059    437.482
104.970    526.000    531.419     -5.419    437.216    517.287    437.216    451.362    437.216
105.070    495.076    526.214    -31.138    436.951    512.472    436.951    450.705    436.951
105.170    532.115    522.417      9.698    436.688    509.028    436.688    450.087    436.688
105.270    511.000    519.850     -8.850    436.427    506.780    436.427    449.504    436.427
105.370    575.000    518.373     56.627    436.167    505.591    436.167    448.954    436.167
105.470    559.326    517.894     41.432    435.909    505.370    435.909    448.436    435.909
105.570    497.000    518.355    -21.355    435.652    506.061    435.652    447.947    435.652
105.670    553.000    519.733     33.267    435.397    507.644    435.397    447.485    435.397
105.770    497.362    522.033    -24.671    435.144    510.126    435.144    447.049    435.144
105.870    499.000    525.282    -26.282    434.892    513.533    434.892    446.637    434.892
105.970    543.000    529.521     13.479    434.643    517.909    434.643    446.247    434.643
106.070    551.000    534.794     16.206    434.395    523.301    434.395    445.879    434.395
106.170    526.000    541.142    -15.142    434.149    529.748    434.149    445.531    434.149
106.270    540.378    548.586     -8.208    433.905    537.273    433.905    445.203    433.905
106.370    552.059    557.118     -5.059    433.663    545.871    433.663    444.893    433.663
106.470    592.000    566.693     25.307    433.423    555.496    433.423    444.600    433.423
106.570    543.000    577.220    -34.220    433.185    566.057    433.185    444.324    433.185
106.670    579.000    588.557     -9.557    432.949    577.415    432.949    444.065    432.949
106.770    598.000    600.509     -2.509    432.715    589.375    432.715    443.821    432.715
106.870    572.000    612.830    -40.830    432.483    601.691    432.483    443.593    432.483
106.970    620.000    625.225     -5.225    432.254    614.068    432.254    443.380    432.254
107.070    634.000    637.354     -3.354    432.027    626.167    432.027    443.182    432.027
107.170    614.333    648.848    -34.515    431.802    637.619    431.802    442.998    431.802
107.270    660.000    659.326      0.674    431.580    648.045    431.580    442.829    431.580
107.370    637.435    668.430    -30.995    431.360    657.084    431.360    442.674    431.360
107.470    672.294    675.863     -3.570    431.142    664.442    431.142    442.534    431.142
107.570    654.000    681.444    -27.444    430.927    669.937    430.927    442.408    430.927
107.670    702.000    685.139     16.861    430.715    673.534    430.715    442.296    430.715
107.770    690.283    687.076      3.207    430.505    675.361    430.505    442.200    430.505
107.870    685.926    687.529     -1.603    430.298    675.692    430.298    442.119    430.298
107.970    668.342    686.870    -18.528    430.093    674.900    430.093    442.053    430.093
108.070    697.000    685.516     11.484    429.891    673.399    429.891    442.003    429.891
108.170    655.560    683.873    -28.313    429.692    671.595    429.692    441.968    429.692
108.270    680.000    682.293     -2.293    429.496    669.841    429.496    441.951    429.496
108.370    725.898    681.051     44.847    429.302    668.410    429.302    441.951    429.302
108.470    661.000    680.324    -19.324    429.112    667.479    429.112    441.968    429.112
108.570    650.956    680.183    -29.227    428.924    667.118    428.924    442.004    428.924
108.670    692.627    680.592     12.035    428.740    667.291    428.740    442.059    428.740
108.770    626.000    681.408    -55.408    428.558    667.855    428.558    442.135    428.558
108.870    723.179    682.391     40.788    428.380    668.567    428.380    442.231    428.380
108.970    659.590    683.220    -23.630    428.205    669.106    428.205    442.349    428.205
109.070    724.041    683.520     40.521    428.033    669.096    428.033    442.491    428.033
109.170    652.256    682.899    -30.643    427.864    668.142    427.864    442.657    427.864
109.270    638.000    681.012    -43.012    427.698    665.901    427.698    442.849    427.698
109.370    694.585    677.595     16.990    427.536    662.105    427.536    443.067    427.536
109.470    660.481    672.513    -12.032    427.378    656.618    427.378    443.315    427.378
109.570    648.000    665.782    -17.782    427.223    649.454    427.223    443.593    427.223
109.670    664.000    657.552      6.448    427.071    640.762    427.071    443.903    427.071
109.770    640.000    648.078     -8.078    426.923    630.795    426.923    444.247    426.923
109.870    627.859    637.678     -9.819    426.778    619.868    426.778    444.628    426.778
109.970    638.000    626.687     11.313    426.637    608.316    426.637    445.047    426.637
110.070    646.000    615.439     30.561    426.500    596.469    426.500    445.506    426.500
110.170    616.000    604.257     11.743    426.367    584.648    426.367    446.009    426.367
110.270    630.902    593.409     37.492    426.237    573.119    426.237    446.558    426.237
110.370    567.162    583.129    -15.968    426.112    562.113    426.112    447.156    426.112
110.470    571.000    573.608     -2.608    425.990    551.818    425.990    447.805    425.990
110.570    545.128    564.996    -19.868    425.872    542.381    425.872    448.509    425.872
110.670    578.000    557.396     20.604    425.758    533.902    425.758    449.271    425.758
110.770    558.000    550.871      7.129    425.649    526.442    425.649    450.095    425.649
110.870    515.000    545.447    -30.447    425.543    520.022    425.543    450.983    425.543
110.970    530.844    541.117    -10.273    425.442    514.631    425.442    451.940    425.442
111.070    560.000    537.845     22.155    425.345    510.232    425.345    452.968    425.345
111.170    561.000    535.577     25.423    425.252    506.766    425.252    454.072    425.252
111.270    540.000    534.242      5.758    425.164    504.157    425.164    455.256    425.164
111.370    539.000    533.761      5.239    425.080    502.323    425.080    456.523    425.080
111.470    520.848    534.049    -13.201    425.001    501.177    425.001    457.877    425.001
111.570    561.000    535.023     25.977    424.926    500.630    424.926    459.322    424.926
111.670    559.000    536.604     22.396    424.856    500.600    424.856    460.862    424.856
111.770    572.971    538.718     34.253    424.790    501.010    424.790    462.499    424.790
111.870    567.120    541.299     25.821    424.729    501.791    424.729    464.238    424.729
111.970    544.999    544.291      0.708    424.673    502.883    424.673    466.082    424.673
112.070    526.751    547.648    -20.897    424.622    504.237    424.622    468.034    424.622
112.170    559.000    551.336      7.664    424.576    505.817    424.576    470.095    424.576
112.270    558.000    555.331      2.669    424.534    507.596    424.534    472.269    424.534
112.370    519.000    559.622    -40.622    424.498    509.563    424.498    474.557    424.498
112.470    578.000    564.209     13.791    424.467    511.716    424.467    476.960    424.467
112.570    595.000    569.105     25.895    424.440    514.068    424.440    479.478    424.440
112.670    563.000    574.334    -11.334    424.419    516.643    424.419    482.110    424.419
112.770    553.000    579.929    -26.929    424.404    519.477    424.404    484.856    424.404
112.870    601.378    585.937     15.440    424.393    522.620    424.393    487.711    424.393
112.970    570.000    592.419    -22.419    424.388    526.137    424.388    490.671    424.388
113.070    578.000    599.452    -21.452    424.389    530.111    424.389    493.731    424.389
113.170    585.000    607.136    -22.136    424.394    534.649    424.394    496.882    424.394
113.270    573.016    615.599    -42.582    424.406    539.891    424.406    500.113    424.406
113.370    606.591    625.006    -18.415    424.423    546.016    424.423    503.413    424.423
113.470    588.000    635.573    -47.573    424.446    553.253    424.446    506.765    424.446
113.570    613.000    647.575    -34.575    424.474    561.896    424.474    510.151    424.474
113.670    649.000    661.365    -12.365    424.509    572.321    424.509    513.548    424.509
113.770    676.513    677.389     -0.876    424.549    585.000    424.549    516.931    424.549
113.870    674.000    696.208    -22.208    424.595    600.522    424.595    520.271    424.595
113.970    694.000    718.517    -24.517    424.647    619.614    424.647    523.536    424.647
114.070    703.000    745.163    -42.163    424.705    643.162    424.705    526.688    424.705
114.170    793.000    777.171     15.829    424.770    672.226    424.770    529.690    424.770
114.270    781.924    815.752    -33.829    424.840    708.058    424.840    532.500    424.840
114.370    828.017    862.319    -34.303    424.917    752.114    424.917    535.078    424.917
114.470    851.000    918.486    -67.486    425.000    806.048    425.000    537.383    425.000
114.570    994.795    986.060      8.735    425.090    871.706    425.090    539.373    425.090
114.670   1058.000   1067.019     -9.019    425.186    951.103    425.186    541.015    425.186
114.770   1106.743   1163.471    -56.729    425.289   1046.377    425.289    542.276    425.289
114.870   1277.000   1277.596     -0.596    425.398   1159.732    425.398    543.134    425.398
114.970   1399.722   1411.567    -11.845    425.514   1293.357    425.514    543.572    425.514
115.070   1674.000   1567.451    106.549    425.636   1449.328    425.636    543.583    425.636
115.170   1753.315   1747.093      6.222    425.766   1629.487    425.766    543.169    425.766
115.270   2007.201   1951.984     55.217    425.902   1835.314    425.902    542.342    425.902
115.370   2263.620   2183.111     80.509    426.046   2067.776    426.046    541.122    426.046
115.470   2535.000   2440.781     94.219    426.196   2327.157    426.196    539.537    426.196
115.570   2828.000   2724.657    103.343    426.353   2613.085    426.353    537.620    426.353
115.670   3149.000   3033.366    115.634    426.518   2924.151    426.518    535.409    426.518
115.770   3459.000   3364.552     94.448    426.690   3257.960    426.690    532.944    426.690
115.870   3769.539   3714.786     54.753    426.869   3611.043    426.869    530.267    426.869
115.970   4178.000   4079.516     98.484    427.055   3978.809    427.055    527.420    427.055
116.070   4350.232   4453.075   -102.843    427.249   4355.550    427.249    524.443    427.249
116.170   4724.000   4828.718   -104.718    427.451   4734.487    427.451    521.373    427.451
116.270   5333.985   5198.711    135.274    427.660   5107.852    427.660    518.245    427.660
116.370   5488.272   5554.473    -66.201    427.876   5467.032    427.876    515.089    427.876
116.470   5810.258   5886.777    -76.519    428.101   5802.775    428.101    511.934    428.101
116.570   6251.996   6186.046     65.950    428.333   6105.479    428.333    508.804    428.333
116.670   6315.381   6442.761   -127.379    428.573   6365.603    428.573    505.718    428.573
116.770   6559.000   6647.991    -88.991    428.821   6574.198    428.821    502.695    428.821
116.870   6635.002   6794.047   -159.045    429.077   6723.556    429.077    499.749    429.077
116.970   6837.927   6875.158    -37.231    429.342   6807.891    429.342    496.891    429.342
117.070   6883.000   6888.073     -5.073    429.614   6823.939    429.614    494.132    429.614
117.170   6901.000   6832.431     68.569    429.895   6771.327    429.895    491.477    429.895
117.270   6752.950   6710.795     42.155    430.184   6652.609    430.184    488.934    430.184
117.370   6461.000   6528.350    -67.350    430.481   6472.962    430.481    486.504    430.481
117.470   6236.000   6292.339    -56.339    430.787   6239.626    430.787    484.192    430.787
117.570   5992.000   6011.385    -19.385    431.102   5961.220    431.102    481.998    431.102
117.670   5555.000   5694.824   -139.824    431.425   5647.080    431.425    479.923    431.425
117.770   5213.000   5352.143   -139.143    431.757   5306.695    431.757    477.965    431.757
117.870   4927.000   4992.545    -65.545    432.097   4949.269    432.097    476.125    432.097
117.970   4636.000   4624.634     11.366    432.447   4583.412    432.447    474.401    432.447
118.070   4362.000   4256.195    105.805    432.805   4216.911    432.805    472.789    432.805
118.170   3941.000   3894.049     46.951    433.173   3856.593    433.173    471.288    433.173
118.270   3577.116   3543.957     33.159    433.549   3508.224    433.549    469.895    433.549
118.370   3187.403   3210.584    -23.181    433.935   3176.473    433.935    468.606    433.935
118.470   2984.000   2897.501     86.499    434.330   2864.918    434.330    467.418    434.330
118.570   2513.074   2607.230    -94.156    434.735   2576.086    434.735    466.328    434.735
118.670   2391.077   2341.328     49.750    435.149   2311.539    435.149    465.331    435.149
118.770   2155.283   2100.484     54.799    435.572   2071.971    435.572    464.426    435.572
118.870   1856.156   1884.645    -28.489    436.005   1857.335    436.005    463.607    436.005
118.970   1763.524   1693.140     70.385    436.448   1666.962    436.448    462.871    436.448
119.070   1548.911   1524.806     24.105    436.900   1499.697    436.900    462.215    436.900
119.170   1331.000   1378.118    -47.118    437.362   1354.015    437.362    461.634    437.362
119.270   1304.891   1251.300     53.591    437.835   1228.145    437.835    461.126    437.835
119.370   1128.000   1142.436    -14.436    438.317   1120.175    438.317    460.688    438.317
119.470   1080.000   1049.563     30.437    438.809   1028.145    438.809    460.315    438.809
119.570   1003.956    970.748     33.208    439.312    950.123    439.312    460.005    439.312
119.670    913.000    904.147      8.853    439.825    884.271    439.825    459.755    439.825
119.770    864.000    848.054     15.946    440.348    828.883    440.348    459.561    440.348
119.870    848.766    800.922     47.845    440.881    782.414    440.881    459.422    440.881
119.970    791.000    761.378     29.622    441.425    743.496    441.425    459.334    441.425
120.070    786.000    728.227     57.773    441.980    710.933    441.980    459.295    441.980
120.170    737.184    700.445     36.739    442.545    683.706    442.545    459.303    442.545
120.270    671.000    677.166     -6.166    443.122    660.948    443.122    459.356    443.122
120.370    675.000    657.667     17.333    443.709    641.940    443.709    459.451    443.709
120.470    666.000    641.350     24.650    444.307    626.084    444.307    459.586    444.307
120.570    612.000    627.725    -15.725    444.916    612.894    444.916    459.760    444.916
120.670    621.000    616.394      4.606    445.536    601.971    445.536    459.972    445.536
120.770    603.000    607.033     -4.033    446.167    592.995    446.167    460.219    446.167
120.870    617.000    599.382     17.618    446.810    585.705    446.810    460.500    446.810
120.970    603.742    593.228     10.514    447.464    579.892    447.464    460.814    447.464
121.070    559.000    588.400    -29.400    448.130    575.384    448.130    461.160    448.130
121.170    590.114    584.757      5.356    448.807    572.044    448.807    461.536    448.807
121.270    564.974    582.184    -17.210    449.496    569.755    449.496    461.941    449.496
121.370    550.000    580.581    -30.581    450.196    568.420    450.196    462.374    450.196
121.470    554.767    579.864    -25.098    450.909    567.956    450.909    462.835    450.909
121.570    570.000    579.956     -9.956    451.633    568.287    451.633    463.322    451.633
121.670    607.000    580.787     26.213    452.370    569.343    452.370    463.835    452.370
121.770    572.612    582.289     -9.676    453.118    571.056    453.118    464.373    453.118
121.870    593.000    584.392      8.608    453.879    573.361    453.879    464.935    453.879
121.970    572.000    587.028    -15.028    454.652    576.187    454.652    465.520    454.652
122.070    624.892    590.122     34.769    455.438    579.461    455.438    466.128    455.438
122.170    553.258    593.597    -40.339    456.236    583.107    456.236    466.757    456.236
122.270    594.610    597.368     -2.758    457.046    587.040    457.046    467.408    457.046
122.370    631.922    601.346     30.576    457.869    591.173    457.869    468.079    457.869
122.470    621.000    605.436     15.564    458.705    595.411    458.705    468.770    458.705
122.570    645.121    609.536     35.585    459.554    599.654    459.554    469.480    459.554
122.670    584.752    613.540    -28.789    460.416    603.794    460.416    470.208    460.416
122.770    590.000    617.322    -27.322    461.291    607.708    461.291    470.954    461.291
122.870    680.000    620.793     59.207    462.179    611.306    462.179    471.717    462.179
122.970    583.860    623.871    -40.011    463.081    614.509    463.081    472.497    463.081
123.070    598.250    626.443    -28.193    463.996    617.203    463.996    473.291    463.996
123.170    627.000    628.425     -1.425    464.924    619.306    464.924    474.101    464.924
123.270    650.000    629.757     20.243    465.866    620.757    465.866    474.925    465.866
123.370    676.000    630.400     45.600    466.821    621.519    466.821    475.763    466.821
123.470    614.802    630.341    -15.538    467.790    621.578    467.790    476.614    467.790
123.570    623.000    629.589     -6.589    468.774    620.946    468.774    477.477    468.774
123.670    589.311    628.180    -38.869    469.771    619.656    469.771    478.354    469.771
123.770    615.000    626.162    -11.162    470.782    617.760    470.782    479.242    470.782
123.870    603.000    623.599    -20.599    471.807    615.320    471.807    480.142    471.807
123.970    663.870    620.563     43.308    472.847    612.409    472.847    481.055    472.847
124.070    619.000    617.129      1.871    473.900    609.103    473.900    481.979    473.900
124.170    623.883    613.374     10.509    474.969    605.477    474.969    482.916    474.969
124.270    639.000    609.374     29.626    476.052    601.607    476.052    483.865    476.052
124.370    594.000    605.199    -11.199    477.149    597.565    477.149    484.826    477.149
124.470    618.392    600.917     17.475    478.262    593.418    478.262    485.801    478.262
124.570    607.000    596.591     10.409    479.389    589.227    479.389    486.789    479.389
124.670    615.000    592.274     22.726    480.531    585.047    480.531    487.791    480.531
124.770    633.413    588.015     45.399    481.688    580.926    481.688    488.808    481.688
124.870    549.000    583.854    -34.854    482.861    576.903    482.861    489.839    482.861
124.970    566.000    579.825    -13.825    484.048    573.012    484.048    490.886    484.048
