neutron_powder_diffraction_0066
R_wp: 4.269
Temperature (K): 725.477
Counts: 83625.00
Wavelength (Ã…): 2.52098
COMMENTS
Test file for demonstrating the .xyy file format in Reel1.0
END OF HEADER
   tth       Y_obs     Y_calc      Y_res    Background    Phase_1_Nuc    Phase_1_Mag    Phase_2_Nuc    Phase_2_Mag
  9.970    685.000    630.534     54.466    629.483    630.361    629.656    629.483    629.483
 10.070    692.000    630.951     61.049    629.831    630.776    630.006    629.831    629.831
 10.170    685.000    631.367     53.633    630.168    631.190    630.345    630.168    630.168
 10.270    705.000    631.784     73.216    630.495    631.605    630.674    630.495    630.495
 10.370    674.000    632.205     41.795    630.812    632.024    630.992    630.812    630.812
 10.470    599.620    632.633    -33.013    631.119    632.450    631.301    631.119    631.119
 10.570    643.000    633.072      9.928    631.416    632.887    631.600    631.416    631.416
 10.670    659.000    633.526     25.474    631.703    633.339    631.889    631.703    631.703
 10.770    648.000    634.003     13.997    631.980    633.813    632.169    631.980    631.980
 10.870    624.000    634.511    -10.511    632.248    634.319    632.439    632.248    632.248
 10.970    627.000    635.064     -8.064    632.506    634.870    632.699    632.506    632.506
 11.070    673.000    635.679     37.321    632.755    635.483    632.950    632.755    632.755
 11.170    662.840    636.383     26.457    632.994    636.184    633.191    632.994    632.994
 11.270    680.000    637.208     42.792    633.223    637.006    633.423    633.223    633.223
 11.370    670.000    638.223     31.777    633.444    638.018    633.646    633.444    633.444
 11.470    589.690    639.606    -49.916    633.655    639.398    633.859    633.655    633.655
 11.570    676.000    641.526     34.474    633.857    641.315    634.064    633.857    633.857
 11.670    692.759    644.602     48.157    634.050    644.387    634.260    634.050    634.050
 11.770    701.000    650.684     50.316    634.235    650.464    634.446    634.235    634.235
 11.870    628.443    663.357    -34.914    634.410    663.128    634.624    634.410    634.410
 11.970    687.100    687.310     -0.210    634.576    687.064    634.793    634.576    634.576
 12.070    735.424    724.394     11.031    634.734    724.125    634.953    634.734    634.734
 12.170    780.187    766.744     13.443    634.883    766.449    635.105    634.883    634.883
 12.270    772.000    792.561    -20.561    635.024    792.249    635.248    635.024    635.024
 12.370    770.000    782.249    -12.249    635.156    781.941    635.383    635.156    635.156
 12.470    728.000    744.996    -16.996    635.279    744.706    635.510    635.279    635.279
 12.570    660.092    704.319    -44.227    635.395    704.048    635.628    635.395    635.395
 12.670    688.000    674.416     13.584    635.502    674.159    635.738    635.502    635.502
 12.770    653.000    657.188     -4.188    635.601    656.937    635.839    635.601    635.601
 12.870    651.000    648.709      2.291    635.691    648.461    635.933    635.691    635.691
 12.970    669.000    644.729     24.271    635.774    644.479    636.019    635.774    635.774
 13.070    642.000    642.683     -0.683    635.849    642.432    636.097    635.849    635.849
 13.170    586.000    641.447    -55.447    635.915    641.193    636.167    635.915    635.915
 13.270    679.255    640.601     38.653    635.974    640.345    636.229    635.974    635.974
 13.370    622.000    639.984    -17.984    636.026    639.724    636.283    636.026    636.026
 13.470    562.000    639.521    -77.521    636.069    639.259    636.330    636.069    636.069
 13.570    617.185    639.159    -21.974    636.105    638.893    636.370    636.105    636.105
 13.670    639.000    638.871      0.129    636.134    638.602    636.402    636.134    636.134
 13.770    644.000    638.638      5.362    636.155    638.365    636.426    636.155    636.155
 13.870    637.000    638.444     -1.444    636.168    638.167    636.444    636.168    636.168
 13.970    637.000    638.281     -1.281    636.175    638.000    636.454    636.175    636.175
 14.070    591.000    638.154    -47.154    636.174    637.870    636.457    636.174    636.174
 14.170    611.000    638.040    -27.040    636.166    637.752    636.453    636.166    636.166
 14.270    614.000    637.925    -23.925    636.151    637.633    636.442    636.151    636.151
 14.370    605.593    637.818    -32.224    636.128    637.522    636.424    636.128    636.128
 14.470    622.000    637.715    -15.715    636.099    637.415    636.399    636.099    636.099
 14.570    619.000    637.617    -18.617    636.063    637.313    636.367    636.063    636.063
 14.670    618.000    637.520    -19.520    636.020    637.212    636.328    636.020    636.020
 14.770    608.000    637.426    -29.426    635.971    637.113    636.283    635.971    635.971
 14.870    608.000    637.356    -29.356    635.914    637.036    636.233    635.914    635.914
 14.970    586.000    637.309    -51.309    635.851    636.981    636.178    635.851    635.851
 15.070    610.000    637.228    -27.228    635.782    636.896    636.114    635.782    635.782
 15.170    612.670    637.198    -24.528    635.706    636.860    636.043    635.706    635.706
 15.270    629.000    637.101     -8.101    635.624    636.759    635.966    635.624    635.624
 15.370    588.236    636.995    -48.759    635.535    636.647    635.882    635.535    635.535
 15.470    579.000    636.887    -57.887    635.440    636.534    635.792    635.440    635.440
 15.570    636.000    636.776     -0.776    635.339    636.418    635.696    635.339    635.339
 15.670    609.771    636.659    -26.887    635.232    636.295    635.594    635.232    635.232
 15.770    652.922    636.537     16.385    635.118    636.168    635.487    635.118    635.118
 15.870    617.321    636.411    -19.090    634.999    636.036    635.373    634.999    634.999
 15.970    664.532    636.281     28.252    634.873    635.900    635.253    634.873    634.873
 16.070    642.710    636.146      6.564    634.742    635.760    635.128    634.742    634.742
 16.170    617.041    636.007    -18.966    634.605    635.615    634.997    634.605    634.605
 16.270    647.000    635.863     11.137    634.462    635.465    634.861    634.462    634.462
 16.370    639.000    635.716      3.284    634.314    635.311    634.718    634.314    634.314
 16.470    629.000    635.563     -6.563    634.160    635.152    634.571    634.160    634.160
 16.570    608.000    635.406    -27.406    634.000    634.988    634.418    634.000    634.000
 16.670    622.000    635.245    -13.245    633.835    634.820    634.260    633.835    633.835
 16.770    622.000    635.085    -13.085    633.664    634.653    634.096    633.664    633.664
 16.870    673.849    634.917     38.933    633.488    634.477    633.927    633.488    633.488
 16.970    627.807    634.742     -6.935    633.307    634.295    633.753    633.307    633.307
 17.070    632.248    634.563     -2.315    633.120    634.109    633.574    633.120    633.120
 17.170    599.000    634.379    -35.379    632.928    633.917    633.390    632.928    632.928
 17.270    630.951    634.192     -3.241    632.731    633.722    633.201    632.731    632.731
 17.370    581.438    634.012    -52.574    632.529    633.534    633.008    632.529    632.529
 17.470    603.000    633.820    -30.820    632.322    633.333    632.809    632.322    632.322
 17.570    670.754    633.633     37.121    632.111    633.138    632.606    632.111    632.111
 17.670    630.000    633.466     -3.466    631.894    632.962    632.398    631.894    631.894
 17.770    630.000    633.289     -3.289    631.672    632.775    632.186    631.672    631.672
 17.870    596.000    633.106    -37.106    631.446    632.583    631.969    631.446    631.446
 17.970    627.738    632.916     -5.178    631.214    632.382    631.748    631.214    631.214
 18.070    621.061    632.698    -11.638    630.979    632.155    631.522    630.979    630.979
 18.170    651.220    632.477     18.743    630.738    631.923    631.293    630.738    630.738
 18.270    620.000    632.254    -12.254    630.493    631.688    631.059    630.493    630.493
 18.370    617.000    632.023    -15.023    630.244    631.446    630.821    630.244    630.244
 18.470    603.000    631.788    -28.788    629.990    631.200    630.578    629.990    629.990
 18.570    594.544    631.549    -37.006    629.732    630.950    630.332    629.732    629.732
 18.670    620.000    631.314    -11.314    629.469    630.701    630.082    629.469    629.469
 18.770    568.000    631.072    -63.072    629.203    630.446    629.828    629.203    629.203
 18.870    599.000    630.839    -31.839    628.932    630.201    629.570    628.932    628.932
 18.970    605.000    630.643    -25.643    628.657    629.992    629.308    628.657    628.657
 19.070    593.952    630.394    -36.441    628.377    629.729    629.042    628.377    628.377
 19.170    640.957    630.135     10.822    628.094    629.457    628.772    628.094    628.094
 19.270    603.447    629.874    -26.426    627.807    629.181    628.499    627.807    627.807
 19.370    640.319    629.609     10.710    627.516    628.902    628.223    627.516    627.516
 19.470    596.310    629.344    -33.033    627.221    628.621    627.943    627.221    627.221
 19.570    623.000    629.096     -6.096    626.922    628.358    627.660    626.922    626.922
 19.670    621.000    628.860     -7.860    626.619    628.105    627.374    626.619    626.619
 19.770    669.332    628.623     40.709    626.313    627.851    627.085    626.313    626.313
 19.870    638.000    628.354      9.646    626.003    627.565    626.792    626.003    626.003
 19.970    592.000    628.075    -36.075    625.690    627.268    626.497    625.690    625.690
 20.070    643.176    627.795     15.381    625.373    626.970    626.198    625.373    625.373
 20.170    678.455    627.515     50.940    625.052    626.670    625.897    625.052    625.052
 20.270    627.000    627.230     -0.230    624.728    626.365    625.593    624.728    624.728
 20.370    583.128    626.947    -43.819    624.401    626.061    625.287    624.401    624.401
 20.470    609.000    626.659    -17.659    624.070    625.752    624.978    624.070    624.070
 20.570    572.754    626.368    -53.613    623.736    625.438    624.666    623.736    623.736
 20.670    627.000    626.075      0.925    623.399    625.122    624.352    623.399    623.399
 20.770    637.383    625.782     11.601    623.058    624.805    624.035    623.058    623.058
 20.870    595.000    625.494    -30.494    622.715    624.492    623.716    622.715    622.715
 20.970    612.000    625.201    -13.201    622.368    624.174    623.396    622.368    622.368
 21.070    588.000    624.906    -36.906    622.018    623.852    623.073    622.018    622.018
 21.170    656.289    624.609     31.680    621.666    623.527    622.748    621.666    621.666
 21.270    614.000    624.311    -10.311    621.310    623.200    622.421    621.310    621.310
 21.370    614.000    624.013    -10.013    620.952    622.871    622.093    620.952    620.952
 21.470    580.000    623.715    -43.715    620.590    622.542    621.763    620.590    620.590
 21.570    630.000    623.419      6.581    620.226    622.213    621.432    620.226    620.226
 21.670    623.000    623.123     -0.123    619.859    621.882    621.100    619.859    619.859
 21.770    616.000    622.827     -6.827    619.490    621.550    620.766    619.490    619.490
 21.870    591.000    622.532    -31.532    619.117    621.218    620.431    619.117    619.117
 21.970    624.000    622.239      1.761    618.742    620.886    620.095    618.742    618.742
 22.070    583.841    621.948    -38.107    618.365    620.554    619.759    618.365    618.365
 22.170    607.000    621.660    -14.660    617.985    620.223    619.422    617.985    617.985
 22.270    620.000    621.376     -1.376    617.603    619.894    619.085    617.603    617.603
 22.370    568.674    621.095    -52.421    617.218    619.566    618.747    617.218    617.218
 22.470    598.000    620.819    -22.819    616.831    619.241    618.409    616.831    616.831
 22.570    606.000    620.551    -14.551    616.441    618.920    618.072    616.441    616.441
 22.670    588.789    620.287    -31.498    616.050    618.602    617.734    616.050    616.050
 22.770    601.233    620.032    -18.799    615.656    618.290    617.398    615.656    615.656
 22.870    654.067    619.785     34.282    615.259    617.983    617.062    615.259    615.259
 22.970    608.000    619.551    -11.551    614.861    617.685    616.727    614.861    614.861
 23.070    663.564    619.330     44.233    614.461    617.398    616.394    614.461    614.461
 23.170    588.900    619.125    -30.225    614.058    617.122    616.062    614.058    614.058
 23.270    650.000    618.940     31.060    613.654    616.862    615.732    613.654    613.654
 23.370    578.491    618.779    -40.287    613.247    616.622    615.405    613.247    613.247
 23.470    643.000    618.648     24.352    612.839    616.408    615.080    612.839    612.839
 23.570    613.550    618.558     -5.007    612.428    616.229    614.758    612.428    612.428
 23.670    625.000    618.516      6.484    612.016    616.093    614.441    612.016    612.016
 23.770    626.000    618.539      7.461    611.602    616.015    614.128    611.602    611.602
 23.870    597.214    618.646    -21.432    611.187    616.016    613.818    611.187    611.187
 23.970    623.000    618.876      4.124    610.769    616.133    613.515    610.769    610.769
 24.070    661.000    619.279     41.721    610.350    616.415    613.217    610.350    610.350
 24.170    610.389    619.974     -9.584    609.929    616.981    612.925    609.929    609.929
 24.270    639.176    621.271     17.905    609.507    618.141    612.641    609.507    609.507
 24.370    641.000    623.962     17.038    609.083    620.686    612.366    609.083    609.083
 24.470    680.559    629.744     50.816    608.658    626.311    612.101    608.658    608.658
 24.570    695.000    641.265     53.735    608.231    637.669    611.846    608.231    608.231
 24.670    606.457    660.806    -54.348    607.803    657.039    611.602    607.803    607.803
 24.770    715.000    687.001     27.999    607.373    683.055    611.372    607.373    607.373
 24.870    654.502    711.124    -56.622    606.942    706.979    611.157    606.942    606.942
 24.970    767.000    718.599     48.401    606.510    714.227    610.958    606.510    606.510
 25.070    735.000    703.054     31.946    606.076    698.416    610.779    606.076    606.076
 25.170    657.006    676.077    -19.072    605.641    671.143    610.620    605.641    605.641
 25.270    648.290    651.541     -3.250    605.205    646.286    610.487    605.205    605.205
 25.370    611.939    635.070    -23.132    604.768    629.473    610.381    604.768    604.768
 25.470    650.000    626.075     23.925    604.330    620.107    610.306    604.330    604.330
 25.570    653.000    621.773     31.227    603.890    615.401    610.267    603.890    603.890
 25.670    586.471    619.792    -33.321    603.450    612.976    610.270    603.450    603.450
 25.770    692.000    618.842     73.158    603.008    611.533    610.320    603.008    603.008
 25.870    584.204    618.390    -34.187    602.566    610.534    610.424    602.566    602.566
 25.970    613.452    618.249     -4.797    602.122    609.780    610.593    602.122    602.122
 26.070    593.782    618.349    -24.567    601.678    609.192    610.836    601.678    601.678
 26.170    647.597    618.666     28.932    601.233    608.733    611.166    601.233    601.233
 26.270    673.000    619.194     53.806    600.787    608.381    611.601    600.787    600.787
 26.370    573.322    619.943    -46.622    600.340    608.126    612.158    600.340    600.340
 26.470    722.000    620.935    101.065    599.893    607.964    612.863    599.893    599.893
 26.570    563.300    622.203    -58.903    599.444    607.899    613.748    599.444    599.444
 26.670    621.116    623.795     -2.679    598.995    607.938    614.852    598.995    598.995
 26.770    716.000    625.776     90.224    598.546    608.095    616.226    598.546    598.546
 26.870    684.330    628.235     56.095    598.096    608.391    617.939    598.096    598.096
 26.970    685.986    631.290     54.696    597.645    608.855    620.079    597.645    597.645
 27.070    710.000    635.106     74.894    597.194    609.529    622.769    597.194    597.194
 27.170    705.000    639.910     65.090    596.742    610.471    626.177    596.742    596.742
 27.270    700.000    646.026     53.974    596.289    611.767    630.546    596.289    596.289
 27.370    693.000    653.955     39.045    595.836    613.545    636.243    595.836    595.836
 27.470    667.445    664.563      2.882    595.383    616.031    643.911    595.383    595.383
 27.570    653.795    679.644    -25.849    594.930    619.687    654.880    594.930    594.930
 27.670    757.244    703.289     53.955    594.476    625.568    672.187    594.476    594.476
 27.770    797.000    744.453     52.547    594.021    635.976    702.482    594.021    594.021
 27.870    896.000    819.696     76.304    593.567    655.164    758.069    593.567    593.567
 27.970    882.000    952.153    -70.153    593.112    689.079    856.136    593.112    593.112
 28.070   1122.000   1161.102    -39.102    592.657    742.684   1010.994    592.657    592.657
 28.170   1512.546   1439.804     72.742    592.202    814.302   1217.593    592.202    592.202
 28.270   1736.741   1724.973     11.769    591.746    887.809   1428.783    591.746    591.746
 28.370   1926.000   1885.812     40.188    591.291    929.896   1547.105    591.291    591.291
 28.470   1817.000   1826.763     -9.763    590.835    916.483   1501.072    590.835    590.835
 28.570   1556.456   1620.469    -64.013    590.379    866.872   1343.981    590.379    590.379
 28.670   1458.557   1414.447     44.110    589.923    819.744   1184.648    589.923    589.923
 28.770   1203.000   1301.883    -98.883    589.468    799.611   1091.756    589.468    589.468
 28.870   1338.992   1298.813     40.179    589.012    810.144   1077.690    589.012    589.012
 28.970   1363.000   1357.731      5.269    588.556    836.495   1109.804    588.556    588.556
 29.070   1416.000   1387.920     28.080    588.100    850.111   1125.938    588.100    588.100
 29.170   1292.289   1319.731    -27.442    587.645    829.145   1078.282    587.645    587.645
 29.270   1172.223   1172.148      0.075    587.189    780.800    978.598    587.189    587.189
 29.370   1014.000   1008.805      5.195    586.734    726.782    868.811    586.734    586.734
 29.470    928.000    873.065     54.935    586.279    681.785    777.599    586.279    586.279
 29.570    837.000    777.842     59.158    585.824    650.218    713.473    585.824    585.824
 29.670    799.000    718.110     80.890    585.369    630.449    673.045    585.369    585.369
 29.770    759.000    682.750     76.250    584.915    618.790    648.883    584.915    584.915
 29.870    748.000    661.670     86.330    584.461    611.891    634.244    584.461    584.461
 29.970    781.000    648.280    132.720    584.007    607.569    624.720    584.007    584.007
 30.070    763.000    639.081    123.919    583.554    604.683    617.952    583.554    583.554
 30.170    699.000    632.450     66.550    583.101    602.730    612.819    583.101    583.101
 30.270    663.000    627.719     35.281    582.648    601.564    608.802    582.648    582.648
 30.370    720.000    624.770     95.230    582.196    601.293    605.670    582.196    582.196
 30.470    678.000    623.935     54.065    581.744    602.307    603.367    581.744    581.744
 30.570    691.000    625.993     65.007    581.293    605.306    601.970    581.293    581.293
 30.670    665.284    631.981     33.304    580.842    611.170    601.638    580.842    580.842
 30.770    659.723    642.629     17.094    580.392    620.520    602.478    580.392    580.392
 30.870    680.122    657.331     22.791    579.942    632.915    604.325    579.942    579.942
 30.970    621.476    672.676    -51.200    579.493    645.698    606.429    579.493    579.493
 31.070    643.643    681.790    -38.147    579.045    653.481    607.307    579.045    579.045
 31.170    731.000    678.492     52.508    578.597    651.416    605.630    578.597    578.597
 31.270    735.000    664.000     71.000    578.150    640.474    601.643    578.150    578.150
 31.370    675.000    645.244     29.756    577.703    626.118    596.805    577.703    577.703
 31.470    597.909    628.157    -30.248    577.258    613.030    592.369    577.258    577.258
 31.570    648.759    615.221     33.539    576.812    603.171    588.852    576.812    576.812
 31.670    580.050    606.506    -26.456    576.368    596.602    586.265    576.368    576.368
 31.770    688.000    601.024     86.976    575.925    592.553    584.390    575.925    575.925
 31.870    611.000    597.627     13.373    575.482    590.126    582.979    575.482    575.482
 31.970    621.000    595.446     25.554    575.040    588.640    581.843    575.040    575.040
 32.070    611.000    593.960     17.040    574.599    587.691    580.865    574.599    574.599
 32.170    567.000    592.905    -25.905    574.158    587.075    579.986    574.158    574.158
 32.270    551.713    592.161    -40.447    573.719    586.703    579.175    573.719    573.719
 32.370    625.000    591.678     33.322    573.281    586.540    578.416    573.281    573.281
 32.470    589.128    591.438     -2.310    572.843    586.579    577.700    572.843    572.843
 32.570    612.000    591.446     20.554    572.406    586.830    577.020    572.406    572.406
 32.670    571.401    591.720    -20.319    571.971    587.316    576.373    571.971    571.971
 32.770    586.783    592.298     -5.515    571.536    588.077    575.755    571.536    571.536
 32.870    599.262    593.238      6.024    571.102    589.172    575.166    571.102    571.102
 32.970    585.984    594.626     -8.643    570.670    590.690    574.604    570.670    570.670
 33.070    647.000    596.599     50.401    570.238    592.762    574.072    570.238    570.238
 33.170    597.145    599.379     -2.235    569.808    595.611    573.573    569.808    569.808
 33.270    656.788    603.389     53.399    569.378    599.648    573.116    569.378    569.378
 33.370    614.000    609.478      4.522    568.950    605.704    572.719    568.950    568.950
 33.470    565.000    619.357    -54.357    568.523    615.449    572.425    568.523    568.523
 33.570    639.000    636.163      2.837    568.097    631.945    572.306    568.097    568.097
 33.670    660.000    664.785     -4.785    567.672    659.963    572.479    567.672    567.672
 33.770    679.234    711.187    -31.953    567.248    705.324    573.089    567.248    567.248
 33.870    717.012    779.939    -62.927    566.826    772.490    574.243    566.826    566.826
 33.970    867.192    869.630     -2.438    566.404    860.085    575.908    566.404    566.404
 34.070    991.000    966.355     24.645    565.984    954.545    577.749    565.984    565.984
 34.170   1119.000   1039.031     79.969    565.566   1025.537    579.018    565.566    565.566
 34.270   1122.006   1051.382     70.624    565.148   1037.661    578.842    565.148    565.148
 34.370    931.891    995.154    -63.263    564.732    982.849    577.023    564.732    564.732
 34.470    899.228    900.769     -1.541    564.317    890.790    574.292    564.317    564.317
 34.570    792.904    804.829    -11.924    563.904    797.203    571.529    563.904    563.904
 34.670    715.000    727.116    -12.116    563.491    721.399    569.209    563.491    563.491
 34.770    668.000    672.386     -4.386    563.080    668.020    567.447    563.080    563.080
 34.870    586.108    637.406    -51.298    562.671    633.912    566.164    562.671    562.671
 34.970    677.000    616.243     60.757    562.263    613.287    565.218    562.263    562.263
 35.070    597.000    603.450     -6.450    561.856    600.826    564.479    561.856    561.856
 35.170    628.000    595.285     32.715    561.451    592.879    563.856    561.451    561.451
 35.270    587.000    589.614     -2.614    561.047    587.363    563.297    561.047    561.047
 35.370    521.000    585.366    -64.366    560.645    583.233    562.778    560.645    560.645
 35.470    591.000    582.012      8.988    560.244    579.971    562.285    560.244    560.244
 35.570    567.553    579.275    -11.722    559.844    577.307    561.812    559.844    559.844
 35.670    558.000    576.992    -18.992    559.447    575.083    561.355    559.447    559.447
 35.770    568.945    575.056     -6.110    559.050    573.193    560.912    559.050    559.050
 35.870    580.450    573.391      7.059    558.655    571.564    560.482    558.655    558.655
 35.970    545.000    571.944    -26.944    558.262    570.142    560.063    558.262    558.262
 36.070    587.378    570.672     16.706    557.870    568.887    559.655    557.870    557.870
 36.170    519.000    569.547    -50.547    557.480    567.767    559.259    557.480    557.480
 36.270    554.000    568.544    -14.544    557.091    566.761    558.875    557.091    557.091
 36.370    592.000    567.647     24.353    556.705    565.849    558.503    556.705    556.705
 36.470    562.000    566.844     -4.844    556.319    565.019    558.145    556.319    556.319
 36.570    577.000    566.127     10.873    555.935    564.260    557.802    555.935    555.935
 36.670    557.000    565.490     -8.490    555.553    563.566    557.477    555.553    555.553
 36.770    596.118    564.934     31.184    555.173    562.933    557.174    555.173    555.173
 36.870    526.172    564.462    -38.290    554.794    562.359    556.898    554.794    554.794
 36.970    567.000    564.088      2.912    554.417    561.850    556.655    554.417    554.417
 37.070    584.971    563.841     21.131    554.042    561.426    556.456    554.042    554.042
 37.170    552.000    563.793    -11.793    553.668    561.140    556.321    553.668    553.668
 37.270    553.485    564.103    -10.618    553.296    561.115    556.285    553.296    553.296
 37.370    560.000    565.072     -5.072    552.926    561.578    556.420    552.926    552.926
 37.470    532.508    567.162    -34.654    552.557    562.856    556.864    552.557    552.557
 37.570    540.362    570.901    -30.539    552.190    565.240    557.853    552.190    552.190
 37.670    591.000    576.612     14.388    551.825    568.714    559.726    551.825    551.825
 37.770    587.000    584.000      3.000    551.462    572.606    562.859    551.462    551.462
 37.870    598.000    591.838      6.162    551.101    575.451    567.491    551.101    551.101
 37.970    564.000    598.368    -34.368    550.741    575.675    573.440    550.741    550.741
 38.070    629.914    602.382     27.533    550.383    573.044    579.728    550.383    550.383
 38.170    642.488    603.187     39.301    550.027    568.872    584.350    550.027    550.027
 38.270    581.000    599.935    -18.935    549.673    564.603    585.015    549.673    549.673
 38.370    581.000    592.801    -11.801    549.321    561.019    581.112    549.321    549.321
 38.470    538.000    583.830    -45.830    548.970    558.351    574.456    548.970    548.970
 38.570    572.000    575.290     -3.290    548.621    556.497    567.420    548.621    548.621
 38.670    606.429    568.369     38.060    548.275    555.220    561.427    548.275    548.275
 38.770    549.000    563.312    -14.312    547.930    554.304    556.939    547.930    547.930
 38.870    535.000    559.866    -24.866    547.587    553.605    553.849    547.587    547.587
 38.970    560.649    557.596      3.053    547.245    553.037    551.805    547.245    547.245
 39.070    541.000    556.080    -15.080    546.906    552.550    550.437    546.906    546.906
 39.170    575.000    555.006     19.994    546.569    552.115    549.460    546.569    546.569
 39.270    525.000    554.181    -29.181    546.233    551.715    548.700    546.233    546.233
 39.370    552.961    553.502     -0.541    545.900    551.340    548.062    545.900    545.900
 39.470    558.506    552.914      5.591    545.568    550.985    547.498    545.568    545.568
 39.570    544.000    552.392     -8.392    545.239    550.647    546.984    545.239    545.239
 39.670    541.000    551.919    -10.919    544.911    550.324    546.506    544.911    544.911
 39.770    555.000    551.485      3.515    544.585    550.015    546.056    544.585    544.585
 39.870    564.000    551.086     12.914    544.262    549.719    545.629    544.262    544.262
 39.970    522.000    550.715    -28.715    543.940    549.436    545.219    543.940    543.940
 40.070    540.000    550.370    -10.370    543.620    549.166    544.824    543.620    543.620
 40.170    539.000    550.049    -11.049    543.302    548.909    544.442    543.302    543.302
 40.270    589.259    549.750     39.510    542.986    548.666    544.070    542.986    542.986
 40.370    579.429    549.472     29.956    542.673    548.437    543.708    542.673    542.673
 40.470    545.572    549.217     -3.644    542.361    548.224    543.354    542.361    542.361
 40.570    513.000    548.983    -35.983    542.051    548.028    543.007    542.051    542.051
 40.670    513.000    548.773    -35.773    541.743    547.850    542.666    541.743    541.743
 40.770    561.801    548.588     13.213    541.438    547.694    542.332    541.438    541.438
 40.870    542.167    548.431     -6.264    541.134    547.562    542.003    541.134    541.134
 40.970    515.000    548.304    -33.304    540.832    547.458    541.680    540.832    540.832
 41.070    525.000    548.214    -23.214    540.533    547.386    541.361    540.533    540.533
 41.170    536.000    548.165    -12.165    540.235    547.354    541.048    540.235    540.235
 41.270    547.000    548.166     -1.166    539.939    547.367    540.739    539.939    539.939
 41.370    521.230    548.226    -26.996    539.646    547.439    540.435    539.646    539.646
 41.470    575.000    548.360     26.640    539.355    547.581    540.136    539.355    539.355
 41.570    509.000    548.589    -39.589    539.065    547.814    539.842    539.065    539.065
 41.670    516.000    548.941    -32.941    538.778    548.167    539.555    538.778    538.778
 41.770    531.000    549.468    -18.468    538.493    548.690    539.274    538.493    538.493
 41.870    570.000    550.265     19.735    538.210    549.476    539.001    538.210    538.210
 41.970    566.350    551.515     14.835    537.929    550.706    538.742    537.929    537.929
 42.070    525.000    553.569    -28.569    537.650    552.722    538.502    537.650    537.650
 42.170    524.000    557.035    -33.035    537.373    556.119    538.295    537.373    537.373
 42.270    525.208    562.823    -37.616    537.098    561.790    538.141    537.098    537.098
 42.370    560.000    572.052    -12.052    536.826    570.828    538.063    536.826    536.826
 42.470    587.000    585.698      1.302    536.555    584.191    538.082    536.555    536.555
 42.570    556.117    603.972    -47.854    536.287    602.084    538.203    536.287    536.287
 42.670    639.000    625.463     13.537    536.020    623.128    538.396    536.020    536.020
 42.770    657.000    646.201     10.799    535.756    643.435    538.575    535.756    535.756
 42.870    612.000    659.625    -47.625    535.494    656.580    538.599    535.494    535.494
 42.970    645.421    659.790    -14.370    535.234    656.745    538.343    535.234    535.234
 43.070    661.105    646.510     14.595    534.976    643.744    537.801    534.976    534.976
 43.170    583.000    625.564    -42.564    534.721    623.235    537.098    534.721    534.721
 43.270    626.000    603.608     22.392    534.467    601.736    536.376    534.467    534.467
 43.370    587.000    584.756      2.244    534.216    583.276    535.722    534.216    534.216
 43.470    553.000    570.514    -17.514    533.966    569.328    535.170    533.966    533.966
 43.570    548.000    560.725    -12.725    533.719    559.741    534.715    533.719    533.719
 43.670    531.000    554.432    -23.432    533.474    553.577    534.338    533.474    533.474
 43.770    526.000    550.513    -24.513    533.231    549.737    534.014    533.231    533.231
 43.870    476.000    548.043    -72.043    532.991    547.315    533.723    532.991    532.991
 43.970    566.000    546.400     19.600    532.752    545.703    533.453    532.752    532.752
 44.070    581.000    545.225     35.775    532.516    544.549    533.195    532.516    532.516
 44.170    505.075    544.329    -39.254    532.281    543.667    532.945    532.281    532.281
 44.270    537.000    543.613     -6.613    532.049    542.962    532.702    532.049    532.049
 44.370    547.000    543.026      3.974    531.819    542.383    532.464    531.819    531.819
 44.470    537.000    542.538     -5.538    531.591    541.900    532.230    531.591    531.591
 44.570    577.000    542.129     34.871    531.365    541.495    532.001    531.365    531.365
 44.670    586.000    541.786     44.214    531.142    541.152    531.776    531.142    531.142
 44.770    557.000    541.497     15.503    530.920    540.863    531.554    530.920    530.920
 44.870    536.000    541.255     -5.255    530.701    540.620    531.336    530.701    530.701
 44.970    551.000    541.055      9.945    530.484    540.418    531.122    530.484    530.484
 45.070    490.176    540.893    -50.716    530.269    540.251    530.911    530.269    530.269
 45.170    531.342    540.765     -9.423    530.056    540.118    530.703    530.056    530.056
 45.270    581.000    540.670     40.330    529.845    540.017    530.498    529.845    529.845
 45.370    553.000    540.606     12.394    529.636    539.945    530.297    529.636    529.636
 45.470    496.048    540.572    -44.524    529.430    539.903    530.100    529.430    529.430
 45.570    548.000    540.569      7.431    529.226    539.889    529.905    529.226    529.226
 45.670    531.000    540.596     -9.596    529.023    539.905    529.715    529.023    529.023
 45.770    515.000    540.656    -25.656    528.823    539.952    529.527    528.823    528.823
 45.870    581.000    540.748     40.252    528.625    540.030    529.344    528.625    528.625
 45.970    584.936    540.876     44.059    528.430    540.142    529.164    528.430    528.430
 46.070    511.000    541.043    -30.043    528.236    540.290    528.989    528.236    528.236
 46.170    575.190    541.251     33.939    528.045    540.478    528.817    528.045    528.045
 46.270    566.000    541.505     24.495    527.855    540.710    528.650    527.855    527.855
 46.370    528.000    541.812    -13.812    527.668    540.991    528.488    527.668    527.668
 46.470    542.595    542.177      0.418    527.483    541.329    528.330    527.483    527.483
 46.570    548.000    542.611      5.389    527.300    541.731    528.178    527.300    527.300
 46.670    535.732    543.125     -7.393    527.119    542.210    528.032    527.119    527.119
 46.770    532.206    543.737    -11.531    526.940    542.782    527.893    526.940    526.940
 46.870    496.503    544.472    -47.969    526.764    543.471    527.762    526.764    526.764
 46.970    523.000    545.376    -22.376    526.589    544.321    527.641    526.589    526.589
 47.070    560.000    546.528     13.472    526.417    545.409    527.533    526.417    526.417
 47.170    529.000    548.080    -19.080    526.247    546.878    527.445    526.247    526.247
 47.270    548.000    550.294     -2.294    526.078    548.981    527.387    526.078    526.078
 47.370    562.000    553.586      8.414    525.912    552.115    527.376    525.912    525.912
 47.470    585.000    558.528     26.472    525.748    556.832    527.435    525.748    525.748
 47.570    596.000    565.764     30.236    525.587    563.745    527.591    525.587    525.587
 47.670    599.100    575.790     23.310    525.427    573.331    527.863    525.427    525.427
 47.770    597.000    588.625      8.375    525.269    585.610    528.253    525.269    525.269
 47.870    612.000    603.400      8.600    525.114    599.746    528.727    525.114    525.114
 47.970    607.121    617.944    -10.824    524.960    613.657    529.198    524.960    524.960
 48.070    592.000    628.752    -36.752    524.809    623.980    529.525    524.809    524.809
 48.170    613.000    632.309    -19.309    524.659    627.345    529.569    524.659    524.659
 48.270    650.000    627.735     22.265    524.512    622.905    529.294    524.512    524.512
 48.370    650.821    617.706     33.115    524.367    613.223    528.809    524.367    524.367
 48.470    575.000    606.158    -31.158    524.224    602.076    528.275    524.224    524.224
 48.570    592.000    596.031     -4.031    524.083    592.279    527.812    524.083    524.083
 48.670    589.979    588.828      1.151    523.944    585.274    527.481    523.944    523.944
 48.770    596.000    584.987     11.013    523.807    581.477    527.305    523.807    523.807
 48.870    571.000    584.332    -13.332    523.672    580.715    527.281    523.672    523.672
 48.970    587.000    586.442      0.558    523.539    582.578    527.396    523.539    523.539
 49.070    621.000    590.980     30.020    523.408    586.736    527.647    523.408    523.408
 49.170    597.045    597.919     -0.874    523.279    593.147    528.046    523.279    523.279
 49.270    661.121    607.774     53.347    523.152    602.281    528.639    523.152    523.152
 49.370    619.000    622.009     -3.009    523.028    615.492    529.536    523.028    523.028
 49.470    641.906    643.767     -1.861    522.905    635.696    530.964    522.905    522.905
 49.570    619.000    678.976    -59.976    522.784    668.396    533.345    522.784    522.784
 49.670    777.647    737.469     40.178    522.665    722.726    537.378    522.665    522.665
 49.770    764.000    833.179    -69.179    522.549    811.627    544.054    522.549    522.549
 49.870    850.000    981.976   -131.976    522.434    949.841    554.498    522.434    522.434
 49.970   1131.305   1196.077    -64.772    522.321   1148.723    569.581    522.321    522.321
 50.070   1465.000   1475.323    -10.323    522.210   1408.133    589.289    522.210    522.210
 50.170   1908.000   1797.087    110.913    522.101   1707.062    612.017    522.101    522.101
 50.270   2052.000   2107.614    -55.614    521.995   1995.590    633.946    521.995    521.995
 50.370   2459.000   2323.741    135.259    521.890   2196.470    649.163    521.890    521.890
 50.470   2437.006   2365.275     71.730    521.787   2235.190    651.964    521.787    521.787
 50.570   2319.479   2213.944    105.535    521.686   2094.753    641.033    521.686    521.686
 50.670   1871.921   1931.746    -59.825    521.587   1832.763    620.749    521.587    521.587
 50.770   1546.456   1608.940    -62.484    521.490   1533.110    597.487    521.490    521.490
 50.870   1171.000   1313.667   -142.667    521.395   1259.157    576.044    521.395    521.395
 50.970   1047.136   1080.622    -33.486    521.301   1043.181    558.849    521.301    521.301
 51.070    930.367    917.626     12.741    521.210    892.456    546.461    521.210    521.210
 51.170    753.000    815.253    -62.253    521.121    798.162    538.276    521.121    521.121
 51.270    777.000    756.058     20.942    521.033    743.935    533.210    521.033    521.033
 51.370    704.000    721.734    -17.734    520.947    712.530    530.201    520.947    520.947
 51.470    751.296    697.830     53.466    520.864    690.291    528.447    520.864    520.864
 51.570    678.118    676.384      1.734    520.782    669.752    527.452    520.782    520.782
 51.670    661.538    655.557      5.981    520.702    649.349    526.941    520.702    520.702
 51.770    622.000    636.515    -14.515    520.624    630.398    526.765    520.624    520.624
 51.870    664.000    620.682     43.318    520.548    614.429    526.817    520.548    520.548
 51.970    628.000    608.708     19.292    520.473    602.216    526.977    520.473    520.473
 52.070    623.000    600.403     22.597    520.401    593.730    527.082    520.401    520.401
 52.170    557.096    595.038    -37.942    520.330    588.421    526.953    520.330    520.330
 52.270    633.000    591.818     41.182    520.261    585.589    526.495    520.261    520.261
 52.370    600.327    590.230     10.097    520.194    584.656    525.772    520.194    520.194
 52.470    642.000    590.124     51.876    520.129    585.317    524.939    520.129    520.129
 52.570    602.956    591.676     11.281    520.065    587.604    524.140    520.065    520.065
 52.670    628.000    595.428     32.572    520.003    591.972    523.462    520.003    520.003
 52.770    655.000    602.468     52.532    519.943    599.463    522.950    519.943    519.943
 52.870    572.000    614.681    -42.681    519.885    611.948    522.619    519.885    519.885
 52.970    647.000    634.988     12.012    519.829    632.342    522.476    519.829    519.829
 53.070    733.000    667.332     65.668    519.774    664.579    522.528    519.774    519.774
 53.170    800.000    716.138     83.862    519.722    713.067    522.792    519.722    519.722
 53.270    806.000    785.055     20.945    519.670    781.441    523.282    519.670    519.670
 53.370    867.785    875.026     -7.241    519.621    870.650    523.995    519.621    519.621
 53.470    993.000    981.975     11.025    519.573    976.664    524.885    519.573    519.573
 53.570   1074.881   1094.401    -19.519    519.527   1088.095    525.837    519.527    519.527
 53.670   1233.449   1191.808     41.642    519.483   1184.646    526.657    519.483    519.483
 53.770   1238.000   1247.928     -9.928    519.441   1240.297    527.094    519.441    519.441
 53.870   1285.000   1243.481     41.519    519.400   1235.950    526.964    519.400    519.400
 53.970   1210.430   1180.376     30.054    519.361   1173.491    526.285    519.361    519.361
 54.070   1043.000   1080.009    -37.009    519.323   1074.114    525.258    519.323    519.323
 54.170    963.000    968.205     -5.205    519.287    963.400    524.127    519.287    519.287
 54.270    868.000    864.092      3.908    519.253    860.302    523.072    519.253    519.253
 54.370    739.335    777.945    -38.609    519.220    774.997    522.191    519.220    519.220
 54.470    682.000    712.955    -30.955    519.189    710.649    521.512    519.189    519.189
 54.570    631.294    667.643    -36.350    519.160    665.793    521.022    519.160    519.160
 54.670    662.000    638.136     23.864    519.132    636.593    520.683    519.132    519.132
 54.770    626.000    620.008      5.992    519.106    618.667    520.453    519.106    519.106
 54.870    667.877    609.435     58.442    519.082    608.225    520.295    519.082    519.082
 54.970    627.323    603.642     23.682    519.059    602.520    520.183    519.059    519.059
 55.070    644.391    600.870     43.521    519.037    599.810    520.100    519.037    519.037
 55.170    636.929    600.128     36.801    519.018    599.113    520.035    519.018    519.018
 55.270    556.516    600.917    -44.401    518.999    599.937    519.982    518.999    518.999
 55.370    602.000    603.035     -1.035    518.983    602.080    519.939    518.983    518.983
 55.470    635.000    606.453     28.547    518.967    605.518    519.904    518.967    518.967
 55.570    632.905    611.279     21.626    518.954    610.358    519.876    518.954    518.954
 55.670    606.000    617.761    -11.761    518.941    616.852    519.852    518.941    518.941
 55.770    665.000    626.355     38.645    518.931    625.484    519.802    518.931    518.931
 55.870    683.000    638.055     44.945    518.922    637.194    519.783    518.922    518.922
 55.970    600.212    654.531    -54.319    518.914    653.664    519.779    518.914    518.914
 56.070    685.000    678.743      6.257    518.907    677.863    519.782    518.907    518.907
 56.170    735.000    715.572     19.428    518.903    714.673    519.793    518.903    518.903
 56.270    776.000    772.320      3.680    518.899    771.391    519.811    518.899    518.899
 56.370    887.464    858.661     28.803    518.897    857.693    519.839    518.897    518.897
 56.470    976.000    985.493     -9.493    518.897    984.475    519.879    518.897    518.897
 56.570   1199.875   1162.283     37.592    518.898   1161.204    519.931    518.898    518.898
 56.670   1346.000   1392.999    -46.999    518.900   1391.853    519.998    518.900    518.900
 56.770   1760.889   1671.210     89.679    518.904   1669.997    520.078    518.904    518.904
 56.870   2062.000   1974.998     87.002    518.909   1973.724    520.171    518.909    518.909
 56.970   2245.000   2262.486    -17.486    518.915   2261.168    520.271    518.915    518.915
 57.070   2501.000   2472.615     28.385    518.923   2471.273    520.373    518.923    518.923
 57.170   2561.201   2543.449     17.752    518.932   2542.091    520.470    518.932    518.932
 57.270   2383.556   2450.118    -66.562    518.942   2448.727    520.561    518.942    518.942
 57.370   2154.541   2225.399    -70.858    518.954   2223.939    520.654    518.954    518.954
 57.470   2051.000   1933.858    117.142    518.967   1932.285    520.762    518.967    518.967
 57.570   1610.000   1634.605    -24.605    518.981   1632.872    520.903    518.981    518.981
 57.670   1408.130   1366.303     41.827    518.997   1364.353    521.095    518.997    518.997
 57.770   1097.614   1148.199    -50.585    519.014   1145.952    521.370    519.014    519.014
 57.870    920.000    985.036    -65.036    519.032    982.365    521.779    519.032    519.032
 57.970    869.000    872.257     -3.257    519.051    868.947    522.412    519.051    519.051
 58.070    798.000    800.931     -2.931    519.072    796.629    523.405    519.072    519.072
 58.170    773.000    761.720     11.280    519.094    755.885    524.945    519.094    519.094
 58.270    735.000    747.371    -12.371    519.117    739.188    527.306    519.117    519.117
 58.370    753.000    753.362     -0.362    519.141    741.779    530.721    519.141    519.141
 58.470    827.380    777.462     49.917    519.167    761.273    535.344    519.167    519.167
 58.570    804.935    818.531    -13.596    519.193    796.568    541.135    519.193    519.193
 58.670    876.000    875.042      0.958    519.221    846.486    547.749    519.221    519.221
 58.770    980.028    943.592     36.436    519.250    908.374    554.437    519.250    519.250
 58.870   1017.000   1017.813     -0.813    519.280    977.034    560.030    519.280    519.280
 58.970   1110.793   1089.045     21.748    519.311   1045.129    563.205    519.311    519.311
 59.070   1116.000   1149.654    -33.654    519.344   1105.817    563.171    519.344    519.344
 59.170   1257.462   1195.495     61.967    519.377   1154.685    560.190    519.377    519.377
 59.270   1264.000   1223.815     40.185    519.412   1187.980    555.261    519.412    519.412
 59.370   1227.993   1231.429     -3.436    519.447   1201.456    549.444    519.447    519.447
 59.470   1248.000   1218.675     29.325    519.484   1194.628    543.555    519.484    519.484
 59.570   1214.000   1193.605     20.395    519.521   1174.959    538.183    519.521    519.521
 59.670   1237.000   1168.807     68.193    519.560   1154.668    533.692    519.560    519.560
 59.770   1183.000   1155.015     27.985    519.600   1144.366    530.211    519.600    519.600
 59.870   1168.000   1158.624      9.376    519.641   1150.508    527.680    519.641    519.641
 59.970   1181.000   1183.307     -2.307    519.683   1176.927    525.943    519.683    519.683
 60.070   1196.000   1231.427    -35.427    519.725   1226.172    524.820    519.725    519.725
 60.170   1312.000   1302.023      9.977    519.769   1297.451    524.142    519.769    519.769
 60.270   1422.000   1387.132     34.868    519.814   1382.951    523.766    519.814    519.814
 60.370   1492.000   1469.604     22.396    519.859   1465.652    523.569    519.859    519.859
 60.470   1560.000   1524.578     35.422    519.906   1520.802    523.448    519.906    519.906
 60.570   1625.000   1527.806     97.194    519.953   1524.232    523.324    519.953    519.953
 60.670   1462.000   1469.760     -7.760    520.002   1466.441    523.157    520.002    520.002
 60.770   1401.927   1362.379     39.548    520.051   1359.356    522.951    520.051    520.051
 60.870   1252.359   1229.795     22.564    520.101   1227.073    522.734    520.101    520.101
 60.970   1135.000   1095.025     39.975    520.152   1092.576    522.539    520.152    520.152
 61.070   1039.000    974.059     64.941    520.204    971.831    522.389    520.204    520.204
 61.170    870.000    875.747     -5.747    520.257    873.669    522.303    520.257    520.257
 61.270    799.000    803.412     -4.412    520.311    801.403    522.292    520.311    520.311
 61.370    740.000    756.827    -16.827    520.365    754.792    522.373    520.365    520.365
 61.470    739.000    734.225      4.775    520.420    732.050    522.564    520.420    520.420
 61.570    681.907    733.973    -52.066    520.476    731.514    522.897    520.476    520.476
 61.670    808.000    755.503     52.497    520.533    752.575    523.411    520.533    520.533
 61.770    737.265    799.259    -61.994    520.591    795.637    524.148    520.591    520.591
 61.870    809.382    865.777    -56.395    520.649    861.202    525.139    520.649    520.649
 61.970    991.604    954.169     37.436    520.708    948.381    526.388    520.708    520.708
 62.070   1002.000   1060.421    -58.421    520.768   1053.204    527.853    520.768    520.768
 62.170   1196.000   1175.775     20.225    520.828   1167.023    529.429    520.828    520.828
 62.270   1352.119   1285.467     66.652    520.889   1275.263    530.930    520.889    520.889
 62.370   1346.000   1369.041    -23.041    520.951   1357.732    532.099    520.951    520.951
 62.470   1338.000   1405.382    -67.382    521.014   1393.585    532.670    521.014    521.014
 62.570   1334.213   1383.335    -49.122    521.077   1371.805    532.500    521.077    521.077
 62.670   1264.000   1309.194    -45.194    521.141   1298.592    531.672    521.141    521.141
 62.770   1155.726   1202.068    -46.342    521.205   1192.805    530.428    521.205    521.205
 62.870   1129.488   1083.108     46.380    521.271   1075.320    529.039    521.271    521.271
 62.970    963.321    968.710     -5.389    521.336    962.325    527.715    521.336    521.336
 63.070    823.000    869.013    -46.013    521.403    863.831    526.586    521.403    521.403
 63.170    729.000    788.687    -59.687    521.469    784.446    525.713    521.469    521.469
 63.270    680.000    728.265    -48.265    521.537    724.697    525.106    521.537    521.537
 63.370    642.551    685.616    -43.065    521.605    682.480    524.740    521.605    521.605
 63.470    678.000    657.374     20.626    521.673    654.464    524.579    521.673    521.673
 63.570    655.000    640.090     14.910    521.742    637.239    524.586    521.742    521.742
 63.670    637.000    630.997      6.003    521.812    628.058    524.741    521.812    521.812
 63.770    638.000    628.371      9.629    521.882    625.194    525.047    521.882    521.882
 63.870    659.000    631.597     27.403    521.952    627.998    525.534    521.952    521.952
 63.970    668.000    641.050     26.950    522.023    636.779    526.271    522.023    522.023
 64.070    682.626    657.858     24.768    522.095    652.559    527.364    522.095    522.095
 64.170    698.000    683.550     14.450    522.167    676.724    528.952    522.167    522.167
 64.270    715.000    719.583     -4.583    522.239    710.568    531.201    522.239    522.239
 64.370    785.000    766.752     18.248    522.312    754.728    534.267    522.312    522.312
 64.470    870.000    824.523     45.477    522.385    808.565    538.257    522.385    522.385
 64.570    936.000    890.341     45.659    522.459    869.524    543.172    522.459    522.459
 64.670    989.000    959.010     29.990    522.532    932.579    548.845    522.532    522.532
 64.770   1017.089   1022.489     -5.400    522.607    990.083    554.885    522.607    522.607
 64.870   1090.000   1070.968     19.032    522.681   1032.870    560.653    522.681    522.681
 64.970   1141.000   1095.825     45.175    522.756   1053.174    565.291    522.756    522.756
 65.070   1059.661   1093.103    -33.442    522.831   1047.948    567.890    522.831    522.831
 65.170   1025.871   1064.960    -39.089    522.907   1019.974    567.821    522.907    522.907
 65.270   1038.000   1018.403     19.597    522.983    976.251    565.088    522.983    522.983
 65.370    958.000    962.517     -4.517    523.059    925.203    560.348    523.059    523.059
 65.470    962.000    905.513     56.487    523.135    874.082    554.563    523.135    523.135
 65.570    839.434    852.815    -13.381    523.212    827.431    548.608    523.212    523.212
 65.670    808.000    806.679      1.321    523.289    786.883    543.107    523.289    523.289
 65.770    752.000    767.034    -15.034    523.366    752.013    538.415    523.366    523.366
 65.870    670.000    732.974    -62.974    523.443    721.776    534.671    523.443    523.443
 65.970    638.000    703.907    -65.907    523.521    695.603    531.852    523.521    523.521
 66.070    733.340    679.697     53.643    523.598    673.482    529.835    523.598    523.598
 66.170    614.045    660.294    -46.250    523.676    655.533    528.454    523.676    523.676
 66.270    600.259    645.476    -45.217    523.754    641.702    527.540    523.754    523.754
 66.370    655.020    634.897     20.123    523.832    631.788    526.947    523.832    523.832
 66.470    639.000    628.135     10.865    523.910    625.482    526.567    523.910    523.910
 66.570    609.000    624.754    -15.754    523.989    622.422    526.323    523.989    523.989
 66.670    585.000    624.373    -39.373    524.067    622.275    526.166    524.067    524.067
 66.770    646.548    626.763     19.785    524.146    624.843    526.066    524.146    524.146
 66.870    612.000    631.975    -19.975    524.224    630.191    526.009    524.224    524.224
 66.970    661.000    640.493     20.507    524.303    638.811    525.986    524.303    524.303
 67.070    637.000    653.428    -16.428    524.382    651.817    525.993    524.382    524.382
 67.170    689.531    672.746     16.784    524.460    671.172    526.035    524.460    524.460
 67.270    655.000    701.505    -46.505    524.539    699.926    526.116    524.539    524.539
 67.370    713.000    744.001    -31.001    524.618    742.366    526.248    524.618    524.618
 67.470    778.000    805.705    -27.705    524.697    803.949    526.445    524.697    524.697
 67.570    807.000    892.801    -85.801    524.775    890.841    526.725    524.775    524.775
 67.670    958.245   1011.215    -52.970    524.854   1008.955    527.102    524.854    524.854
 67.770   1133.000   1165.122    -32.122    524.933   1162.456    527.590    524.933    524.933
 67.870   1327.968   1355.095    -27.126    525.011   1351.918    528.189    525.011    525.011
 67.970   1585.000   1576.149      8.851    525.090   1572.376    528.884    525.090    525.090
 68.070   1791.000   1815.925    -24.925    525.168   1811.508    529.637    525.168    525.168
 68.170   2005.313   2053.204    -47.890    525.246   2048.161    530.386    525.246    525.246
 68.270   2241.192   2257.646    -16.454    525.324   2252.084    531.041    525.324    525.324
 68.370   2328.675   2393.545    -64.870    525.402   2387.671    531.497    525.402    525.402
 68.470   2458.229   2430.886     27.342    525.480   2424.982    531.664    525.480    525.480
 68.570   2336.000   2360.268    -24.268    525.558   2354.628    531.514    525.558    525.558
 68.670   2195.000   2198.748     -3.748    525.635   2193.611    531.098    525.635    525.635
 68.770   1967.559   1979.963    -12.404    525.713   1975.470    530.515    525.713    525.713
 68.870   1711.000   1738.979    -27.979    525.790   1735.177    529.867    525.790    525.790
 68.970   1540.212   1503.445     36.767    525.867   1500.308    529.237    525.867    525.867
 69.070   1236.000   1291.610    -55.610    525.943   1289.064    528.677    525.943    525.943
 69.170   1019.000   1113.256    -94.256    526.020   1111.204    528.218    526.020    526.020
 69.270    959.000    971.353    -12.353    526.096    969.693    527.866    526.096    526.096
 69.370    815.431    863.936    -48.505    526.172    862.571    527.617    526.172    526.172
 69.470    766.000    786.051    -20.051    526.247    784.900    527.456    526.247    526.247
 69.570    759.000    731.519     27.481    526.323    730.518    527.365    526.323    526.323
 69.670    665.000    694.270    -29.270    526.398    693.372    527.325    526.398    526.398
 69.770    641.000    669.138    -28.138    526.472    668.310    527.321    526.472    526.472
 69.870    665.000    652.168     12.832    526.547    651.388    527.342    526.547    526.547
 69.970    686.078    640.581     45.498    526.621    639.833    527.379    526.621    526.621
 70.070    578.540    632.554    -54.014    526.694    631.829    527.428    526.694    526.694
 70.170    657.000    626.965     30.035    526.768    626.255    527.484    526.768    526.768
 70.270    667.000    623.162     43.838    526.841    622.461    527.546    526.841    526.841
 70.370    641.000    620.790     20.210    526.913    620.092    527.613    526.913    526.913
 70.470    611.000    619.687     -8.687    526.985    618.989    527.685    526.985    526.985
 70.570    612.377    619.840     -7.463    527.057    619.135    527.761    527.057    527.057
 70.670    669.812    621.375     48.437    527.128    620.658    527.843    527.128    527.128
 70.770    628.000    624.597      3.403    527.199    623.860    527.931    527.199    527.199
 70.870    655.002    630.067     24.934    527.269    629.300    528.029    527.269    527.269
 70.970    621.000    638.714    -17.714    527.339    637.902    528.141    527.339    527.339
 71.070    685.000    651.962     33.038    527.408    651.084    528.272    527.408    527.408
 71.170    632.000    671.862    -39.862    527.477    670.886    528.431    527.477    527.477
 71.270    696.000    701.147     -5.147    527.545    700.030    528.632    527.545    527.545
 71.370    799.778    743.170     56.608    527.613    741.853    528.887    527.613    527.613
 71.470    807.392    801.619      5.773    527.680    800.027    529.213    527.680    527.680
 71.570    925.912    879.988     45.923    527.747    878.029    529.627    527.747    527.747
 71.670    944.234    980.780    -36.547    527.813    978.351    530.139    527.813    527.813
 71.770   1083.012   1104.546    -21.534    527.878   1101.543    530.751    527.878    527.878
 71.870   1257.742   1248.872      8.870    527.943   1245.204    531.454    527.943    527.943
 71.970   1362.000   1407.437    -45.437    528.007   1403.043    532.220    528.007    528.007
 72.070   1580.369   1569.219     11.150    528.071   1564.089    533.001    528.071    528.071
 72.170   1737.000   1718.112     18.888    528.134   1712.309    533.728    528.134    528.134
 72.270   1791.000   1833.943    -42.943    528.196   1827.622    534.314    528.196    528.196
 72.370   1912.000   1896.561     15.439    528.258   1889.967    534.671    528.258    528.258
 72.470   1891.000   1893.128     -2.128    528.319   1886.556    534.745    528.319    528.319
 72.570   1740.588   1824.323    -83.735    528.380   1818.056    534.537    528.380    528.380
 72.670   1715.000   1703.962     11.038    528.439   1698.219    534.109    528.439    528.439
 72.770   1591.000   1552.424     38.576    528.498   1547.330    533.547    528.498    528.498
 72.870   1411.160   1389.585     21.575    528.556   1385.180    532.938    528.556    528.556
 72.970   1266.000   1231.076     34.924    528.614   1227.334    532.347    528.614    528.614
 73.070   1057.157   1087.449    -30.292    528.671   1084.303    531.816    528.671    528.671
 73.170   1004.524    964.613     39.911    528.727    961.975    531.369    528.727    528.727
 73.270    842.068    864.660    -22.592    528.782    862.434    531.013    528.782    528.782
 73.370    790.000    786.821      3.179    528.837    784.917    530.745    528.837    528.837
 73.470    800.000    728.487     71.513    528.890    726.822    530.559    528.890    528.890
 73.570    758.000    686.154     71.846    528.943    684.656    530.444    528.943    528.943
 73.670    688.000    656.188     31.812    528.995    654.793    530.391    528.995    528.995
 73.770    682.000    635.331     46.669    529.047    633.984    530.395    529.047    529.047
 73.870    632.000    620.959     11.041    529.097    619.606    530.451    529.097    529.097
 73.970    624.000    611.131     12.869    529.147    609.721    530.560    529.147    529.147
 74.070    575.186    604.514    -29.328    529.195    602.990    530.724    529.195    529.195
 74.170    637.000    600.240     36.760    529.243    598.543    530.948    529.243    529.243
 74.270    612.000    597.756     14.244    529.290    595.825    531.232    529.290    529.290
 74.370    553.604    596.695    -43.091    529.336    594.470    531.576    529.336    529.336
 74.470    657.000    596.769     60.231    529.381    594.197    531.974    529.381    529.381
 74.570    676.000    597.694     78.306    529.426    594.736    532.410    529.426    529.426
 74.670    599.248    599.143      0.104    529.469    595.783    532.861    529.469    529.469
 74.770    559.993    600.720    -40.727    529.511    596.974    533.294    529.511    529.511
 74.870    622.359    601.957     20.403    529.553    597.883    533.668    529.553    529.553
 74.970    678.000    602.387     75.613    529.593    598.085    533.940    529.593    529.593
 75.070    657.000    601.674     55.326    529.633    597.274    534.079    529.633    529.633
 75.170    613.000    599.761     13.239    529.671    595.395    534.082    529.671    529.671
 75.270    651.000    596.912     54.088    529.709    592.684    533.977    529.709    529.709
 75.370    668.000    593.620     74.380    529.745    589.584    533.817    529.745    529.745
 75.470    642.000    590.464     51.536    529.781    586.614    533.660    529.781    529.781
 75.570    579.644    588.020     -8.376    529.815    584.291    533.567    529.815    529.815
 75.670    632.457    586.840     45.616    529.849    583.112    533.593    529.849    529.849
 75.770    595.000    587.457      7.543    529.881    583.552    533.795    529.881    529.881
 75.870    621.000    590.383     30.617    529.912    586.071    534.226    529.912    529.912
 75.970    612.000    596.094     15.906    529.943    591.096    534.936    529.943    529.943
 76.070    612.000    604.990      7.010    529.972    598.983    535.967    529.972    529.972
 76.170    639.117    617.326     21.792    530.000    609.959    537.347    530.000    530.000
 76.270    707.000    633.125     73.875    530.027    624.045    539.078    530.027    530.027
 76.370    672.000    652.087     19.913    530.053    640.972    541.131    530.053    530.053
 76.470    725.000    673.495     51.505    530.077    660.096    543.431    530.077    530.077
 76.570    685.000    696.133    -11.133    530.101    680.327    545.855    530.101    530.101
 76.670    756.000    718.228     37.772    530.124    700.075    548.218    530.124    530.124
 76.770    789.000    737.467     51.533    530.145    717.267    550.282    530.145    530.145
 76.870    809.260    751.230     58.030    530.165    729.554    551.776    530.165    530.165
 76.970    697.212    757.197    -59.985    530.184    734.856    552.461    530.184    530.184
 77.070    795.000    754.192     40.808    530.202    732.121    552.215    530.202    530.202
 77.170    750.290    742.720      7.571    530.219    721.796    551.091    530.219    530.219
 77.270    761.094    724.706     36.388    530.234    705.610    549.288    530.234    530.234
 77.370    692.000    702.707    -10.707    530.248    685.851    547.070    530.248    530.248
 77.470    694.981    679.171     15.809    530.261    664.714    544.691    530.261    530.261
 77.570    695.633    656.064     39.569    530.273    643.961    542.355    530.273    530.273
 77.670    616.000    634.775    -18.775    530.284    624.837    540.206    530.284    530.284
 77.770    649.000    616.153     32.847    530.293    608.102    538.332    530.293    530.293
 77.870    565.306    600.584    -35.278    530.301    594.103    536.773    530.301    530.301
 77.970    622.981    588.087     34.894    530.308    582.858    535.532    530.308    530.308
 78.070    568.000    578.414    -10.414    530.313    574.141    534.582    530.313    530.313
 78.170    590.034    571.161     18.873    530.318    567.593    533.882    530.318    530.318
 78.270    522.108    565.868    -43.760    530.321    562.800    533.386    530.321    530.321
 78.370    535.000    562.084    -27.084    530.322    559.357    533.047    530.322    530.322
 78.470    549.000    559.418    -10.418    530.323    556.915    532.825    530.323    530.323
 78.570    565.000    557.556      7.444    530.322    555.188    532.687    530.322    530.322
 78.670    529.000    556.260    -27.260    530.319    553.968    532.611    530.319    530.319
 78.770    552.000    555.369     -3.369    530.316    553.105    532.579    530.316    530.316
 78.870    494.000    554.773    -60.773    530.311    552.502    532.581    530.311    530.311
 78.970    602.633    554.409     48.225    530.304    552.101    532.611    530.304    530.304
 79.070    590.528    554.243     36.286    530.297    551.870    532.668    530.297    530.297
 79.170    566.000    554.265     11.735    530.288    551.800    532.751    530.288    530.288
 79.270    598.611    554.484     44.128    530.277    551.896    532.864    530.277    530.277
 79.370    529.784    554.922    -25.138    530.266    552.173    533.013    530.266    530.266
 79.470    538.000    555.616    -17.616    530.252    552.659    533.207    530.252    530.252
 79.570    555.000    556.617     -1.617    530.238    553.390    533.463    530.238    530.238
 79.670    544.000    557.994    -13.994    530.222    554.412    533.802    530.222    530.222
 79.770    587.475    559.836     27.639    530.205    555.780    534.259    530.205    530.205
 79.870    598.056    562.263     35.794    530.186    557.563    534.882    530.186    530.186
 79.970    577.000    565.429     11.571    530.166    559.849    535.741    530.166    530.166
 80.070    557.003    569.536    -12.533    530.144    562.750    536.925    530.144    530.144
 80.170    560.000    574.837    -14.837    530.121    566.402    538.551    530.121    530.121
 80.270    629.000    581.636     47.364    530.096    570.974    540.752    530.096    530.096
 80.370    591.000    590.276      0.724    530.070    576.665    543.675    530.070    530.070
 80.470    578.614    601.124    -22.509    530.043    583.697    547.463    530.043    530.043
 80.570    635.000    614.546     20.454    530.014    592.323    552.230    530.014    530.014
 80.670    622.744    630.868     -8.124    529.983    602.809    558.038    529.983    529.983
 80.770    705.000    650.304     54.696    529.952    615.393    564.861    529.952    529.952
 80.870    639.016    672.844    -33.828    529.918    630.210    572.553    529.918    529.918
 80.970    665.616    698.133    -32.518    529.883    647.200    580.823    529.883    529.883
 81.070    724.000    725.377     -1.377    529.847    666.026    589.209    529.847    529.847
 81.170    744.000    753.295     -9.295    529.809    686.033    597.091    529.809    529.809
 81.270    809.050    780.206     28.844    529.770    706.265    603.738    529.770    529.770
 81.370    824.867    804.268     20.599    529.729    725.591    608.441    529.729    529.729
 81.470    854.000    823.840     30.160    529.686    742.886    610.685    529.686    529.686
 81.570    805.000    837.763    -32.763    529.643    757.194    610.265    529.643    529.643
 81.670    848.000    845.433      2.567    529.597    767.796    607.296    529.597    529.597
 81.770    872.211    846.776     25.435    529.550    774.254    602.142    529.550    529.550
 81.870    820.000    842.198    -22.198    529.501    776.430    595.343    529.501    529.501
 81.970    806.908    832.455    -25.547    529.451    774.437    587.547    529.451    529.451
 82.070    807.000    818.434    -11.434    529.400    768.510    579.404    529.400    529.400
 82.170    818.000    801.025     16.975    529.346    758.979    571.473    529.346    529.346
 82.270    783.000    781.160      1.840    529.292    746.364    564.167    529.292    529.292
 82.370    760.000    759.866      0.134    529.235    731.441    557.738    529.235    529.235
 82.470    779.344    738.162     41.182    529.177    715.123    552.290    529.177    529.177
 82.570    692.000    716.858    -24.858    529.118    698.229    547.817    529.118    529.118
 82.670    654.000    696.451    -42.451    529.057    681.345    544.228    529.057    529.057
 82.770    723.210    677.194     46.016    528.994    664.856    541.393    528.994    528.994
 82.870    568.000    659.263    -91.263    528.930    649.080    539.167    528.930    528.930
 82.970    595.000    642.872    -47.872    528.864    634.362    537.420    528.864    528.864
 83.070    610.000    628.285    -18.285    528.796    621.075    536.045    528.796    528.796
 83.170    619.000    615.752      3.248    528.727    609.553    534.957    528.727    528.727
 83.270    612.000    605.454      6.546    528.656    600.038    534.096    528.656    528.656
 83.370    576.000    597.480    -21.480    528.584    592.665    533.414    528.584    528.584
 83.470    608.069    591.832     16.237    528.510    587.468    532.882    528.510    528.510
 83.570    555.000    588.428    -33.428    528.434    584.387    532.475    528.434    528.434
 83.670    561.000    587.106    -26.106    528.357    583.278    532.177    528.357    528.357
 83.770    566.000    587.621    -21.621    528.278    583.912    531.971    528.278    528.278
 83.870    630.306    589.640     40.666    528.198    585.975    531.841    528.198    528.198
 83.970    635.709    592.749     42.960    528.116    589.069    531.767    528.116    528.116
 84.070    539.000    596.446    -57.446    528.032    592.713    531.730    528.032    528.032
 84.170    637.461    600.154     37.308    527.947    596.356    531.705    527.947    527.947
 84.270    600.000    603.245     -3.245    527.859    599.393    531.668    527.859    527.859
 84.370    626.000    605.111     20.889    527.771    601.243    531.595    527.771    527.771
 84.470    597.000    605.284     -8.284    527.680    601.455    531.466    527.680    527.680
 84.570    644.499    603.569     40.930    527.588    599.840    531.275    527.588    527.588
 84.670    606.000    600.092      5.908    527.495    596.523    531.025    527.495    527.495
 84.770    608.000    595.240     12.760    527.399    591.871    530.733    527.399    527.399
 84.870    609.274    589.514     19.760    527.302    586.368    530.419    527.302    527.302
 84.970    578.000    583.412     -5.412    527.204    580.487    530.103    527.204    527.204
 85.070    534.000    577.358    -43.358    527.104    574.632    529.808    527.104    527.104
 85.170    528.401    571.682    -43.282    527.002    569.114    529.552    527.002    527.002
 85.270    561.000    566.617     -5.617    526.898    564.149    529.351    526.898    526.898
 85.370    609.794    562.309     47.485    526.793    559.867    529.223    526.793    526.793
 85.470    571.000    558.827     12.173    526.686    556.319    529.183    526.686    526.686
 85.570    559.610    556.177      3.433    526.577    553.499    529.246    526.577    526.577
 85.670    536.000    554.327    -18.327    526.467    551.357    529.428    526.467    526.467
 85.770    574.000    553.217     20.783    526.355    549.825    529.738    526.355    526.355
 85.870    535.000    552.777    -17.777    526.241    548.824    530.186    526.241    526.241
 85.970    580.389    552.923     27.466    526.126    548.270    530.771    526.126    526.126
 86.070    500.324    553.600    -53.276    526.009    548.114    531.485    526.009    526.009
 86.170    512.051    554.840    -42.790    525.890    548.405    532.315    525.890    525.890
 86.270    548.000    556.585     -8.585    525.770    549.116    533.226    525.770    525.770
 86.370    575.000    558.826     16.174    525.648    550.290    534.170    525.648    525.648
 86.470    560.000    561.580     -1.580    525.524    552.004    535.083    525.524    525.524
 86.570    612.213    564.873     47.340    525.399    554.362    535.889    525.399    525.399
 86.670    590.000    568.744     21.256    525.271    557.491    536.500    525.271    525.271
 86.770    584.653    573.244     11.409    525.143    561.525    536.832    525.143    525.143
 86.870    525.000    578.442    -53.442    525.012    566.591    536.827    525.012    525.012
 86.970    561.737    584.425    -22.688    524.880    572.794    536.468    524.880    524.880
 87.070    603.000    591.279     11.721    524.746    580.189    535.785    524.746    524.746
 87.170    563.090    599.050    -35.960    524.611    588.754    534.846    524.611    524.611
 87.270    664.000    607.701     56.299    524.474    598.367    533.735    524.474    524.474
 87.370    657.000    617.068     39.932    524.335    608.785    532.535    524.335    524.335
 87.470    629.000    626.835      2.165    524.195    619.619    531.316    524.195    524.195
 87.570    674.974    636.520     38.454    524.053    630.335    530.133    524.053    524.053
 87.670    658.000    645.483     12.517    523.909    640.252    529.027    523.909    523.909
 87.770    625.000    652.966    -27.966    523.763    648.585    528.026    523.763    523.763
 87.870    660.000    658.201      1.799    523.616    654.555    527.141    523.616    523.616
 87.970    647.000    660.586    -13.586    523.467    657.556    526.377    523.467    523.467
 88.070    678.216    659.865     18.350    523.317    657.341    525.728    523.317    523.317
 88.170    676.000    656.222     19.778    523.165    654.100    525.182    523.165    523.165
 88.270    658.000    650.204      7.796    523.011    648.395    524.728    523.011    523.011
 88.370    697.000    642.569     54.431    522.856    640.996    524.349    522.856    522.856
 88.470    636.000    634.132      1.868    522.699    632.730    524.034    522.699    522.699
 88.570    592.000    625.666    -33.666    522.540    624.382    523.771    522.540    522.540
 88.670    609.979    617.857     -7.878    522.380    616.646    523.552    522.380    522.380
 88.770    611.299    611.268      0.031    522.218    610.091    523.368    522.218    522.218
 88.870    565.000    606.315    -41.315    522.054    605.138    523.216    522.054    522.054
 88.970    601.000    603.249     -2.249    521.889    602.043    523.089    521.889    521.889
 89.070    602.112    602.151     -0.038    521.722    600.891    522.985    521.722    521.722
 89.170    568.000    602.936    -34.936    521.553    601.603    522.900    521.553    521.553
 89.270    618.000    605.365     12.635    521.383    603.943    522.828    521.383    521.383
 89.370    588.930    609.057    -20.127    521.212    607.537    522.763    521.212    521.212
 89.470    644.000    613.509     30.491    521.038    611.887    522.698    521.038    521.038
 89.570    566.000    618.115    -52.115    520.863    616.399    522.625    520.863    520.863
 89.670    606.915    622.205    -15.290    520.687    620.411    522.533    520.687    520.687
 89.770    664.943    625.111     39.832    520.508    623.264    522.413    520.508    520.508
 89.870    642.000    626.270     15.730    520.329    624.403    522.257    520.329    520.329
 89.970    629.633    625.343      4.290    520.147    623.494    522.060    520.147    520.147
 90.070    582.570    622.295    -39.726    519.964    620.502    521.821    519.964    519.964
 90.170    582.000    617.382    -35.382    519.780    615.675    521.548    519.780    519.780
 90.270    619.000    611.050      7.950    519.594    609.455    521.247    519.594    519.594
 90.370    611.000    603.825      7.175    519.406    602.356    520.928    519.406    519.406
 90.470    636.000    596.210     39.790    519.217    594.872    520.601    519.217    519.217
 90.570    575.000    588.637    -13.637    519.026    587.431    520.273    519.026    519.026
 90.670    535.000    581.449    -46.449    518.834    580.368    519.950    518.834    518.834
 90.770    553.000    574.895    -21.895    518.640    573.927    519.636    518.640    518.640
 90.870    595.741    569.136     26.605    518.444    568.268    519.335    518.444    518.444
 90.970    546.000    564.254    -18.254    518.247    563.471    519.048    518.247    518.247
 91.070    574.000    560.268     13.732    518.049    559.555    518.774    518.049    518.049
 91.170    550.454    557.146     -6.692    517.849    556.489    518.515    517.849    517.849
 91.270    505.000    554.826    -49.826    517.647    554.212    518.268    517.647    517.647
 91.370    563.360    553.232     10.128    517.444    552.649    518.032    517.444    517.444
 91.470    506.977    552.288    -45.311    517.240    551.725    517.805    517.240    517.240
 91.570    569.000    551.933     17.067    517.034    551.379    517.587    517.034    517.034
 91.670    539.000    552.129    -13.129    516.826    551.576    517.377    516.826    516.826
 91.770    572.730    552.869     19.862    516.617    552.308    517.175    516.617    516.617
 91.870    477.000    554.180    -77.180    516.407    553.602    516.980    516.407    516.407
 91.970    556.000    556.125     -0.125    516.195    555.519    516.794    516.195    516.195
 92.070    554.000    558.800     -4.800    515.982    558.156    516.618    515.982    515.982
 92.170    510.500    562.335    -51.835    515.767    561.637    516.454    515.767    515.767
 92.270    567.000    566.879      0.121    515.550    566.113    516.303    515.550    515.550
 92.370    585.291    572.599     12.692    515.333    571.747    516.168    515.333    515.333
 92.470    617.000    579.660     37.340    515.114    578.703    516.051    515.114    515.114
 92.570    570.000    588.217    -18.217    514.893    587.133    515.952    514.893    514.893
 92.670    632.000    598.391     33.609    514.671    597.159    515.873    514.671    514.671
 92.770    583.000    610.258    -27.258    514.448    608.857    515.813    514.448    514.448
 92.870    598.000    623.826    -25.826    514.224    622.238    515.769    514.224    514.224
 92.970    652.081    639.025     13.056    513.998    637.233    515.740    513.998    513.998
 93.070    660.000    655.686      4.314    513.770    653.680    515.720    513.770    513.770
 93.170    671.000    673.530     -2.530    513.541    671.307    515.702    513.541    513.541
 93.270    640.000    692.163    -52.163    513.311    689.725    515.680    513.311    513.311
 93.370    650.514    711.083    -60.569    513.080    708.442    515.646    513.080    513.080
 93.470    660.000    729.723    -69.723    512.847    726.900    515.593    512.847    512.847
 93.570    713.000    747.531    -34.531    512.613    744.550    515.514    512.613    512.613
 93.670    751.000    764.133    -13.133    512.378    761.018    515.411    512.378    512.378
 93.770    821.054    779.390     41.664    512.141    776.160    515.289    512.141    512.141
 93.870    846.000    793.411     52.589    511.904    790.071    515.162    511.904    511.904
 93.970    802.000    806.495     -4.495    511.665    803.030    515.048    511.665    511.665
 94.070    834.000    818.980     15.020    511.424    815.354    514.970    511.424    511.424
 94.170    875.612    831.118     44.493    511.183    827.275    514.948    511.183    511.183
 94.270    878.000    843.026     34.974    510.940    838.890    515.000    510.940    510.940
 94.370    797.192    854.716    -57.525    510.696    850.200    515.138    510.696    510.696
 94.470    894.000    866.181     27.819    510.451    861.191    515.369    510.451    510.451
 94.570    903.939    877.452     26.487    510.204    871.898    515.690    510.204    510.204
 94.670    930.000    888.584     41.416    509.957    882.386    516.089    509.957    509.957
 94.770    888.246    899.557    -11.311    509.708    892.656    516.546    509.708    509.708
 94.870    915.000    910.135      4.865    509.458    902.505    517.030    509.458    509.458
 94.970    975.150    919.774     55.376    509.207    911.427    517.500    509.207    509.207
 95.070    934.000    927.590      6.410    508.955    918.587    517.910    508.955    508.955
 95.170    910.375    932.439    -22.064    508.702    922.892    518.207    508.702    508.702
 95.270    952.000    933.101     18.899    508.447    923.174    518.341    508.447    508.447
 95.370    951.000    928.569     22.431    508.192    918.464    518.272    508.192    508.192
 95.470    852.227    918.355    -66.127    507.935    908.296    517.978    507.935    507.935
 95.570    929.578    902.685     26.894    507.678    892.892    517.463    507.678    507.678
 95.670    860.394    882.488    -22.094    507.419    873.152    516.753    507.419    507.419
 95.770    866.000    859.197      6.803    507.160    850.467    515.893    507.160    507.160
 95.870    871.943    834.489     37.455    506.899    826.462    514.932    506.899    506.899
 95.970    809.000    810.071     -1.071    506.637    802.794    513.922    506.637    506.637
 96.070    760.330    787.557    -27.227    506.375    781.031    512.909    506.375    506.375
 96.170    790.000    768.416     21.584    506.111    762.602    511.931    506.111    506.111
 96.270    721.958    753.951    -31.992    505.847    748.781    511.019    505.847    505.847
 96.370    793.000    745.301     47.699    505.582    740.683    510.197    505.582    505.582
 96.470    703.000    743.440    -40.440    505.315    739.267    509.481    505.315    505.315
 96.570    799.317    749.176     50.141    505.048    745.331    508.878    505.048    505.048
 96.670    757.343    763.143     -5.800    504.780    759.507    508.392    504.780    504.780
 96.770    835.895    785.784     50.111    504.511    782.241    508.022    504.511    504.511
 96.870    818.000    817.329      0.671    504.241    813.766    507.762    504.241    504.241
 96.970    867.000    857.754      9.246    503.971    854.069    507.605    503.971    503.971
 97.070    867.000    906.736    -39.736    503.700    902.834    507.540    503.700    503.700
 97.170    912.677    963.590    -50.914    503.427    959.389    507.557    503.427    503.427
 97.270    982.000   1027.215    -45.215    503.154   1022.648    507.642    503.154    503.154
 97.370   1055.000   1096.033    -41.033    502.881   1091.049    507.777    502.881    502.881
 97.470   1197.000   1167.946     29.054    502.606   1162.517    507.944    502.606    502.606
 97.570   1294.415   1240.308     54.107    502.331   1234.428    508.117    502.331    502.331
 97.670   1325.000   1309.932     15.068    502.055   1303.623    508.272    502.055    502.055
 97.770   1345.000   1373.178    -28.178    501.779   1366.491    508.377    501.779    501.779
 97.870   1390.600   1426.177    -35.577    501.502   1419.195    508.403    501.502    501.502
 97.970   1472.000   1465.255      6.745    501.224   1458.091    508.322    501.224    501.224
 98.070   1484.000   1487.519     -3.519    500.945   1480.304    508.111    500.945    500.945
 98.170   1497.000   1491.434      5.566    500.666   1484.311    507.760    500.666    500.666
 98.270   1466.000   1477.155    -11.155    500.387   1470.261    507.271    500.387    500.387
 98.370   1448.000   1446.442      1.558    500.107   1439.895    506.661    500.107    500.107
 98.470   1437.000   1402.233     34.767    499.826   1396.130    505.953    499.826    499.826
 98.570   1315.000   1348.104    -33.104    499.545   1342.508    505.176    499.545    499.545
 98.670   1277.000   1287.788    -10.788    499.263   1282.738    504.358    499.263    499.263
 98.770   1215.000   1224.865     -9.865    498.981   1220.372    503.523    498.981    498.981
 98.870   1165.392   1162.571      2.821    498.698   1158.625    502.695    498.698    498.698
 98.970   1099.000   1103.723     -4.723    498.415   1100.298    501.889    498.415    498.415
 99.070   1090.000   1050.700     39.300    498.131   1047.757    501.119    498.131    498.131
 99.170   1047.000   1005.452     41.548    497.848   1002.944    500.395    497.848    497.848
 99.270    905.559    969.527    -63.968    497.563    967.403    499.720    497.563    497.563
 99.370   1013.031    944.297     68.735    497.279    942.504    499.095    497.279    497.279
 99.470    937.009    930.672      6.337    496.994    929.159    498.523    496.994    496.994
 99.570    918.000    929.314    -11.314    496.708    928.034    497.999    496.708    496.708
 99.670    897.000    940.627    -43.627    496.423    939.534    497.518    496.423    496.423
 99.770    960.000    964.751     -4.751    496.137    963.809    497.076    496.137    496.137
 99.870    988.000   1001.566    -13.566    495.851   1000.744    496.667    495.851    495.851
 99.970   1037.000   1050.674    -13.674    495.565   1049.944    496.286    495.565    495.565
100.070   1086.766   1111.369    -24.602    495.278   1110.711    495.927    495.278    495.278
100.170   1153.000   1182.595    -29.595    494.992   1181.994    495.587    494.992    494.992
100.270   1292.000   1262.898     29.102    494.705   1262.340    495.262    494.705    494.705
100.370   1274.011   1350.365    -76.353    494.418   1349.841    494.949    494.418    494.418
100.470   1453.000   1442.594     10.406    494.131   1442.098    494.645    494.131    494.131
100.570   1572.000   1536.704     35.296    493.844   1536.232    494.350    493.844    493.844
100.670   1585.998   1629.440    -43.442    493.557   1628.988    494.061    493.557    493.557
100.770   1707.000   1717.399    -10.399    493.270   1716.964    493.778    493.270    493.270
100.870   1841.289   1797.360     43.929    492.983   1796.938    493.500    492.983    492.983
100.970   1837.000   1866.609    -29.609    492.696   1866.197    493.227    492.696    492.696
101.070   2002.000   1923.165     78.835    492.410   1922.757    492.960    492.410    492.410
101.170   1961.000   1965.681     -4.681    492.123   1965.272    492.697    492.123    492.123
101.270   1911.430   1993.259    -81.829    491.836   1992.841    492.439    491.836    491.836
101.370   1937.747   2005.228    -67.481    491.549   2004.794    492.185    491.549    491.549
101.470   2018.000   2001.097     16.903    491.263   2000.640    491.935    491.263    491.263
101.570   2015.000   1980.750     34.250    490.977   1980.262    491.689    490.977    490.977
101.670   1961.370   1944.791     16.579    490.691   1944.266    491.446    490.691    490.691
101.770   1891.000   1894.839     -3.839    490.405   1894.270    491.206    490.405    490.405
101.870   1919.480   1833.565     85.915    490.120   1832.947    490.967    490.120    490.120
101.970   1675.112   1764.430    -89.318    489.835   1763.758    490.728    489.835    489.835
102.070   1634.000   1691.216    -57.216    489.550   1690.489    490.488    489.550    489.550
102.170   1570.000   1617.548    -47.548    489.265   1616.767    490.245    489.265    489.265
102.270   1437.000   1546.534   -109.534    488.981   1545.702    489.998    488.981    488.981
102.370   1534.000   1480.565     53.435    488.698   1479.688    489.744    488.698    488.698
102.470   1379.000   1421.242    -42.242    488.415   1420.329    489.482    488.415    488.415
102.570   1375.000   1369.382      5.618    488.132   1368.445    489.211    488.132    488.132
102.670   1342.000   1325.061     16.939    487.850   1324.110    488.930    487.850    487.850
102.770   1226.199   1287.678    -61.478    487.568   1286.724    488.641    487.568    487.568
102.870   1308.460   1256.041     52.420    487.287   1255.096    488.343    487.287    487.287
102.970   1281.444   1228.497     52.947    487.007   1227.571    488.037    487.007    487.007
103.070   1170.000   1203.108    -33.108    486.727   1202.211    487.723    486.727    486.727
103.170   1192.498   1177.917     14.581    486.448   1177.057    487.404    486.448    486.448
103.270   1133.884   1151.200    -17.316    486.169   1150.386    487.079    486.169    486.169
103.370   1122.433   1121.738      0.695    485.892   1120.975    486.750    485.892    485.892
103.470   1083.347   1088.949     -5.602    485.615   1088.240    486.418    485.615    485.615
103.570   1063.000   1052.876     10.124    485.338   1052.224    486.083    485.338    485.338
103.670   1072.886   1014.119     58.766    485.063   1013.523    485.749    485.063    485.063
103.770    944.000    973.506    -29.506    484.789    972.965    485.416    484.789    484.789
103.870    931.000    932.006     -1.006    484.515    931.518    485.086    484.515    484.515
103.970    932.000    890.584     41.416    484.242    890.143    484.759    484.242    484.242
104.070    853.905    850.120      3.785    483.971    849.724    484.438    483.971    483.971
104.170    798.000    811.374    -13.374    483.700    811.018    484.121    483.700    483.700
104.270    792.000    774.967     17.033    483.430    774.645    483.810    483.430    483.430
104.370    727.000    741.368    -14.368    483.161    741.076    483.504    483.161    483.161
104.470    713.000    710.896      2.104    482.894    710.631    483.205    482.894    482.894
104.570    710.000    683.728     26.272    482.627    683.484    482.911    482.627    482.627
104.670    651.860    659.903     -8.043    482.362    659.676    482.622    482.362    482.362
104.770    648.283    639.347      8.935    482.098    639.135    482.338    482.098    482.098
104.870    647.000    621.897     25.103    481.835    621.696    482.060    481.835    481.835
104.970    578.393    607.321    -28.928    481.573    607.128    481.785    481.573    481.573
105.070    619.000    595.347     23.653    481.313    595.159    481.516    481.313    481.313
105.170    582.000    585.687     -3.687    481.054    585.503    481.250    481.054    481.054
105.270    597.000    578.057     18.943    480.796    577.874    480.988    480.796    480.796
105.370    618.000    572.191     45.809    480.540    572.008    480.730    480.540    480.540
105.470    573.816    567.856      5.960    480.285    567.669    480.476    480.285    480.285
105.570    538.000    564.855    -26.855    480.032    564.663    480.226    480.032    480.032
105.670    580.000    563.034     16.966    479.780    562.833    479.980    479.780    479.780
105.770    578.000    562.278     15.722    479.530    562.067    479.738    479.530    479.530
105.870    562.000    562.513     -0.513    479.281    562.288    479.501    479.281    479.281
105.970    581.000    563.698     17.302    479.034    563.456    479.269    479.034    479.034
106.070    612.124    565.821     46.303    478.789    565.558    479.043    478.789    478.789
106.170    585.000    568.894     16.106    478.545    568.605    478.822    478.545    478.545
106.270    621.000    572.942     48.058    478.303    572.623    478.608    478.303    478.303
106.370    588.000    578.003      9.997    478.063    577.648    478.401    478.063    478.063
106.470    590.000    584.109      5.891    477.825    583.714    478.201    477.825    477.825
106.570    591.000    591.287     -0.287    477.588    590.844    478.008    477.588    477.588
106.670    664.000    599.538     64.462    477.354    599.043    477.823    477.354    477.354
106.770    616.136    608.836      7.300    477.121    608.283    477.645    477.121    477.121
106.870    618.000    619.113     -1.113    476.890    618.497    477.474    476.890    476.890
106.970    611.723    630.253    -18.530    476.662    629.571    477.309    476.662    476.662
107.070    631.000    642.092    -11.092    476.435    641.341    477.148    476.435    476.435
107.170    605.763    654.407    -48.643    476.211    653.585    476.992    476.211    476.211
107.270    647.442    666.903    -19.462    475.989    666.012    476.836    475.989    475.989
107.370    648.306    679.300    -30.994    475.768    678.342    476.681    475.768    475.768
107.470    680.957    691.219    -10.262    475.550    690.199    476.524    475.550    475.550
107.570    697.000    702.260     -5.260    475.335    701.187    476.361    475.335    475.335
107.670    653.127    712.029    -58.902    475.121    710.913    476.191    475.121    475.121
107.770    737.000    720.178     16.822    474.910    719.033    476.010    474.910    474.910
107.870    699.000    726.451    -27.451    474.702    725.291    475.819    474.702    474.702
107.970    726.595    730.734     -4.138    474.496    729.575    475.614    474.496    474.496
108.070    699.267    733.085    -33.818    474.292    731.944    475.397    474.292    474.292
108.170    714.820    733.734    -18.915    474.091    732.625    475.167    474.091    474.091
108.270    700.000    733.042    -33.042    473.892    731.978    474.928    473.892    473.892
108.370    706.000    731.445    -25.445    473.696    730.435    474.682    473.696    473.696
108.470    716.000    729.395    -13.395    473.503    728.448    474.430    473.503    473.503
108.570    730.000    727.311      2.689    473.312    726.431    474.176    473.312    473.312
108.670    676.203    725.539    -49.336    473.125    724.730    473.922    473.125    473.125
108.770    724.000    724.334     -0.334    472.940    723.594    473.670    472.940    472.940
108.870    706.000    723.844    -17.844    472.757    723.174    473.422    472.757    472.757
108.970    727.000    724.111      2.889    472.578    723.507    473.179    472.578    472.578
109.070    675.000    725.065    -50.065    472.402    724.524    472.943    472.402    472.402
109.170    753.000    726.532     26.468    472.228    726.049    472.715    472.228    472.228
109.270    782.936    728.241     54.695    472.058    727.811    472.494    472.058    472.058
109.370    704.000    729.842    -25.842    471.890    729.460    472.282    471.890    471.890
109.470    760.000    730.929     29.071    471.726    730.590    472.077    471.726    471.726
109.570    729.000    731.084     -2.084    471.565    730.783    471.881    471.565    471.565
109.670    788.263    729.922     58.341    471.407    729.654    471.692    471.407    471.407
109.770    722.000    727.145     -5.145    471.253    726.906    471.511    471.253    471.253
109.870    720.397    722.588     -2.191    471.101    722.374    471.337    471.101    471.101
109.970    708.000    716.236     -8.236    470.953    716.042    471.169    470.953    470.953
110.070    654.241    708.220    -53.979    470.809    708.044    471.007    470.809    470.809
110.170    673.000    698.785    -25.785    470.668    698.624    470.851    470.668    470.668
110.270    686.106    688.249     -2.143    470.530    688.101    470.701    470.530    470.530
110.370    664.000    676.959    -12.959    470.396    676.822    470.556    470.396    470.396
110.470    666.445    665.264      1.181    470.266    665.135    470.416    470.266    470.266
110.570    666.000    653.488     12.512    470.139    653.365    470.281    470.139    470.139
110.670    638.618    641.921     -3.303    470.016    641.804    470.151    470.016    470.016
110.770    640.814    630.815      9.999    469.897    630.703    470.025    469.897    469.897
110.870    637.489    620.376     17.113    469.781    620.267    469.904    469.781    469.781
110.970    598.478    610.768    -12.289    469.670    610.661    469.788    469.670    469.670
111.070    611.000    602.108      8.892    469.562    602.004    469.676    469.562    469.562
111.170    585.000    594.475     -9.475    469.458    594.372    469.569    469.458    469.458
111.270    600.000    587.908     12.092    469.358    587.806    469.466    469.358    469.358
111.370    586.000    582.409      3.591    469.263    582.308    469.368    469.263    469.263
111.470    576.000    577.955     -1.955    469.171    577.854    469.274    469.171    469.171
111.570    611.000    574.497     36.503    469.084    574.396    469.185    469.084    469.084
111.670    548.000    571.970    -23.970    469.001    571.868    469.101    469.001    469.001
111.770    549.000    570.294    -21.294    468.922    570.192    469.021    468.922    468.922
111.870    617.000    569.388     47.612    468.847    569.286    468.946    468.847    468.847
111.970    602.421    569.165     33.256    468.777    569.061    468.875    468.777    468.777
112.070    519.504    569.538    -50.034    468.711    569.434    468.809    468.711    468.711
112.170    565.000    570.430     -5.430    468.650    570.326    468.746    468.650    468.650
112.270    551.000    571.769    -20.769    468.593    571.665    468.689    468.593    468.593
112.370    600.000    573.498     26.502    468.541    573.393    468.638    468.541    468.541
112.470    608.000    575.569     32.431    468.494    575.464    468.590    468.494    468.494
112.570    573.767    577.940     -4.173    468.451    577.833    468.548    468.451    468.451
112.670    553.145    580.584    -27.439    468.413    580.477    468.511    468.413    468.413
112.770    579.000    583.491     -4.491    468.380    583.382    468.478    468.380    468.380
112.870    581.701    586.663     -4.961    468.352    586.553    468.451    468.352    468.352
112.970    641.583    590.118     51.465    468.329    590.007    468.429    468.329    468.329
113.070    589.000    593.886     -4.886    468.311    593.774    468.412    468.311    468.311
113.170    586.472    598.014    -11.543    468.298    597.900    468.400    468.298    468.298
113.270    579.000    602.561    -23.561    468.290    602.445    468.394    468.290    468.290
113.370    569.541    607.604    -38.062    468.287    607.485    468.393    468.287    468.287
113.470    573.499    613.242    -39.742    468.289    613.119    468.398    468.289    468.289
113.570    628.000    619.600      8.400    468.297    619.474    468.409    468.297    468.297
113.670    625.000    626.838     -1.838    468.310    626.707    468.426    468.310    468.310
113.770    600.423    635.160    -34.737    468.328    635.022    468.449    468.328    468.328
113.870    634.000    644.823    -10.823    468.352    644.678    468.479    468.352    468.352
113.970    614.972    656.155    -41.183    468.382    656.000    468.516    468.382    468.382
114.070    701.000    669.566     31.434    468.417    669.399    468.559    468.417    468.417
114.170    665.000    685.567    -20.567    468.457    685.388    468.609    468.457    468.457
114.270    751.117    704.793     46.324    468.504    704.597    468.667    468.504    468.504
114.370    710.000    728.015    -18.015    468.556    727.799    468.733    468.556    468.556
114.470    707.000    756.163    -49.163    468.614    755.925    468.806    468.614    468.614
114.570    785.541    790.343     -4.803    468.678    790.078    468.888    468.678    468.678
114.670    792.245    831.849    -39.604    468.748    831.552    468.977    468.748    468.748
114.770    886.681    882.166      4.515    468.824    881.833    469.075    468.824    468.824
114.870    905.000    942.973    -37.973    468.906    942.599    469.182    468.906    468.906
114.970    959.000   1016.128    -57.128    468.994   1015.707    469.297    468.994    468.994
115.070   1094.000   1103.636     -9.636    469.089   1103.163    469.421    469.089    469.089
115.170   1223.000   1207.611     15.389    469.189   1207.080    469.554    469.189    469.189
115.270   1425.000   1330.211     94.789    469.296   1329.616    469.695    469.296    469.296
115.370   1543.000   1473.560     69.440    469.410   1472.897    469.845    469.410    469.410
115.470   1644.000   1639.650      4.350    469.530   1638.912    470.003    469.530    469.530
115.570   1789.404   1830.224    -40.821    469.656   1829.408    470.170    469.656    469.656
115.670   2100.000   2046.657     53.343    469.790   2045.758    470.345    469.790    469.790
115.770   2498.000   2289.813    208.187    469.929   2288.830    470.527    469.929    469.929
115.870   2588.784   2559.917     28.866    470.076   2558.850    470.716    470.076    470.076
115.970   2853.755   2856.424     -2.670    470.229   2855.273    470.913    470.229    470.229
116.070   3240.601   3177.900     62.701    470.390   3176.667    471.116    470.390    470.390
116.170   3476.233   3521.924    -45.691    470.557   3520.614    471.325    470.557    470.557
116.270   3835.135   3885.019    -49.884    470.731   3883.639    471.540    470.731    470.731
116.370   4338.000   4262.601     75.399    470.912   4261.158    471.762    470.912    470.912
116.470   4700.000   4648.963     51.037    471.101   4647.468    471.990    471.101    471.101
116.570   5073.107   5037.291     35.816    471.296   5035.755    472.224    471.296    471.296
116.670   5509.000   5419.711     89.289    471.499   5418.148    472.465    471.499    471.499
116.770   5765.000   5787.396    -22.396    471.709   5785.819    472.713    471.709    471.709
116.870   6066.683   6130.734    -64.051    471.927   6129.158    472.969    471.927    471.927
116.970   6540.793   6439.623    101.170    472.152   6438.063    473.233    472.152    472.152
117.070   6636.000   6703.911    -67.911    472.385   6702.382    473.504    472.385    472.385
117.170   7082.603   6914.013    168.590    472.625   6912.529    473.784    472.625    472.625
117.270   7245.000   7061.676    183.324    472.873   7060.249    474.072    472.873    472.873
117.370   7086.000   7140.796    -54.796    473.129   7139.434    474.366    473.129    473.129
117.470   7122.690   7148.123    -25.432    473.393   7146.830    474.668    473.393    473.393
117.570   6845.000   7083.662   -238.662    473.665   7082.438    474.975    473.665    473.665
117.670   6946.781   6950.674     -3.893    473.944   6949.516    475.288    473.944    473.944
117.770   6598.000   6755.253   -157.253    474.232   6754.153    475.604    474.232    474.232
117.870   6684.588   6505.610    178.978    474.528   6504.561    475.924    474.528    474.528
117.970   6028.000   6211.250   -183.250    474.832   6210.242    476.245    474.832    474.832
118.070   5845.000   5882.199    -37.199    475.144   5881.224    476.566    475.144    475.144
118.170   5472.000   5528.524    -56.524    475.465   5527.577    476.887    475.465    475.465
118.270   4989.000   5159.639   -170.639    475.794   5158.714    477.208    475.794    475.794
118.370   4741.000   4784.193    -43.193    476.131   4783.288    477.527    476.131    476.131
118.470   4382.000   4409.869    -27.869    476.478   4408.981    477.846    476.478    476.478
118.570   3988.000   4043.274    -55.274    476.832   4042.402    478.164    476.832    476.832
118.670   3759.000   3689.900     69.100    477.196   3689.045    478.483    477.196    477.196
118.770   3465.000   3354.119    110.881    477.568   3353.282    478.805    477.568    477.568
118.870   3060.000   3039.214     20.786    477.950   3038.396    479.131    477.950    477.950
118.970   2773.000   2747.446     25.554    478.340   2746.648    479.462    478.340    478.340
119.070   2417.000   2480.142    -63.142    478.739   2479.366    479.800    478.739    478.739
119.170   2175.000   2237.812    -62.812    479.147   2237.058    480.146    479.147    479.147
119.270   2036.195   2020.267     15.928    479.565   2019.537    480.503    479.565    479.565
119.370   1918.612   1826.752     91.860    479.992   1826.045    480.871    479.992    479.992
119.470   1691.000   1656.066     34.934    480.428   1655.383    481.251    480.428    480.428
119.570   1492.000   1506.684    -14.684    480.874   1506.025    481.645    480.874    480.874
119.670   1389.000   1376.863     12.137    481.329   1376.226    482.053    481.329    481.329
119.770   1240.869   1264.737    -23.868    481.793   1264.120    482.476    481.793    481.793
119.870   1149.290   1168.404    -19.114    482.268   1167.806    482.915    482.268    482.268
119.970   1104.713   1085.996     18.717    482.752   1085.414    483.369    482.752    482.752
120.070   1069.000   1015.732     53.268    483.246   1015.161    483.840    483.246    483.246
120.170    955.133    955.957     -0.824    483.750    955.395    484.327    483.750    483.750
120.270    903.000    905.173     -2.173    484.263    904.614    484.831    484.263    484.263
120.370    844.058    862.044    -17.986    484.787    861.485    485.351    484.787    484.787
120.470    799.775    825.407    -25.632    485.321    824.843    485.887    485.321    485.321
120.570    823.503    794.260     29.243    485.866    793.686    486.440    485.866    485.866
120.670    784.065    767.754     16.310    486.420    767.165    487.009    486.420    486.420
120.770    727.000    745.178    -18.178    486.985    744.569    487.594    486.985    486.985
120.870    765.000    725.941     39.059    487.560    725.307    488.195    487.560    487.560
120.970    737.000    709.556     27.444    488.146    708.893    488.811    488.146    488.146
121.070    672.000    695.626    -23.626    488.743    694.927    489.444    488.743    488.743
121.170    637.329    683.824    -46.495    489.351    683.086    490.092    489.351    489.351
121.270    626.468    673.887    -47.419    489.969    673.104    490.756    489.969    489.969
121.370    632.000    665.596    -33.596    490.598    664.764    491.435    490.598    490.598
121.470    621.750    658.775    -37.025    491.238    657.889    492.130    491.238    491.238
121.570    613.655    653.277    -39.622    491.889    652.332    492.842    491.889    491.889
121.670    622.000    648.977    -26.977    492.551    647.968    493.570    492.551    492.551
121.770    648.000    645.771      2.229    493.225    644.692    494.314    493.225    493.225
121.870    633.000    643.567    -10.567    493.910    642.413    495.076    493.910    493.910
121.970    622.000    642.282    -20.282    494.606    641.046    495.855    494.606    494.606
122.070    686.764    641.840     44.924    495.314    640.516    496.652    495.314    495.314
122.170    649.000    642.168      6.832    496.033    640.749    497.468    496.033    496.033
122.270    605.000    643.192    -38.192    496.764    641.672    498.303    496.764    496.764
122.370    649.000    644.840      4.160    497.507    643.211    499.156    497.507    497.507
122.470    589.000    647.034    -58.034    498.262    645.290    500.028    498.262    498.262
122.570    618.000    649.693    -31.693    499.028    647.828    500.919    499.028    499.028
122.670    607.258    652.730    -45.472    499.807    650.739    501.827    499.807    499.807
122.770    634.000    656.053    -22.053    500.598    653.930    502.752    500.598    500.598
122.870    702.844    659.561     43.283    501.401    657.303    503.692    501.401    501.401
122.970    611.847    663.147    -51.299    502.216    660.754    504.646    502.216    502.216
123.070    695.000    666.699     28.301    503.044    664.170    505.612    503.044    503.044
123.170    668.000    670.100     -2.100    503.884    667.438    506.588    503.884    503.884
123.270    625.470    673.230    -47.759    504.737    670.440    507.572    504.737    504.737
123.370    666.000    675.970     -9.970    505.602    673.060    508.560    505.602    505.602
123.470    702.000    678.209     23.791    506.480    675.188    509.552    506.480    506.480
123.570    694.000    679.847     14.153    507.371    676.728    510.543    507.371    507.371
123.670    668.000    680.803    -12.803    508.275    677.601    511.533    508.275    508.275
123.770    718.000    681.021     36.979    509.192    677.752    512.518    509.192    509.192
123.870    645.292    680.472    -35.180    510.122    677.153    513.499    510.122    510.122
123.970    633.619    679.156    -45.537    511.066    675.807    514.473    511.066    511.066
124.070    724.598    677.100     47.498    512.022    673.740    515.441    512.022    512.022
124.170    635.000    674.355    -39.355    512.993    671.004    516.402    512.993    512.993
124.270    708.000    670.989     37.011    513.976    667.665    517.357    513.976    513.976
124.370    672.000    667.079      4.921    514.974    663.802    518.306    514.974    514.974
124.470    612.000    662.713    -50.713    515.984    659.501    519.250    515.984    515.984
124.570    689.801    657.979     31.822    517.009    654.849    520.190    517.009    517.009
124.670    654.000    652.965      1.035    518.048    649.932    521.129    518.048    518.048
124.770    678.000    647.757     30.243    519.101    644.836    522.067    519.101    519.101
124.870    657.000    642.438     14.562    520.167    639.640    523.008    520.167    520.167
124.970    676.000    637.086     38.914    521.248    634.422    523.952    521.248    521.248
