neutron_powder_diffraction_0058
R_wp: 4.003
Temperature (K): 686.642
Counts: 83307.00
Wavelength (Ã…): 2.52098
COMMENTS
Test file for demonstrating the .xyy file format in Reel1.0
END OF HEADER
   tth       Y_obs     Y_calc      Y_res    Background    Phase_1_Nuc    Phase_1_Mag    Phase_2_Nuc    Phase_2_Mag
  9.970    622.000    652.352    -30.352    651.170    652.040    651.482    651.170    651.170
 10.070    685.000    652.094     32.906    650.840    651.779    651.155    650.840    650.840
 10.170    729.000    651.843     77.157    650.506    651.524    650.825    650.506    650.506
 10.270    615.340    651.601    -36.261    650.170    651.279    650.492    650.170    650.170
 10.370    680.810    651.370     29.440    649.831    651.044    650.156    649.831    649.831
 10.470    614.000    651.153    -37.153    649.490    650.823    649.818    649.490    649.490
 10.570    669.000    650.954     18.046    649.145    650.621    649.478    649.145    649.145
 10.670    635.000    650.779    -15.779    648.798    650.443    649.134    648.798    648.798
 10.770    686.000    650.635     35.365    648.449    650.294    648.788    648.449    648.449
 10.870    696.791    650.529     46.262    648.096    650.185    648.440    648.096    648.096
 10.970    693.000    650.476     42.524    647.742    650.127    648.089    647.742    647.742
 11.070    682.000    650.492     31.508    647.384    650.139    647.736    647.384    647.384
 11.170    618.959    650.602    -31.643    647.024    650.245    647.380    647.024    647.024
 11.270    697.000    650.843     46.157    646.662    650.482    647.022    646.662    646.662
 11.370    663.000    651.274     11.726    646.298    650.908    646.661    646.298    646.298
 11.470    604.463    652.004    -47.541    645.931    651.633    646.299    645.931    645.931
 11.570    623.352    653.290    -29.938    645.562    652.914    645.934    645.562    645.562
 11.670    680.000    655.791     24.209    645.190    655.409    645.567    645.190    645.190
 11.770    607.512    661.063    -53.550    644.817    660.673    645.197    644.817    644.817
 11.870    714.000    671.977     42.023    644.441    671.577    644.826    644.441    644.441
 11.970    695.737    692.057      3.680    644.063    691.641    644.452    644.063    644.063
 12.070    757.928    722.624     35.304    643.682    722.187    644.077    643.682    643.682
 12.170    772.020    757.613     14.407    643.300    757.152    643.699    643.300    643.300
 12.270    828.000    780.229     47.771    642.916    779.750    643.320    642.916    642.916
 12.370    742.703    774.241    -31.537    642.530    773.760    642.939    642.530    642.530
 12.470    762.000    744.439     17.561    642.141    743.970    642.556    642.141    642.141
 12.570    716.943    709.254      7.688    641.751    708.799    642.171    641.751    641.751
 12.670    643.000    681.526    -38.526    641.359    681.080    641.784    641.359    641.359
 12.770    702.130    664.183     37.947    640.965    663.741    641.395    640.965    640.965
 12.870    631.000    654.786    -23.786    640.569    654.343    641.005    640.569    640.569
 12.970    681.999    649.904     32.095    640.172    649.459    640.613    640.172    640.172
 13.070    620.000    647.149    -27.149    639.772    646.699    640.219    639.772    639.772
 13.170    642.153    645.330     -3.176    639.371    644.875    639.823    639.371    639.371
 13.270    587.000    643.960    -56.960    638.969    643.499    639.427    638.969    638.969
 13.370    628.747    642.846    -14.099    638.564    642.380    639.028    638.564    638.564
 13.470    597.750    641.900    -44.150    638.158    641.428    638.628    638.158    638.158
 13.570    656.110    641.072     15.038    637.751    640.594    638.227    637.751    637.751
 13.670    595.000    640.330    -45.330    637.341    639.846    637.824    637.341    637.341
 13.770    646.000    639.651      6.349    636.931    639.161    637.420    636.931    636.931
 13.870    641.000    639.022      1.978    636.519    638.525    637.014    636.519    636.519
 13.970    628.158    638.429    -10.271    636.105    637.926    636.607    636.105    636.105
 14.070    639.150    637.866      1.284    635.690    637.356    636.199    635.690    635.690
 14.170    633.000    637.325     -4.325    635.274    636.809    635.789    635.274    635.274
 14.270    629.000    636.803     -7.803    634.856    636.280    635.379    634.856    634.856
 14.370    598.000    636.296    -38.296    634.437    635.765    634.967    634.437    634.437
 14.470    618.000    635.805    -17.805    634.016    635.267    634.554    634.016    634.016
 14.570    593.000    635.321    -42.321    633.595    634.775    634.140    633.595    633.595
 14.670    639.129    634.844      4.286    633.172    634.290    633.725    633.172    633.172
 14.770    645.000    634.373     10.627    632.748    633.812    633.309    632.748    632.748
 14.870    624.000    633.908     -9.908    632.323    633.338    632.892    632.323    632.323
 14.970    674.597    633.448     41.149    631.896    632.870    632.474    631.896    631.896
 15.070    626.000    632.998     -6.998    631.469    632.412    632.055    631.469    631.469
 15.170    558.000    632.567    -74.567    631.040    631.972    631.635    631.040    631.040
 15.270    607.000    632.119    -25.119    630.611    631.515    631.215    630.611    630.611
 15.370    607.778    631.671    -23.894    630.180    631.058    630.793    630.180    630.180
 15.470    581.000    631.226    -50.226    629.749    630.604    630.371    629.749    629.749
 15.570    676.848    630.782     46.066    629.316    630.150    629.948    629.316    629.316
 15.670    585.445    630.339    -44.894    628.883    629.698    629.524    628.883    628.883
 15.770    612.000    629.898    -17.898    628.449    629.247    629.100    628.449    628.449
 15.870    632.108    629.458      2.650    628.014    628.797    628.675    628.014    628.014
 15.970    613.000    629.019    -16.019    627.578    628.348    628.249    627.578    627.578
 16.070    636.000    628.581      7.419    627.141    627.899    627.823    627.141    627.141
 16.170    661.053    628.147     32.906    626.704    627.454    627.397    626.704    626.704
 16.270    594.000    627.715    -33.715    626.266    627.011    626.970    626.266    626.266
 16.370    583.291    627.280    -43.989    625.827    626.564    626.542    625.827    625.827
 16.470    645.000    626.845     18.155    625.387    626.117    626.115    625.387    625.387
 16.570    631.000    626.410      4.590    624.947    625.670    625.686    624.947    624.947
 16.670    606.000    625.976    -19.976    624.506    625.224    625.258    624.506    624.506
 16.770    588.000    625.542    -37.542    624.065    624.778    624.829    624.065    624.065
 16.870    623.356    625.109     -1.752    623.623    624.332    624.400    623.623    623.623
 16.970    545.000    624.681    -79.681    623.180    623.891    623.970    623.180    623.180
 17.070    630.000    624.302      5.698    622.737    623.498    623.541    622.737    622.737
 17.170    673.000    623.895     49.105    622.294    623.077    623.112    622.294    622.294
 17.270    614.000    623.467     -9.467    621.850    622.634    622.682    621.850    621.850
 17.370    583.347    623.044    -39.697    621.405    622.195    622.253    621.405    621.405
 17.470    551.000    622.682    -71.682    620.960    621.809    621.833    620.960    620.960
 17.570    584.000    622.263    -38.263    620.515    621.374    621.404    620.515    620.515
 17.670    593.637    621.835    -28.198    620.070    620.930    620.975    620.070    620.070
 17.770    617.000    621.408     -4.408    619.624    620.486    620.545    619.624    619.624
 17.870    669.513    620.980     48.532    619.178    620.042    620.116    619.178    619.178
 17.970    611.000    620.554     -9.554    618.731    619.598    619.687    618.731    618.731
 18.070    603.000    620.128    -17.128    618.285    619.155    619.258    618.285    618.285
 18.170    620.000    619.703      0.297    617.838    618.711    618.829    617.838    617.838
 18.270    600.464    619.278    -18.814    617.391    618.268    618.401    617.391    617.391
 18.370    610.000    618.856     -8.856    616.943    617.826    617.973    616.943    616.943
 18.470    627.865    618.446      9.419    616.496    617.396    617.546    616.496    616.496
 18.570    606.671    618.025    -11.354    616.049    616.955    617.119    616.049    616.049
 18.670    624.967    617.604      7.363    615.601    616.513    616.693    615.601    615.601
 18.770    641.000    617.185     23.815    615.153    616.071    616.267    615.153    615.153
 18.870    588.907    616.766    -27.859    614.706    615.630    615.842    614.706    614.706
 18.970    596.000    616.349    -20.349    614.258    615.190    615.417    614.258    614.258
 19.070    655.512    615.943     39.569    613.810    614.760    614.993    613.810    613.810
 19.170    577.000    615.548    -38.548    613.362    614.340    614.570    613.362    613.362
 19.270    609.000    615.146     -6.146    612.915    613.913    614.148    612.915    612.915
 19.370    528.000    614.734    -86.734    612.467    613.475    613.727    612.467    612.467
 19.470    616.501    614.324      2.176    612.020    613.037    613.307    612.020    612.020
 19.570    592.000    613.932    -21.932    611.572    612.616    612.888    611.572    611.572
 19.670    630.000    613.563     16.437    611.125    612.217    612.471    611.125    611.125
 19.770    641.000    613.167     27.833    610.678    611.791    612.054    610.678    610.678
 19.870    577.000    612.764    -35.764    610.231    611.357    611.639    610.231    610.231
 19.970    603.000    612.371     -9.371    609.785    610.927    611.228    609.785    609.785
 20.070    580.000    611.978    -31.978    609.338    610.501    610.815    609.338    609.338
 20.170    595.842    611.586    -15.745    608.892    610.075    610.404    608.892    608.892
 20.270    652.000    611.190     40.810    608.446    609.643    609.993    608.446    608.446
 20.370    622.246    610.800     11.446    608.001    609.216    609.585    608.001    608.001
 20.470    592.000    610.456    -18.456    607.555    608.833    609.178    607.555    607.555
 20.570    591.648    610.115    -18.467    607.110    608.452    608.773    607.110    607.110
 20.670    598.000    609.750    -11.750    606.666    608.046    608.370    606.666    606.666
 20.770    600.000    609.369     -9.369    606.222    607.623    607.968    606.222    606.222
 20.870    610.000    608.989      1.011    605.778    607.198    607.569    605.778    605.778
 20.970    645.906    608.616     37.289    605.335    606.778    607.173    605.335    605.335
 21.070    657.008    608.248     48.760    604.892    606.360    606.779    604.892    604.892
 21.170    598.000    607.884     -9.884    604.449    605.947    606.387    604.449    604.449
 21.270    619.000    607.559     11.441    604.008    605.570    605.997    604.008    604.008
 21.370    620.707    607.204     13.503    603.566    605.161    605.610    603.566    603.566
 21.470    630.591    606.849     23.742    603.125    604.749    605.225    603.125    603.125
 21.570    577.504    606.497    -28.994    602.685    604.339    604.844    602.685    602.685
 21.670    608.000    606.150      1.850    602.245    603.930    604.465    602.245    602.245
 21.770    627.000    605.810     21.190    601.806    603.525    604.090    601.806    601.806
 21.870    581.000    605.481    -24.481    601.367    603.128    603.720    601.367    601.367
 21.970    566.000    605.152    -39.152    600.929    602.730    603.352    600.929    600.929
 22.070    618.000    604.830     13.170    600.492    602.334    602.988    600.492    600.492
 22.170    652.000    604.514     47.486    600.055    601.942    602.628    600.055    600.055
 22.270    615.004    604.208     10.796    599.619    601.556    602.272    599.619    599.619
 22.370    592.000    603.909    -11.909    599.184    601.173    601.920    599.184    599.184
 22.470    575.000    603.618    -28.618    598.750    600.794    601.573    598.750    598.750
 22.570    581.325    603.337    -22.012    598.316    600.421    601.232    598.316    598.316
 22.670    603.000    603.067     -0.067    597.883    600.055    600.896    597.883    597.883
 22.770    598.000    602.813     -4.813    597.451    599.698    600.566    597.451    597.451
 22.870    603.000    602.571      0.429    597.019    599.349    600.241    597.019    597.019
 22.970    596.000    602.345     -6.345    596.588    599.010    599.924    596.588    596.588
 23.070    589.000    602.137    -13.137    596.159    598.683    599.613    596.159    596.159
 23.170    619.000    601.951     17.049    595.729    598.371    599.309    595.729    595.729
 23.270    585.311    601.790    -16.478    595.301    598.078    599.014    595.301    595.301
 23.370    587.000    601.659    -14.659    594.874    597.806    598.728    594.874    594.874
 23.470    621.000    601.564     19.436    594.448    597.562    598.450    594.448    594.448
 23.570    614.000    601.512     12.488    594.022    597.353    598.182    594.022    594.022
 23.670    645.000    601.515     43.485    593.598    597.189    597.925    593.598    593.598
 23.770    575.000    601.587    -26.587    593.174    597.083    597.679    593.174    593.174
 23.870    572.000    601.749    -29.749    592.751    597.056    597.445    592.751    592.751
 23.970    655.000    602.032     52.968    592.330    597.138    597.225    592.330    592.330
 24.070    614.000    602.487     11.513    591.909    597.379    597.019    591.909    591.909
 24.170    617.000    603.220     13.780    591.489    597.883    596.829    591.489    591.489
 24.270    645.000    604.487     40.513    591.071    598.906    596.655    591.071    591.071
 24.370    604.000    606.921     -2.921    590.653    601.079    596.501    590.653    590.653
 24.470    642.000    611.855     30.145    590.236    605.735    596.366    590.236    590.236
 24.570    624.000    621.394      2.606    589.821    614.977    596.254    589.821    589.821
 24.670    615.992    637.509    -21.516    589.407    630.777    596.166    589.407    589.407
 24.770    708.000    659.746     48.254    588.993    652.678    596.106    588.993    588.993
 24.870    776.000    682.106     93.894    588.581    674.674    596.075    588.581    588.581
 24.970    738.000    692.158     45.842    588.170    684.319    596.077    588.170    588.170
 25.070    728.840    681.792     47.049    587.760    673.496    596.116    587.760    587.760
 25.170    648.000    659.450    -11.450    587.351    650.649    596.196    587.351    587.351
 25.270    656.000    637.547     18.453    586.944    628.194    596.325    586.944    586.944
 25.370    619.000    621.882     -2.882    586.537    611.932    596.503    586.537    586.537
 25.470    616.786    612.806      3.981    586.132    602.207    596.739    586.132    586.132
 25.570    666.000    608.320     57.680    585.728    597.012    597.042    585.728    585.728
 25.670    625.473    606.344     19.129    585.325    594.254    597.419    585.325    585.325
 25.770    681.000    605.583     75.417    584.923    592.626    597.883    584.923    584.923
 25.870    654.484    605.436     49.048    584.523    591.515    598.445    584.523    584.523
 25.970    651.000    605.675     45.325    584.124    590.678    599.123    584.124    584.124
 26.070    620.000    606.223     13.777    583.726    590.016    599.934    583.726    583.726
 26.170    642.000    607.055     34.945    583.330    589.483    600.903    583.330    583.330
 26.270    616.000    608.170      7.830    582.935    589.052    602.052    582.935    582.935
 26.370    587.504    609.589    -22.085    582.541    588.709    603.420    582.541    582.541
 26.470    603.000    611.348     -8.348    582.148    588.448    605.048    582.148    582.148
 26.570    649.742    613.501     36.241    581.757    588.265    606.991    581.757    581.757
 26.670    619.821    616.117      3.704    581.367    588.165    609.318    581.367    581.367
 26.770    583.000    619.296    -36.296    580.978    588.154    612.119    580.978    580.978
 26.870    654.000    623.165     30.835    580.591    588.244    615.510    580.591    580.591
 26.970    689.000    627.900     61.100    580.206    588.456    619.647    580.206    580.206
 27.070    623.000    633.740    -10.740    579.821    588.815    624.744    579.821    579.821
 27.170    641.000    641.018     -0.018    579.438    589.361    631.091    579.438    579.438
 27.270    679.836    650.203     29.633    579.057    590.149    639.105    579.057    579.057
 27.370    653.000    661.994     -8.994    578.677    591.264    649.400    578.677    578.677
 27.470    727.000    677.527     49.473    578.298    592.841    662.975    578.298    578.298
 27.570    764.000    699.062     64.938    577.921    595.151    681.821    577.921    577.921
 27.670    683.155    732.214    -49.058    577.545    598.859    710.884    577.545    577.545
 27.770    809.695    791.875     17.820    577.171    605.731    763.288    577.171    577.171
 27.870    909.050    912.760     -3.710    576.798    619.874    869.633    576.798    576.798
 27.970   1034.000   1156.709   -122.709    576.426    648.601   1084.434    576.426    576.426
 28.070   1462.000   1594.317   -132.317    576.057    700.270   1469.925    576.057    576.057
 28.170   2150.000   2240.596    -90.596    575.688    776.687   2039.327    575.688    575.688
 28.270   3040.681   2960.033     80.648    575.322    861.925   2673.108    575.322    575.322
 28.370   3448.000   3424.373     23.627    574.956    917.392   3081.671    574.956    574.956
 28.470   3439.264   3341.682     97.583    574.593    909.009   3007.150    574.593    574.593
 28.570   2839.000   2826.262     12.738    574.230    851.074   2549.426    574.230    574.230
 28.670   2297.173   2258.660     38.513    573.870    789.785   2042.791    573.870    573.870
 28.770   1721.000   1924.548   -203.548    573.511    760.121   1737.968    573.511    573.511
 28.870   1781.000   1892.709   -111.709    573.153    770.207   1695.659    573.153    573.153
 28.970   2005.806   2051.724    -45.919    572.798    803.937   1820.589    572.798    572.798
 29.070   2283.000   2179.105    103.895    572.443    828.328   1923.266    572.443    572.443
 29.170   2125.000   2085.288     39.712    572.091    814.875   1842.611    572.091    572.091
 29.270   1905.000   1781.670    123.330    571.740    766.556   1586.987    571.740    571.740
 29.370   1491.038   1417.358     73.679    571.390    708.019   1280.846    571.390    571.390
 29.470   1111.602   1112.643     -1.041    571.042    658.958   1024.809    571.042    571.042
 29.570    917.489    906.981     10.508    570.696    625.852    851.874    570.696    570.696
 29.670    830.064    786.946     43.118    570.352    606.569    750.755    570.352    570.352
 29.770    800.000    722.017     77.983    570.009    596.188    695.851    570.009    570.009
 29.870    777.000    686.346     90.654    569.668    590.541    665.480    569.668    569.668
 29.970    706.000    664.737     41.263    569.328    587.185    646.885    569.328    569.328
 30.070    660.684    650.067     10.617    568.990    584.990    634.069    568.990    568.990
 30.170    772.000    639.367    132.633    568.654    583.512    624.510    568.654    568.654
 30.270    576.879    631.422    -54.542    568.320    582.620    617.120    568.320    568.320
 30.370    599.183    625.813    -26.630    567.987    582.395    611.403    567.987    567.987
 30.470    691.000    622.732     68.268    567.656    583.181    607.202    567.656    567.656
 30.570    649.000    623.063     25.937    567.326    585.714    604.668    567.326    567.326
 30.670    690.000    628.326     61.674    566.999    591.101    604.210    566.999    566.999
 30.770    689.000    640.024     48.976    566.673    600.412    606.261    566.673    566.673
 30.870    646.000    658.139    -12.139    566.349    613.696    610.755    566.349    566.349
 30.970    740.000    678.982     61.018    566.026    628.577    616.383    566.026    566.026
 31.070    731.000    693.800     37.200    565.705    639.336    620.115    565.705    565.705
 31.170    721.067    692.917     28.150    565.387    639.644    618.609    565.387    565.387
 31.270    719.000    675.469     43.531    565.069    628.951    611.547    565.069    565.069
 31.370    608.256    650.540    -42.284    564.754    613.247    602.019    564.754    564.754
 31.470    637.000    627.380      9.620    564.440    598.629    593.174    564.440    564.440
 31.570    637.000    610.144     26.856    564.128    587.839    586.422    564.128    564.128
 31.670    637.515    599.015     38.499    563.818    581.011    581.815    563.818    563.818
 31.770    663.000    592.401     70.599    563.510    577.106    578.800    563.510    563.510
 31.870    628.000    588.507     39.493    563.203    574.953    576.753    563.203    563.203
 31.970    586.000    586.066     -0.066    562.898    573.727    575.235    562.898    562.898
 32.070    607.000    584.391     22.609    562.596    572.981    574.003    562.596    562.596
 32.170    607.000    583.166     23.834    562.294    572.516    572.942    562.294    562.294
 32.270    594.000    582.258     11.742    561.995    572.250    572.001    561.995    561.995
 32.370    632.337    581.611     50.726    561.697    572.154    571.153    561.697    561.697
 32.470    581.261    581.202      0.059    561.402    572.218    570.384    561.402    561.402
 32.570    608.000    581.026     26.974    561.108    572.449    569.683    561.108    561.108
 32.670    599.000    581.095     17.905    560.816    572.865    569.044    560.816    560.816
 32.770    624.243    581.434     42.809    560.526    573.494    568.464    560.526    560.526
 32.870    558.736    582.087    -23.351    560.237    574.381    567.941    560.237    560.237
 32.970    533.939    583.121    -49.181    559.951    575.590    567.479    559.951    559.951
 33.070    604.962    584.637     20.326    559.666    577.218    567.082    559.666    559.666
 33.170    574.883    586.795    -11.912    559.383    579.414    566.761    559.383    559.383
 33.270    579.000    589.885    -10.885    559.102    582.444    566.539    559.102    559.102
 33.370    587.154    594.497     -7.343    558.823    586.852    566.464    558.823    558.823
 33.470    619.000    601.939     17.061    558.545    593.837    566.643    558.545    558.545
 33.570    645.000    614.971     30.029    558.270    605.925    567.308    558.270    558.270
 33.670    581.000    638.656    -57.656    557.996    627.755    568.884    557.996    557.996
 33.770    702.000    680.419     21.581    557.725    666.128    571.996    557.725    557.725
 33.870    740.000    747.835     -7.835    557.455    727.980    577.279    557.455    557.455
 33.970    868.000    843.176     24.824    557.187    815.396    584.925    557.187    557.187
 34.070    967.454    955.330     12.124    556.921    918.206    593.998    556.921    556.921
 34.170   1069.598   1051.969     17.629    556.656   1006.807    601.775    556.656    556.656
 34.270   1050.155   1085.435    -35.280    556.394   1037.558    604.244    556.394    556.394
 34.370   1052.000   1033.114     18.886    556.134    989.737    599.499    556.134    556.134
 34.470    873.000    927.308    -54.308    555.875    892.922    590.258    555.875    555.875
 34.570    788.299    815.676    -27.376    555.618    790.760    580.534    555.618    555.618
 34.670    673.000    725.506    -52.506    555.364    708.244    572.626    555.364    555.364
 34.770    632.000    663.831    -31.831    555.111    651.818    567.125    555.111    555.111
 34.870    628.000    626.363      1.637    554.860    617.553    563.669    554.860    554.860
 34.970    564.000    605.094    -41.094    554.610    598.118    561.585    554.610    554.610
 35.070    576.739    593.000    -16.261    554.363    587.081    560.281    554.363    554.363
 35.170    578.535    585.604     -7.068    554.118    580.340    559.380    554.118    554.118
 35.270    614.839    580.579     34.259    553.874    575.766    558.687    553.874    553.874
 35.370    550.000    576.856    -26.856    553.633    572.378    558.110    553.633    553.633
 35.470    545.000    573.944    -28.944    553.393    569.727    557.609    553.393    553.393
 35.570    601.294    571.596     29.698    553.155    567.587    557.164    553.155    553.155
 35.670    577.000    569.665      7.335    552.920    565.823    556.761    552.920    552.920
 35.770    565.000    568.054     -3.054    552.686    564.344    556.395    552.686    552.686
 35.870    527.000    566.693    -39.693    552.454    563.088    556.059    552.454    552.454
 35.970    584.000    565.533     18.467    552.224    562.007    555.749    552.224    552.224
 36.070    574.000    564.537      9.463    551.995    561.068    555.464    551.995    551.995
 36.170    523.154    563.677    -40.524    551.769    560.243    555.203    551.769    551.769
 36.270    578.000    562.935     15.065    551.545    559.514    554.965    551.545    551.545
 36.370    519.000    562.295    -43.295    551.322    558.865    554.752    551.322    551.322
 36.470    556.000    561.749     -5.749    551.102    558.286    554.564    551.102    551.102
 36.570    601.000    561.286     39.714    550.883    557.764    554.405    550.883    550.883
 36.670    563.000    560.912      2.088    550.666    557.299    554.279    550.666    550.666
 36.770    553.000    560.629     -7.629    550.451    556.888    554.192    550.451    550.451
 36.870    571.000    560.443     10.557    550.238    556.530    554.151    550.238    550.238
 36.970    519.924    560.371    -40.447    550.027    556.229    554.169    550.027    550.027
 37.070    581.902    560.447     21.456    549.818    556.002    554.262    549.818    549.818
 37.170    581.000    560.741     20.259    549.611    555.893    554.459    549.611    549.611
 37.270    548.000    561.403    -13.403    549.405    555.996    554.813    549.405    549.405
 37.370    550.000    562.716    -12.716    549.202    556.487    555.431    549.202    549.202
 37.470    566.000    565.170      0.830    549.001    557.624    556.547    549.001    549.001
 37.570    556.371    569.474    -13.103    548.801    559.660    558.615    548.801    548.801
 37.670    552.113    576.455    -24.342    548.603    562.659    562.399    548.603    548.603
 37.770    568.000    586.737    -18.737    548.407    566.232    568.913    548.407    548.407
 37.870    561.000    600.184    -39.184    548.214    569.326    579.071    548.214    548.214
 37.970    580.000    615.430    -35.430    548.021    570.470    592.983    548.021    548.021
 38.070    638.000    630.133      7.867    547.831    568.966    609.001    547.831    547.831
 38.170    605.858    640.849    -34.991    547.643    565.696    622.801    547.643    547.643
 38.270    624.240    642.568    -18.328    547.457    561.981    628.051    547.457    547.457
 38.370    603.000    632.779    -29.779    547.272    558.635    621.425    547.272    547.272
 38.470    603.000    615.640    -12.640    547.090    556.018    606.719    547.090    547.090
 38.570    588.000    597.549     -9.549    546.909    554.173    590.291    546.909    546.909
 38.670    557.000    582.441    -25.441    546.730    552.941    576.235    546.730    546.730
 38.770    538.000    571.560    -33.560    546.554    552.122    565.993    546.554    546.554
 38.870    558.000    564.522     -6.522    546.379    551.559    559.343    546.379    546.379
 38.970    499.000    560.270    -61.270    546.206    551.146    555.331    546.206    546.206
 39.070    547.000    557.737    -10.737    546.034    550.821    552.951    546.034    546.034
 39.170    543.000    556.150    -13.150    545.865    550.550    551.466    545.865    545.865
 39.270    533.438    555.061    -21.623    545.697    550.313    550.446    545.697    545.697
 39.370    539.469    554.243    -14.774    545.532    550.101    549.674    545.532    545.532
 39.470    572.340    553.589     18.750    545.368    549.908    549.050    545.368    545.368
 39.570    553.000    553.047     -0.047    545.206    549.731    548.523    545.206    545.206
 39.670    546.597    552.588     -5.992    545.046    549.568    548.067    545.046    545.046
 39.770    575.845    552.194     23.652    544.888    549.418    547.664    544.888    544.888
 39.870    545.000    551.852     -6.852    544.732    549.280    547.304    544.732    544.732
 39.970    598.231    551.553     46.678    544.577    549.153    546.978    544.577    544.577
 40.070    578.000    551.291     26.709    544.425    549.037    546.678    544.425    544.425
 40.170    539.000    551.060    -12.060    544.274    548.933    546.402    544.274    544.274
 40.270    498.000    550.859    -52.859    544.125    548.841    546.144    544.125    544.125
 40.370    513.354    550.684    -37.329    543.978    548.761    545.902    543.978    543.978
 40.470    555.000    550.533      4.467    543.833    548.694    545.673    543.833    543.833
 40.570    506.000    550.407    -44.407    543.690    548.641    545.457    543.690    543.690
 40.670    594.566    550.305     44.261    543.548    548.603    545.250    543.548    543.548
 40.770    537.000    550.228    -13.228    543.408    548.583    545.054    543.408    543.408
 40.870    540.000    550.177    -10.177    543.271    548.583    544.865    543.271    543.271
 40.970    530.000    550.154    -20.154    543.135    548.605    544.684    543.135    543.135
 41.070    595.862    550.163     45.699    543.000    548.653    544.511    543.000    543.000
 41.170    527.000    550.208    -23.208    542.868    548.733    544.344    542.868    542.868
 41.270    551.000    550.296      0.704    542.737    548.850    544.184    542.737    542.737
 41.370    495.000    550.433    -55.433    542.609    549.013    544.030    542.609    542.609
 41.470    477.000    550.631    -73.631    542.482    549.231    543.883    542.482    542.482
 41.570    528.000    550.905    -22.905    542.356    549.521    543.742    542.356    542.356
 41.670    538.000    551.277    -13.277    542.233    549.903    543.608    542.233    542.233
 41.770    519.794    551.781    -31.987    542.111    550.411    543.483    542.111    542.111
 41.870    583.028    552.481     30.547    541.991    551.107    543.367    541.991    541.991
 41.970    555.786    553.504      2.282    541.873    552.115    543.266    541.873    541.873
 42.070    546.000    555.109     -9.109    541.757    553.683    543.186    541.757    541.757
 42.170    626.000    557.789     68.211    541.643    556.291    543.146    541.643    541.643
 42.270    513.000    562.380    -49.380    541.530    560.746    543.171    541.530    541.530
 42.370    527.000    570.054    -43.054    541.419    568.182    543.301    541.419    541.419
 42.470    566.060    582.066    -16.006    541.310    579.815    543.577    541.310    541.310
 42.570    608.250    599.142      9.107    541.202    596.346    544.022    541.202    541.202
 42.670    571.000    620.564    -49.564    541.096    617.081    544.613    541.096    541.096
 42.770    662.000    643.131     18.869    540.992    638.924    545.245    540.992    540.992
 42.870    630.000    660.580    -30.580    540.890    655.817    545.711    540.890    540.890
 42.970    623.000    665.529    -42.529    540.790    660.615    545.767    540.790    540.790
 43.070    637.000    655.275    -18.275    540.691    650.701    545.324    540.691    540.691
 43.170    604.448    634.858    -30.410    540.594    630.953    544.548    540.594    540.594
 43.270    572.000    611.942    -39.942    540.498    608.785    543.693    540.498    540.498
 43.370    552.000    591.757    -39.757    540.405    589.259    542.930    540.405    540.405
 43.470    612.096    576.459     35.637    540.313    574.459    542.330    540.313    540.313
 43.570    563.940    566.099     -2.159    540.222    564.437    541.895    540.222    540.222
 43.670    497.000    559.648    -62.648    540.134    558.197    541.592    540.134    540.134
 43.770    568.745    555.819     12.926    540.047    554.493    541.378    540.047    540.047
 43.870    563.000    553.543      9.457    539.962    552.291    541.217    539.962    539.962
 43.970    529.000    552.119    -23.119    539.878    550.913    541.086    539.878    539.878
 44.070    494.000    551.155    -57.155    539.796    549.981    540.973    539.796    539.796
 44.170    609.000    550.456     58.544    539.716    549.302    540.871    539.716    539.716
 44.270    556.000    549.924      6.076    539.637    548.786    540.777    539.637    539.637
 44.370    500.947    549.510    -48.562    539.560    548.383    540.689    539.560    539.560
 44.470    589.058    549.186     39.871    539.485    548.067    540.606    539.485    539.485
 44.570    559.702    548.934     10.768    539.411    547.819    540.528    539.411    539.411
 44.670    558.000    548.740      9.260    539.339    547.626    540.454    539.339    539.339
 44.770    599.000    548.595     50.405    539.269    547.481    540.384    539.269    539.269
 44.870    560.000    548.493     11.507    539.200    547.375    540.318    539.200    539.200
 44.970    573.000    548.426     24.574    539.133    547.304    540.256    539.133    539.133
 45.070    567.464    548.393     19.071    539.067    547.263    540.197    539.067    539.067
 45.170    555.374    548.389      6.985    539.003    547.251    540.142    539.003    539.003
 45.270    620.000    548.414     71.586    538.941    547.265    540.090    538.941    538.941
 45.370    530.000    548.465    -18.465    538.880    547.303    540.042    538.880    538.880
 45.470    513.335    548.542    -35.207    538.821    547.365    539.997    538.821    538.821
 45.570    507.000    548.644    -41.644    538.763    547.451    539.956    538.763    538.763
 45.670    540.000    548.773     -8.773    538.707    547.561    539.919    538.707    538.707
 45.770    554.000    548.928      5.072    538.652    547.694    539.886    538.652    538.652
 45.870    552.000    549.111      2.889    538.599    547.854    539.857    538.599    538.599
 45.970    532.129    549.324    -17.194    538.548    548.039    539.832    538.548    538.548
 46.070    528.000    549.568    -21.568    538.498    548.254    539.811    538.498    538.498
 46.170    533.000    549.846    -16.846    538.449    548.500    539.795    538.449    538.449
 46.270    601.000    550.163     50.837    538.402    548.780    539.785    538.402    538.402
 46.370    547.000    550.523     -3.523    538.357    549.100    539.780    538.357    538.357
 46.470    562.000    550.932     11.068    538.313    549.463    539.781    538.313    538.313
 46.570    545.000    551.396     -6.396    538.271    549.877    539.789    538.271    538.271
 46.670    570.140    551.926     18.214    538.230    550.350    539.805    538.230    538.230
 46.770    559.950    552.535      7.415    538.190    550.895    539.829    538.190    538.190
 46.870    571.000    553.242     17.758    538.152    551.528    539.864    538.152    538.152
 46.970    565.000    554.077     10.923    538.116    552.279    539.911    538.116    538.116
 47.070    556.398    555.097      1.301    538.081    553.199    539.976    538.081    538.081
 47.170    537.919    556.409    -18.491    538.047    554.388    540.066    538.047    538.047
 47.270    574.000    558.221     15.779    538.015    556.036    540.195    538.015    538.015
 47.370    537.122    560.890    -23.768    537.984    558.477    540.391    537.984    537.984
 47.470    559.013    564.968     -5.955    537.955    562.221    540.694    537.955    537.955
 47.570    567.000    571.165     -4.165    537.927    567.926    541.154    537.927    537.927
 47.670    576.000    580.168     -4.168    537.900    576.228    541.821    537.900    537.900
 47.770    579.691    592.306    -12.615    537.875    587.433    542.721    537.875    537.875
 47.870    652.317    607.103     45.214    537.851    601.099    543.819    537.851    537.851
 47.970    590.335    622.800    -32.465    537.829    615.591    544.992    537.829    537.829
 48.070    585.530    636.018    -50.488    537.808    627.775    545.997    537.808    537.808
 48.170    693.830    642.475     51.354    537.788    633.678    546.529    537.788    537.788
 48.270    642.000    639.878      2.122    537.770    631.168    546.427    537.770    537.770
 48.370    638.000    630.200      7.800    537.753    622.076    545.833    537.753    537.753
 48.470    576.000    617.710    -41.710    537.737    610.357    545.057    537.737    537.737
 48.570    578.000    605.999    -27.999    537.723    599.337    544.361    537.723    537.723
 48.670    561.000    597.075    -36.075    537.710    590.877    543.892    537.710    537.710
 48.770    543.549    591.633    -48.084    537.698    585.614    543.706    537.698    537.698
 48.870    564.313    589.528    -25.215    537.688    583.406    543.802    537.688    537.688
 48.970    618.905    590.246     28.659    537.679    583.766    544.153    537.679    537.679
 49.070    624.631    593.277     31.354    537.671    586.206    544.737    537.671    537.671
 49.170    573.140    598.358    -25.218    537.665    590.459    545.558    537.665    537.665
 49.270    621.000    605.660     15.340    537.660    596.644    546.670    537.660    537.660
 49.370    639.519    616.079     23.441    537.656    605.505    548.222    537.656    537.656
 49.470    612.000    631.897    -19.897    537.653    618.980    550.558    537.653    537.653
 49.570    706.157    658.064     48.093    537.651    641.280    554.416    537.651    537.651
 49.670    684.000    704.042    -20.042    537.651    680.465    561.194    537.651    537.651
 49.770    792.818    785.366      7.451    537.652    749.770    573.192    537.652    537.652
 49.870    930.000    922.959      7.041    537.654    867.024    593.501    537.654    537.654
 49.970   1068.000   1137.669    -69.669    537.658   1049.997    625.206    537.658    537.658
 50.070   1461.000   1439.068     21.932    537.662   1306.856    669.723    537.662    537.662
 50.170   1769.000   1811.105    -42.105    537.668   1623.937    724.679    537.668    537.668
 50.270   2134.000   2199.829    -65.829    537.675   1955.284    782.098    537.675    537.675
 50.370   2462.000   2510.096    -48.096    537.683   2219.833    827.908    537.683    537.683
 50.470   2661.000   2630.543     30.457    537.692   2322.675    845.627    537.692    537.692
 50.570   2569.000   2507.422     61.578    537.703   2217.992    827.281    537.703    537.703
 50.670   2170.000   2196.758    -26.758    537.714   1953.545    781.107    537.714    537.714
 50.770   1813.000   1810.855      2.145    537.727   1625.103    723.651    537.727    537.727
 50.870   1483.888   1444.784     39.104    537.741   1313.770    668.896    537.741    537.741
 50.970   1115.365   1152.126    -36.760    537.756   1065.291    624.695    537.756    537.756
 51.070    892.000    948.433    -56.433    537.772    892.950    593.330    537.772    537.772
 51.170    816.000    823.305     -7.305    537.789    787.811    573.338    537.789    537.789
 51.270    705.000    754.436    -49.436    537.807    730.646    561.643    537.807    537.807
 51.370    675.501    718.598    -43.098    537.826    701.267    555.199    537.826    537.826
 51.470    711.000    697.547     13.453    537.846    683.644    551.788    537.846    537.846
 51.570    719.119    680.460     38.660    537.868    668.262    550.100    537.868    537.868
 51.670    636.000    663.721    -27.721    537.890    652.161    549.478    537.890    537.890
 51.770    650.000    647.845      2.155    537.914    636.173    549.608    537.914    537.914
 51.870    642.000    634.236      7.764    537.938    621.911    550.278    537.938    537.938
 51.970    622.000    623.716     -1.716    537.963    610.457    551.232    537.963    537.963
 52.070    613.000    616.246     -3.246    537.990    602.142    552.100    537.990    537.990
 52.170    591.773    611.144    -19.372    538.017    596.728    552.437    538.017    538.017
 52.270    619.828    607.569     12.259    538.046    593.696    551.921    538.046    538.046
 52.370    610.000    604.976      5.024    538.075    592.510    550.542    538.075    538.075
 52.470    645.892    603.456     42.437    538.105    592.827    548.736    538.105    538.105
 52.570    629.532    603.312     26.220    538.137    594.551    546.900    538.137    538.137
 52.670    574.000    605.043    -31.043    538.169    597.923    545.290    538.169    538.169
 52.770    604.000    609.517     -5.517    538.202    603.669    544.051    538.202    538.202
 52.870    643.000    618.226     24.774    538.236    613.235    543.227    538.236    538.236
 52.970    604.098    633.614    -29.517    538.271    629.079    542.806    538.271    538.271
 53.070    675.000    659.296     15.704    538.307    654.835    542.766    538.307    538.307
 53.170    695.749    699.834     -4.085    538.344    695.072    543.103    538.344    538.344
 53.270    759.000    759.775     -0.775    538.381    754.322    543.829    538.381    538.381
 53.370    882.000    841.827     40.173    538.420    835.291    544.951    538.420    538.420
 53.470    961.000    944.435     16.565    538.459    936.469    546.421    538.459    538.459
 53.570   1106.882   1059.201     47.681    538.499   1049.599    548.101    538.499    538.499
 53.670   1184.000   1168.750     15.250    538.540   1157.581    549.717    538.540    538.540
 53.770   1255.875   1247.248      8.627    538.582   1234.980    550.869    538.582    538.582
 53.870   1230.755   1269.037    -38.282    538.625   1256.530    551.162    538.625    538.625
 53.970   1202.021   1225.586    -23.566    538.668   1213.830    550.462    538.668    538.668
 54.070   1050.000   1133.141    -83.141    538.712   1122.874    549.018    538.712    538.712
 54.170    987.000   1019.525    -32.525    538.757   1011.062    547.256    538.757    538.757
 54.270    883.998    908.216    -24.218    538.803    901.514    545.534    538.803    538.803
 54.370    835.519    813.186     22.334    538.850    807.991    544.066    538.850    538.850
 54.470    745.000    740.023      4.977    538.897    735.998    542.938    538.897    538.897
 54.570    670.000    688.391    -18.391    538.945    685.203    542.143    538.945    538.945
 54.670    656.000    654.587      1.413    538.994    651.963    541.624    538.994    538.994
 54.770    629.000    633.804     -4.804    539.043    631.545    541.307    539.043    539.043
 54.870    631.994    621.663     10.331    539.094    619.635    541.124    539.094    539.094
 54.970    586.532    614.895    -28.363    539.144    613.021    541.021    539.144    539.144
 55.070    696.000    611.372     84.628    539.196    609.633    540.937    539.196    539.196
 55.170    597.000    609.953    -12.953    539.248    608.305    540.898    539.248    539.248
 55.270    660.000    610.037     49.963    539.301    608.441    540.899    539.301    539.301
 55.370    628.753    611.334     17.418    539.355    609.773    540.917    539.355    539.355
 55.470    609.964    613.764     -3.800    539.409    612.225    540.948    539.409    539.409
 55.570    656.363    617.371     38.991    539.464    615.844    540.991    539.464    539.464
 55.670    649.000    622.317     26.683    539.519    620.791    541.045    539.519    539.519
 55.770    636.000    628.934      7.066    539.575    627.398    541.111    539.575    539.575
 55.870    699.000    637.869     61.131    539.632    636.309    541.191    539.632    539.632
 55.970    674.000    650.365     23.635    539.689    648.765    541.288    539.689    539.689
 56.070    696.810    668.752     28.058    539.747    667.086    541.411    539.747    539.747
 56.170    689.000    697.125     -8.125    539.805    695.353    541.572    539.805    539.805
 56.270    732.000    742.092    -10.092    539.864    740.152    541.795    539.864    539.864
 56.370    820.208    813.166      7.041    539.924    810.962    542.111    539.924    539.924
 56.470    901.000    922.156    -21.156    539.984    919.552    542.561    539.984    539.984
 56.570   1090.000   1080.902      9.098    540.044   1077.723    543.185    540.044    540.044
 56.670   1314.000   1297.122     16.878    540.105   1293.169    544.010    540.105    540.105
 56.770   1637.715   1568.924     68.791    540.167   1564.008    545.030    540.167    540.167
 56.870   1941.000   1879.088     61.912    540.229   1873.082    546.187    540.229    540.229
 56.970   2257.000   2190.224     66.776    540.291   2183.133    547.358    540.291    540.291
 57.070   2526.548   2443.739     82.809    540.354   2435.768    548.347    540.354    540.354
 57.170   2466.722   2572.504   -105.781    540.417   2564.079    548.929    540.417    540.417
 57.270   2584.377   2534.963     49.415    540.481   2526.631    548.968    540.481    540.481
 57.370   2398.104   2344.970     53.134    540.545   2337.203    548.513    540.545    540.545
 57.470   2087.000   2060.443     26.557    540.610   2053.501    547.765    540.610    540.610
 57.570   1714.000   1746.961    -32.961    540.675   1740.881    546.953    540.675    540.675
 57.670   1384.000   1453.890    -69.890    540.741   1448.538    546.260    540.741    540.741
 57.770   1173.651   1209.328    -35.677    540.807   1204.452    545.812    540.807    540.807
 57.870    995.000   1023.337    -28.337    540.873   1018.600    545.704    540.873    540.873
 57.970    874.131    893.427    -19.296    540.939    888.388    546.041    540.939    540.939
 58.070    861.000    810.463     50.537    541.006    804.519    546.988    541.006    541.006
 58.170    778.460    763.825     14.636    541.074    756.110    548.808    541.074    541.074
 58.270    774.984    744.785     30.199    541.141    734.063    551.869    541.141    541.141
 58.370    784.000    747.835     36.165    541.209    732.452    556.586    541.209    541.209
 58.470    827.953    770.326     57.628    541.277    748.302    563.283    541.277    541.277
 58.570    811.000    811.116     -0.116    541.346    780.438    571.995    541.346    541.346
 58.670    891.000    868.850     22.150    541.415    827.977    582.252    541.415    541.415
 58.770    992.000    940.307     51.693    541.484    888.834    592.915    541.484    541.484
 58.870   1050.890   1019.188     31.703    541.553    958.534    602.165    541.553    541.553
 58.970   1077.000   1096.295    -19.295    541.623   1030.062    607.822    541.623    541.623
 59.070   1176.000   1162.262     13.738    541.693   1095.680    608.254    541.693    541.693
 59.170   1228.216   1211.056     17.160    541.763   1149.418    603.396    541.763    541.763
 59.270   1293.000   1239.991     53.009    541.833   1187.045    594.791    541.833    541.833
 59.370   1278.260   1247.272     30.988    541.904   1204.610    584.592    541.904    541.904
 59.470   1287.000   1233.102     53.898    541.974   1200.475    574.635    541.974    541.974
 59.570   1237.310   1203.640     33.670    542.045   1179.620    566.094    542.045    542.045
 59.670   1184.000   1170.713     13.287    542.116   1153.351    559.489    542.116    542.116
 59.770   1134.916   1146.576    -11.660    542.187   1133.930    554.816    542.187    542.187
 59.870   1236.000   1139.818     96.182    542.259   1130.271    551.751    542.259    542.259
 59.970   1237.000   1155.273     81.727    542.330   1147.651    549.855    542.330    542.330
 60.070   1166.240   1195.561    -29.321    542.402   1189.092    548.729    542.402    542.402
 60.170   1322.000   1260.562     61.438    542.474   1254.767    548.080    542.474    542.474
 60.270   1379.000   1344.292     34.708    542.545   1338.886    547.722    542.545    542.545
 60.370   1443.000   1432.126     10.874    542.617   1426.948    547.536    542.617    542.617
 60.470   1583.000   1501.008     81.992    542.689   1495.988    547.441    542.689    542.689
 60.570   1575.000   1525.354     49.646    542.761   1520.484    547.381    542.761    542.761
 60.670   1607.000   1489.704    117.296    542.834   1485.007    547.321    542.834    542.834
 60.770   1393.000   1398.714     -5.714    542.906   1394.202    547.259    542.906    542.906
 60.870   1342.000   1272.995     69.005    542.978   1268.646    547.216    542.978    542.978
 60.970   1189.990   1136.692     53.298    543.050   1132.450    547.220    543.050    543.050
 61.070   1064.000   1009.018     54.982    543.122   1004.791    547.304    543.122    543.122
 61.170    917.000    901.948     15.052    543.195    897.609    547.504    543.195    543.195
 61.270    835.807    820.946     14.860    543.267    816.318    547.873    543.267    543.267
 61.370    768.708    766.799      1.909    543.339    761.625    548.492    543.339    543.339
 61.470    811.000    737.889     73.111    543.411    731.784    549.490    543.411    543.411
 61.570    679.560    732.320    -52.760    543.484    724.712    551.058    543.484    543.484
 61.670    779.000    749.327     29.673    543.556    739.389    553.446    543.556    543.556
 61.770    844.000    789.582     54.418    543.628    776.205    556.939    543.628    543.628
 61.870    894.354    854.392     39.962    543.700    836.214    561.790    543.700    543.700
 61.970    923.000    944.045    -21.045    543.772    919.581    568.122    543.772    543.772
 62.070   1065.000   1055.780      9.220    543.843   1023.665    575.816    543.843    543.843
 62.170   1182.000   1181.870      0.130    543.915   1141.219    584.399    543.915    543.915
 62.270   1359.623   1308.248     51.375    543.986   1259.084    592.969    543.986    543.986
 62.370   1455.471   1414.444     41.027    544.058   1358.124    600.195    544.058    544.058
 62.470   1395.000   1477.103    -82.103    544.129   1416.516    604.553    544.129    544.129
 62.570   1479.000   1479.088     -0.088    544.200   1418.233    604.924    544.200    544.200
 62.670   1444.000   1419.419     24.581    544.271   1362.349    601.248    544.271    544.271
 62.770   1319.798   1313.943      5.856    544.342   1263.659    594.566    544.342    544.342
 62.870   1254.663   1185.850     68.813    544.413   1143.827    586.402    544.413    544.413
 62.970   1027.232   1056.004    -28.772    544.483   1022.345    578.126    544.483    544.483
 63.070    842.000    938.859    -96.859    544.553    912.716    570.690    544.553    544.553
 63.170    786.000    842.219    -56.219    544.623    822.233    564.607    544.623    544.623
 63.270    721.000    768.378    -47.378    544.693    753.035    560.033    544.693    544.693
 63.370    693.000    715.753    -22.753    544.762    703.642    556.870    544.762    544.762
 63.470    687.000    680.663      6.337    544.832    670.607    554.882    544.832    544.832
 63.570    644.605    658.892    -14.287    544.900    649.983    553.802    544.900    544.900
 63.670    652.000    646.784      5.216    544.969    638.336    553.407    544.969    544.969
 63.770    624.124    641.811    -17.687    545.038    633.277    553.559    545.038    545.038
 63.870    628.754    642.797    -14.043    545.106    633.650    554.236    545.106    545.106
 63.970    666.000    649.755     16.245    545.173    639.370    555.538    545.173    545.173
 64.070    637.466    663.759    -26.293    545.241    651.270    557.702    545.241    545.241
 64.170    717.000    686.619     30.381    545.308    670.784    561.106    545.308    545.308
 64.270    741.000    720.442     20.558    545.375    699.518    566.248    545.375    545.375
 64.370    792.932    766.999     25.934    545.441    738.687    573.687    545.441    545.441
 64.470    792.565    826.944    -34.379    545.507    788.451    583.916    545.507    545.507
 64.570    941.000    898.945     42.055    545.573    847.222    597.191    545.573    545.573
 64.670    966.601    978.850    -12.249    545.638    911.041    613.324    545.638    545.638
 64.770   1169.000   1059.095    109.905    545.703    973.176    631.485    545.703    545.703
 64.870   1146.000   1128.940     17.060    545.768   1024.501    650.063    545.768    545.768
 64.970   1171.000   1176.591     -5.591    545.832   1055.646    666.638    545.832    545.832
 65.070   1217.977   1193.240     24.737    545.896   1060.782    678.229    545.896    545.896
 65.170   1229.000   1176.552     52.448    545.959   1040.277    682.133    545.959    545.959
 65.270   1119.732   1131.322    -11.590    546.022   1000.012    677.258    546.022    546.022
 65.370   1062.000   1067.456     -5.456    546.084    948.622    664.873    546.084    546.084
 65.470   1010.000    996.232     13.768    546.146    894.540    647.818    546.146    546.146
 65.570    954.000    926.820     27.180    546.207    843.920    629.108    546.207    546.207
 65.670    841.000    864.735    -23.735    546.268    799.920    611.099    546.268    546.268
 65.770    781.000    812.055    -31.055    546.329    763.112    595.297    546.329    546.329
 65.870    778.000    768.591      9.409    546.389    732.578    582.430    546.389    546.389
 65.970    759.000    733.272     25.728    546.448    707.139    572.608    546.448    546.448
 66.070    714.604    705.012      9.591    546.507    686.021    565.522    546.507    546.507
 66.170    656.000    682.883    -26.883    546.565    668.822    560.645    546.565    546.565
 66.270    657.721    666.035     -8.313    546.623    655.267    557.403    546.623    546.623
 66.370    628.000    653.692    -25.692    546.680    645.091    555.290    546.680    546.680
 66.470    658.047    645.189     12.858    546.737    638.021    553.910    546.737    546.737
 66.570    597.000    639.984    -42.984    546.793    633.790    552.990    546.793    546.793
 66.670    658.000    637.657     20.343    546.848    632.153    552.354    546.848    546.848
 66.770    615.000    637.930    -22.930    546.903    632.937    551.897    546.903    546.903
 66.870    634.903    640.733     -5.831    546.957    636.129    551.562    546.957    546.957
 66.970    651.000    646.323      4.677    547.011    642.016    551.319    547.011    547.011
 67.070    673.470    655.462     18.008    547.064    651.371    551.155    547.064    547.064
 67.170    639.000    669.651    -30.651    547.116    665.693    551.074    547.116    547.116
 67.270    673.000    691.408    -18.408    547.168    687.487    551.089    547.168    547.168
 67.370    673.108    724.521    -51.413    547.219    720.512    551.226    547.219    547.219
 67.470    757.000    774.145    -17.145    547.269    769.886    551.524    547.269    547.269
 67.570    885.822    846.572     39.250    547.319    841.849    552.035    547.319    547.319
 67.670    931.000    948.470    -17.470    547.368    943.019    552.810    547.368    547.368
 67.770   1093.000   1085.515      7.485    547.416   1079.026    553.895    547.416    547.416
 67.870   1219.000   1260.488    -41.488    547.463   1252.633    555.312    547.463    547.463
 67.970   1439.000   1471.133    -32.133    547.510   1461.605    557.041    547.510    547.510
 68.070   1700.000   1708.133     -8.133    547.556   1696.709    559.001    547.556    547.556
 68.170   1958.000   1953.518      4.482    547.602   1940.130    561.039    547.602    547.602
 68.270   2107.000   2179.946    -72.946    547.646   2164.758    562.925    547.646    547.646
 68.370   2303.000   2352.610    -49.610    547.690   2336.080    564.363    547.690    547.690
 68.470   2365.804   2437.206    -71.403    547.733   2420.076    565.063    547.733    547.733
 68.570   2356.727   2414.125    -57.398    547.775   2397.292    564.860    547.775    547.775
 68.670   2273.000   2289.144    -16.144    547.817   2273.445    563.800    547.817    547.817
 68.770   2018.224   2089.891    -71.668    547.858   2075.922    562.118    547.858    547.858
 68.870   1838.000   1852.101    -14.101    547.897   1840.160    560.114    547.897    547.897
 68.970   1554.000   1607.832    -53.832    547.936   1597.956    558.058    547.936    547.936
 69.070   1349.601   1380.493    -30.892    547.975   1372.527    556.147    547.975    547.975
 69.170   1123.000   1184.289    -61.289    548.012   1177.965    554.501    548.012    548.012
 69.270   1027.288   1025.370      1.918    548.049   1020.374    553.171    548.049    548.049
 69.370    863.000    903.635    -40.635    548.084    899.655    552.157    548.084    548.084
 69.470    810.000    814.844     -4.844    548.119    811.610    551.419    548.119    548.119
 69.570    703.001    752.714    -49.713    548.153    750.002    550.911    548.153    548.153
 69.670    763.376    710.597     52.779    548.186    708.242    550.574    548.186    548.186
 69.770    711.723    682.597     29.126    548.218    680.481    550.357    548.218    548.218
 69.870    695.487    664.075     31.411    548.249    662.119    550.221    548.249    548.249
 69.970    665.000    651.713     13.287    548.280    649.865    550.139    548.280    548.280
 70.070    626.578    643.314    -16.736    548.309    641.539    550.091    548.309    548.309
 70.170    609.000    637.516    -28.516    548.338    635.792    550.067    548.338    548.338
 70.270    600.612    633.525    -32.913    548.365    631.834    550.059    548.365    548.365
 70.370    666.000    630.900     35.100    548.392    629.229    550.064    548.392    548.392
 70.470    646.553    629.421     17.132    548.417    627.758    550.081    548.417    548.417
 70.570    645.280    629.014     16.266    548.442    627.347    550.109    548.442    548.442
 70.670    595.000    629.729    -34.729    548.466    628.043    550.149    548.466    548.466
 70.770    649.000    631.753     17.247    548.489    630.034    550.203    548.489    548.489
 70.870    632.198    635.474     -3.276    548.510    633.701    550.277    548.510    548.510
 70.970    665.142    641.579     23.563    548.531    639.722    550.379    548.531    548.531
 71.070    638.000    651.187    -13.187    548.551    649.202    550.522    548.551    548.551
 71.170    712.976    666.004     46.972    548.569    663.827    550.727    548.569    548.569
 71.270    743.000    688.459     54.541    548.587    685.993    551.024    548.587    548.587
 71.370    765.226    721.736     43.490    548.604    718.849    551.450    548.604    548.604
 71.470    780.000    769.641     10.359    548.619    766.152    552.052    548.619    548.619
 71.570    831.000    836.188     -5.188    548.634    831.867    552.878    548.634    548.634
 71.670    864.784    924.882    -60.099    548.648    919.458    553.970    548.648    548.648
 71.770   1070.000   1037.732     32.268    548.660   1030.910    555.353    548.660    548.660
 71.870   1149.000   1174.119    -25.119    548.671   1165.611    557.021    548.671    548.671
 71.970   1302.000   1329.721    -27.721    548.682   1319.295    558.921    548.682    548.682
 72.070   1469.654   1495.630    -25.977    548.691   1483.164    560.949    548.691    548.691
 72.170   1701.359   1657.792     43.568    548.699   1643.333    562.936    548.699    548.699
 72.270   1782.000   1797.182    -15.182    548.706   1781.010    564.657    548.706    548.706
 72.370   1976.000   1892.057     83.943    548.712   1874.713    565.851    548.712    548.712
 72.470   1957.000   1923.924     33.076    548.717   1906.166    566.299    548.717    548.717
 72.570   1872.479   1885.702    -13.223    548.720   1868.367    565.916    548.720    548.720
 72.670   1802.000   1785.627     16.373    548.723   1769.444    564.801    548.723    548.723
 72.770   1643.866   1642.795      1.071    548.724   1628.263    563.182    548.724    548.724
 72.870   1480.000   1478.935      1.065    548.724   1466.292    561.317    548.724    548.724
 72.970   1298.107   1312.699    -14.593    548.723   1301.967    559.425    548.723    548.723
 73.070   1126.330   1157.673    -31.343    548.721   1148.713    557.662    548.721    548.721
 73.170   1046.000   1022.305     23.695    548.718   1014.891    556.120    548.718    548.718
 73.270    924.668    910.528     14.140    548.714    904.394    554.841    548.714    548.714
 73.370    830.000    822.673      7.327    548.708    817.553    553.824    548.708    548.708
 73.470    753.000    756.569     -3.569    548.701    752.217    553.050    548.701    548.701
 73.570    735.759    708.661     27.098    548.693    704.865    552.486    548.693    548.693
 73.670    655.433    674.973    -19.541    548.684    671.555    552.100    548.684    548.684
 73.770    644.000    651.797     -7.797    548.673    648.604    551.864    548.673    548.673
 73.870    666.000    636.068     29.932    548.662    632.969    551.759    548.662    548.662
 73.970    636.320    625.491     10.830    548.649    622.362    551.777    548.649    548.649
 74.070    633.000    618.479     14.521    548.635    615.197    551.918    548.635    548.635
 74.170    660.000    614.010     45.990    548.619    610.447    552.186    548.619    548.619
 74.270    598.000    611.456    -13.456    548.602    607.477    552.589    548.602    548.602
 74.370    633.945    610.425     23.520    548.585    605.893    553.128    548.585    548.585
 74.470    583.727    610.638    -26.911    548.565    605.422    553.797    548.565    548.565
 74.570    573.921    611.836    -37.915    548.545    605.827    554.575    548.545    548.545
 74.670    566.888    613.721    -46.833    548.523    606.850    555.421    548.523    548.523
 74.770    661.936    615.919     46.017    548.500    608.175    556.276    548.500    548.500
 74.870    641.000    617.968     23.032    548.476    609.422    557.060    548.476    548.476
 74.970    670.544    619.354     51.189    548.450    610.168    557.679    548.450    548.450
 75.070    643.263    619.618     23.644    548.423    610.035    558.051    548.423    548.423
 75.170    717.000    618.524     98.476    548.395    608.827    558.137    548.395    548.395
 75.270    666.000    616.181     49.819    548.366    606.623    557.965    548.366    548.366
 75.370    672.000    613.014     58.986    548.335    603.759    557.627    548.335    548.335
 75.470    625.451    609.624     15.828    548.303    600.706    557.251    548.303    548.303
 75.570    663.000    606.664     56.336    548.269    597.977    556.981    548.269    548.269
 75.670    676.000    604.781     71.219    548.234    596.072    556.961    548.234    548.234
 75.770    623.000    604.609     18.391    548.198    595.476    557.343    548.198    548.198
 75.870    574.465    606.779    -32.314    548.161    596.662    558.281    548.161    548.161
 75.970    565.999    611.904    -45.904    548.122    600.087    559.934    548.122    548.122
 76.070    634.000    620.550     13.450    548.082    606.169    562.451    548.082    548.082
 76.170    654.000    633.165     20.835    548.040    615.233    565.953    548.040    548.040
 76.270    655.000    649.978      5.022    547.997    627.441    570.506    547.997    547.997
 76.370    701.000    670.891     30.109    547.953    642.715    576.091    547.953    547.953
 76.470    650.759    695.329    -44.570    547.907    660.623    582.566    547.907    547.907
 76.570    707.000    722.154    -15.154    547.860    680.317    589.641    547.860    547.860
 76.670    730.655    749.577    -18.923    547.811    700.468    596.857    547.811    547.811
 76.770    799.164    775.140     24.024    547.762    719.254    603.579    547.762    547.762
 76.870    812.000    795.847     16.153    547.710    734.454    609.031    547.710    547.710
 76.970    860.000    808.626     51.374    547.658    743.793    612.420    547.658    547.658
 77.070    792.000    811.199    -19.199    547.603    745.582    613.154    547.603    547.603
 77.170    818.000    802.996     15.004    547.548    739.398    611.087    547.548    547.548
 77.270    821.000    785.434     35.566    547.491    726.288    606.586    547.491    547.491
 77.370    784.000    761.273     22.727    547.433    708.294    600.369    547.433    547.433
 77.470    758.000    733.627     24.373    547.373    687.722    593.244    547.373    547.373
 77.570    737.261    705.249     32.012    547.312    666.609    585.925    547.312    547.312
 77.670    676.069    678.245     -2.176    547.249    646.514    578.960    547.249    547.249
 77.770    638.000    654.030    -16.030    547.185    628.484    572.716    547.185    547.185
 77.870    609.000    633.386    -24.386    547.119    613.097    567.396    547.119    547.119
 77.970    591.000    616.559    -25.559    547.052    600.537    563.066    547.052    547.052
 78.070    563.574    603.389    -39.815    546.984    590.682    559.684    546.984    546.984
 78.170    639.850    593.448     46.402    546.914    583.217    557.140    546.914    546.914
 78.270    614.000    586.175     27.825    546.842    577.726    555.288    546.842    546.842
 78.370    543.578    580.989    -37.411    546.770    573.777    553.979    546.770    546.770
 78.470    596.441    577.358     19.082    546.695    570.976    553.075    546.695    546.695
 78.570    526.308    574.845    -48.537    546.620    568.999    552.463    546.620    546.620
 78.670    573.000    573.115     -0.115    546.542    567.597    552.059    546.542    546.542
 78.770    538.000    571.930    -33.930    546.464    566.592    551.799    546.464    546.464
 78.870    617.127    571.130     45.997    546.383    565.867    551.645    546.383    546.383
 78.970    603.049    570.618     32.431    546.302    565.347    551.571    546.302    546.302
 79.070    554.000    570.340    -16.340    546.218    564.991    551.566    546.218    546.218
 79.170    570.414    570.274      0.140    546.134    564.782    551.624    546.134    546.134
 79.270    555.571    570.423    -14.851    546.048    564.719    551.750    546.048    546.048
 79.370    569.000    570.808     -1.808    545.960    564.812    551.954    545.960    545.960
 79.470    569.000    571.471     -2.471    545.871    565.086    552.254    545.871    545.871
 79.570    525.000    572.474    -47.474    545.780    565.570    552.681    545.780    545.780
 79.670    597.000    573.905     23.095    545.688    566.307    553.283    545.688    545.688
 79.770    565.000    575.887    -10.887    545.594    567.345    554.133    545.594    545.594
 79.870    564.000    578.587    -14.587    545.499    568.745    555.337    545.499    545.499
 79.970    614.834    582.236     32.597    545.402    570.583    557.050    545.402    545.402
 80.070    541.994    587.141    -45.147    545.304    572.954    559.484    545.304    545.304
 80.170    579.000    593.697    -14.697    545.204    575.977    562.915    545.204    545.204
 80.270    547.000    602.389    -55.389    545.103    579.798    567.684    545.103    545.103
 80.370    611.000    613.779     -2.779    545.000    584.592    574.175    545.000    545.000
 80.470    642.000    628.462     13.538    544.896    590.557    582.786    544.896    544.896
 80.570    565.000    647.014    -82.014    544.790    597.915    593.873    544.790    544.790
 80.670    681.000    669.918     11.082    544.682    606.906    607.677    544.682    544.682
 80.770    751.809    697.454     54.355    544.574    617.766    624.245    544.574    544.574
 80.870    680.335    729.563    -49.228    544.463    630.673    643.338    544.463    544.463
 80.970    750.000    765.685    -15.685    544.351    645.666    664.357    544.351    544.351
 81.070    764.000    804.625    -40.625    544.238    662.564    686.289    544.238    544.238
 81.170    836.606    844.490     -7.884    544.123    680.908    707.701    544.123    544.123
 81.270    943.245    882.763     60.482    544.006    699.948    726.826    544.006    544.006
 81.370    908.000    916.593     -8.593    543.888    718.710    741.786    543.888    543.888
 81.470    957.000    943.312     13.688    543.768    736.131    750.975    543.768    543.768
 81.570    960.000    960.968     -0.968    543.647    751.225    753.427    543.647    543.647
 81.670   1014.613    968.614     45.999    543.524    763.188    748.997    543.524    543.524
 81.770   1004.000    966.283     37.717    543.400    771.454    738.286    543.400    543.400
 81.870    995.908    954.862     41.046    543.274    775.732    722.470    543.274    543.274
 81.970    919.463    935.899    -16.437    543.147    776.000    703.118    543.147    543.147
 82.070    915.000    911.272      3.728    543.018    772.407    681.959    543.018    543.018
 82.170    912.000    882.830     29.170    542.887    765.187    660.610    542.887    542.887
 82.270    854.460    852.222      2.238    542.755    754.685    640.372    542.755    542.755
 82.370    792.000    820.906    -28.906    542.622    741.463    622.143    542.622    542.622
 82.470    809.725    790.163     19.561    542.487    726.309    606.416    542.487    542.487
 82.570    723.000    760.998    -37.998    542.350    710.080    593.339    542.350    542.350
 82.670    768.000    734.025     33.975    542.212    693.509    582.794    542.212    542.212
 82.770    699.000    709.493    -10.493    542.072    677.132    574.493    542.072    542.072
 82.870    693.000    687.422      5.578    541.931    661.339    568.068    541.931    541.931
 82.970    666.000    667.783     -1.783    541.788    646.474    563.144    541.788    541.788
 83.070    597.000    650.584    -53.584    541.644    632.881    559.387    541.644    541.644
 83.170    620.000    635.877    -15.877    541.498    620.880    556.527    541.498    541.498
 83.270    578.000    623.709    -45.709    541.350    610.729    554.355    541.350    541.350
 83.370    598.000    614.093    -16.093    541.201    602.591    552.721    541.201    541.201
 83.470    566.855    606.985    -40.130    541.051    596.528    551.518    541.051    541.051
 83.570    572.000    602.242    -30.242    540.899    592.477    550.666    540.899    540.899
 83.670    559.535    599.825    -40.290    540.745    590.434    550.131    540.745    540.745
 83.770    571.561    599.455    -27.893    540.590    590.172    549.860    540.590    540.590
 83.870    596.000    600.816     -4.816    540.433    591.421    549.808    540.433    540.433
 83.970    567.000    603.514    -36.514    540.275    593.837    549.925    540.275    540.275
 84.070    564.000    607.076    -43.076    540.115    597.007    550.152    540.115    540.115
 84.170    585.000    610.945    -25.945    539.954    600.441    550.419    539.954    539.954
 84.270    594.000    614.504    -20.504    539.791    603.604    550.649    539.791    539.791
 84.370    589.599    617.129    -27.529    539.627    605.947    550.763    539.627    539.627
 84.470    586.286    618.270    -31.984    539.461    606.995    550.690    539.461    539.461
 84.570    595.000    617.581    -22.581    539.293    606.444    550.387    539.293    539.293
 84.670    569.997    615.006    -45.009    539.124    604.241    549.847    539.124    539.124
 84.770    583.000    610.781    -27.781    538.954    600.592    549.105    538.954    538.954
 84.870    606.445    605.343      1.102    538.782    595.872    548.219    538.782    538.782
 84.970    622.783    599.201     23.581    538.609    590.518    547.263    538.609    538.609
 85.070    596.000    592.841      3.159    538.434    584.945    546.305    538.434    538.434
 85.170    634.794    586.673     48.121    538.257    579.498    545.412    538.257    538.257
 85.270    590.000    581.016      8.984    538.079    574.439    544.639    538.079    538.079
 85.370    529.032    576.094    -47.062    537.900    569.945    544.035    537.900    537.900
 85.470    560.000    572.047    -12.047    537.719    566.113    543.641    537.719    537.719
 85.570    530.000    568.941    -38.941    537.536    562.972    543.494    537.536    537.536
 85.670    530.919    566.784    -35.865    537.352    560.501    543.625    537.352    537.352
 85.770    589.169    565.547     23.622    537.167    558.645    544.060    537.167    537.167
 85.870    577.000    565.177     11.823    536.980    557.332    544.815    536.980    536.980
 85.970    539.218    565.610    -26.392    536.791    556.494    545.898    536.791    536.791
 86.070    558.000    566.780     -8.780    536.601    556.073    547.297    536.601    536.601
 86.170    565.000    568.623     -3.623    536.410    556.037    548.983    536.410    536.410
 86.270    592.265    571.077     21.187    536.217    556.382    550.897    536.217    536.217
 86.370    584.000    574.085      9.915    536.023    557.138    552.953    536.023    536.023
 86.470    565.000    577.590    -12.590    535.827    558.366    555.031    535.827    535.827
 86.570    592.000    581.537     10.463    535.630    560.162    556.981    535.630    535.630
 86.670    564.000    585.874    -21.874    535.431    562.649    558.628    535.431    535.431
 86.770    542.514    590.559    -48.045    535.231    565.966    559.793    535.231    535.231
 86.870    609.000    595.587     13.413    535.029    570.262    560.318    535.029    535.029
 86.970    594.000    601.000     -7.000    534.826    575.669    560.113    534.826    534.826
 87.070    621.000    606.898     14.102    534.622    582.285    559.183    534.622    534.622
 87.170    577.000    613.409    -36.409    534.416    590.144    557.620    534.416    534.416
 87.270    653.194    620.629     32.564    534.208    599.191    555.577    534.208    534.208
 87.370    639.021    628.559     10.462    533.999    609.253    553.225    533.999    533.999
 87.470    685.000    637.052     47.948    533.789    620.024    550.726    533.789    533.789
 87.570    693.000    645.792     47.208    533.578    631.048    548.218    533.578    533.578
 87.670    682.000    654.281     27.719    533.365    641.721    545.812    533.365    533.365
 87.770    726.000    661.862     64.138    533.150    651.306    543.586    533.150    533.150
 87.870    689.000    667.784     21.216    532.934    659.003    541.590    532.934    532.934
 87.970    662.000    671.328     -9.328    532.717    664.070    539.850    532.717    532.717
 88.070    712.000    671.993     40.007    532.499    666.004    538.365    532.499    532.499
 88.170    660.725    669.650     -8.925    532.279    664.691    537.123    532.279    532.279
 88.270    672.369    664.585      7.784    532.057    660.441    536.096    532.057    532.057
 88.370    655.000    657.407     -2.407    531.835    653.892    535.257    531.835    531.835
 88.470    614.404    648.887    -34.482    531.611    645.844    534.574    531.611    531.611
 88.570    654.000    639.831     14.169    531.385    637.132    534.021    531.385    531.385
 88.670    623.000    630.996     -7.996    531.159    628.532    533.573    531.159    531.159
 88.770    593.377    623.039    -29.662    530.931    620.722    533.211    530.931    530.931
 88.870    619.591    616.486      3.106    530.701    614.242    532.920    530.701    530.701
 88.970    588.000    611.705    -23.705    530.470    609.473    532.689    530.470    530.470
 89.070    612.731    608.891      3.840    530.238    606.619    532.508    530.238    530.238
 89.170    601.000    608.066     -7.066    530.005    605.709    532.368    530.005    530.005
 89.270    604.000    609.081     -5.081    529.770    606.605    532.262    529.770    529.770
 89.370    607.000    611.639     -4.639    529.535    609.020    532.178    529.535    529.535
 89.470    616.000    615.310      0.690    529.297    612.534    532.105    529.297    529.297
 89.570    617.000    619.552     -2.552    529.059    616.620    532.031    529.059    529.059
 89.670    590.111    623.743    -33.632    528.819    620.669    531.939    528.819    528.819
 89.770    640.000    627.222     12.778    528.578    624.037    531.814    528.578    528.578
 89.870    633.738    629.364      4.374    528.336    626.116    531.641    528.336    528.336
 89.970    580.691    629.689    -48.998    528.092    626.434    531.407    528.092    528.092
 90.070    692.000    627.966     64.034    527.848    624.766    531.108    527.848    527.848
 90.170    620.000    624.258     -4.258    527.602    621.173    530.747    527.602    527.602
 90.270    637.000    618.883     18.117    527.354    615.961    530.335    527.354    527.354
 90.370    644.000    612.303     31.697    527.106    609.578    529.885    527.106    527.106
 90.470    593.000    605.020    -12.020    526.856    602.511    529.413    526.856    526.856
 90.570    576.000    597.497    -21.497    526.606    595.212    528.934    526.606    526.606
 90.670    545.094    590.129    -45.036    526.354    588.063    528.457    526.354    526.354
 90.770    585.000    583.221      1.779    526.101    581.359    527.993    526.101    526.101
 90.870    559.000    576.991    -17.991    525.846    575.314    527.549    525.846    525.846
 90.970    566.000    571.573     -5.573    525.591    570.058    527.127    525.591    525.591
 91.070    562.481    567.028     -4.547    525.334    565.648    526.730    525.334    525.334
 91.170    559.865    563.356     -3.492    525.077    562.087    526.357    525.077    525.077
 91.270    529.431    560.514    -31.083    524.818    559.331    526.008    524.818    524.818
 91.370    547.000    558.431    -11.431    524.558    557.314    525.681    524.558    524.558
 91.470    556.000    557.032     -1.032    524.297    555.960    525.372    524.297    524.297
 91.570    582.000    556.243     25.757    524.035    555.198    525.080    524.035    524.035
 91.670    559.000    556.010      2.990    523.771    554.977    524.804    523.771    523.771
 91.770    563.000    556.306      6.694    523.507    555.270    524.541    523.507    523.507
 91.870    585.207    557.136     28.071    523.242    556.082    524.293    523.242    523.242
 91.970    550.873    558.541     -7.668    522.976    557.451    524.060    522.976    522.976
 92.070    572.000    560.596     11.404    522.708    559.453    523.844    522.708    522.708
 92.170    556.000    563.411     -7.411    522.440    562.194    523.648    522.440    522.440
 92.270    556.000    567.124    -11.124    522.170    565.807    523.475    522.170    522.170
 92.370    574.393    571.892      2.501    521.900    570.448    523.329    521.900    521.900
 92.470    580.985    577.883      3.102    521.628    576.281    523.212    521.628    521.628
 92.570    569.000    585.255    -16.255    521.356    583.460    523.129    521.356    521.356
 92.670    617.849    594.143     23.705    521.083    592.118    523.081    521.083    521.083
 92.770    634.080    604.689     29.391    520.808    602.396    523.068    520.808    520.808
 92.870    578.715    616.927    -38.212    520.533    614.331    523.090    520.533    520.533
 92.970    587.000    630.838    -43.838    520.257    627.907    523.143    520.257    520.257
 93.070    635.327    646.319    -10.992    519.980    643.027    523.219    519.980    519.980
 93.170    707.300    663.173     44.127    519.702    659.502    523.312    519.702    519.702
 93.270    640.010    681.094    -41.084    519.423    677.040    523.411    519.423    519.423
 93.370    674.000    699.677    -25.677    519.143    695.243    523.504    519.143    519.143
 93.470    686.000    718.429    -32.429    518.862    713.633    523.581    518.862    518.862
 93.570    736.000    736.831     -0.831    518.581    731.697    523.633    518.581    518.581
 93.670    727.000    754.428    -27.428    518.299    748.983    523.659    518.299    518.299
 93.770    773.000    770.944      2.056    518.015    765.206    523.667    518.015    518.015
 93.870    734.503    786.346    -51.843    517.732    780.314    523.677    517.732    517.732
 93.970    829.000    800.837     28.163    517.447    794.476    523.721    517.447    517.447
 94.070    872.000    814.751     57.249    517.161    807.986    523.841    517.161    517.161
 94.170    815.000    828.417    -13.417    516.875    821.129    524.078    516.875    516.875
 94.270    853.000    842.052     10.948    516.588    834.083    524.473    516.588    516.588
 94.370    821.000    855.732    -34.732    516.300    846.892    525.058    516.300    516.300
 94.470    839.000    869.431    -30.431    516.012    859.511    525.852    516.012    516.012
 94.570    895.000    883.097     11.903    515.723    871.885    526.857    515.723    515.723
 94.670    936.000    896.692     39.308    515.433    883.992    528.058    515.433    515.433
 94.770    892.000    910.158    -18.158    515.142    895.812    529.416    515.142    515.142
 94.870    886.665    923.309    -36.644    514.851    907.217    530.873    514.851    514.851
 94.970    986.501    935.710     50.791    514.559    917.854    532.349    514.559    514.559
 95.070    992.000    946.611     45.389    514.267    927.070    533.746    514.267    514.267
 95.170    944.000    954.954    -10.954    513.973    933.921    534.951    513.973    513.973
 95.270    922.751    959.490    -36.738    513.680    937.272    535.848    513.680    513.680
 95.370    972.798    958.996     13.803    513.385    936.011    536.329    513.385    513.385
 95.470    968.000    952.581     15.419    513.091    929.322    536.318    513.091    513.091
 95.570    908.729    939.972    -31.244    512.795    916.960    535.785    512.795    512.795
 95.670    923.000    921.646      1.354    512.499    899.377    534.754    512.499    512.499
 95.770    897.892    898.756     -0.864    512.203    877.653    533.299    512.203    512.203
 95.870    920.565    872.900     47.666    511.906    853.281    531.524    511.906    511.906
 95.970    814.389    845.865    -31.476    511.608    827.933    529.544    511.608    511.608
 96.070    852.000    819.444     32.556    511.311    803.289    527.470    511.311    511.311
 96.170    790.086    795.329     -5.243    511.012    780.942    525.405    511.012    511.012
 96.270    775.000    775.064     -0.064    510.713    762.350    523.431    510.713    510.713
 96.370    748.000    760.028    -12.028    510.414    748.826    521.616    510.414    510.414
 96.470    784.399    751.422     32.976    510.115    741.524    520.008    510.115    510.115
 96.570    737.590    750.267    -12.678    509.815    741.435    518.636    509.815    509.815
 96.670    792.000    757.398     34.602    509.514    749.378    517.515    509.514    509.514
 96.770    785.000    773.452     11.548    509.214    765.991    516.647    509.214    509.214
 96.870    850.000    798.851     51.149    508.913    791.704    516.022    508.913    508.913
 96.970    809.006    833.770    -24.764    508.612    826.708    515.625    508.612    508.612
 97.070    909.000    878.093     30.907    508.310    870.906    515.436    508.310    508.310
 97.170    949.878    931.365     18.514    508.008    923.869    515.432    508.008    508.008
 97.270   1012.000    992.723     19.277    507.706    984.759    515.588    507.706    507.706
 97.370   1090.000   1060.797     29.203    507.404   1052.236    515.872    507.404    507.404
 97.470   1139.000   1133.823      5.177    507.101   1124.573    516.250    507.101    507.101
 97.570   1283.327   1209.408     73.919    506.799   1199.416    516.683    506.799    506.799
 97.670   1297.000   1284.586     12.414    506.496   1273.844    517.127    506.496    506.496
 97.770   1359.000   1355.887      3.113    506.193   1344.437    517.532    506.193    506.193
 97.870   1476.000   1419.442     56.558    505.890   1407.381    517.845    505.890    505.890
 97.970   1522.585   1471.256     51.330    505.586   1458.734    518.012    505.586    505.586
 98.070   1525.893   1507.677     18.215    505.283   1494.892    517.986    505.283    505.283
 98.170   1563.515   1526.009     37.506    504.980   1513.192    517.732    504.980    504.980
 98.270   1516.000   1525.067     -9.067    504.676   1512.462    517.236    504.676    504.676
 98.370   1523.000   1505.430     17.570    504.373   1493.271    516.508    504.373    504.373
 98.470   1468.000   1469.267     -1.267    504.069   1457.754    515.578    504.069    504.069
 98.570   1422.949   1419.841      3.107    503.766   1409.130    514.490    503.766    503.766
 98.670   1393.000   1360.953     32.047    503.462   1351.150    513.292    503.462    503.462
 98.770   1235.000   1296.485    -61.485    503.159   1287.647    512.033    503.159    503.159
 98.870   1242.831   1230.123     12.707    502.856   1222.264    510.757    502.856    502.856
 98.970   1154.960   1165.187    -10.228    502.553   1158.283    509.500    502.553    502.553
 99.070   1042.000   1104.541    -62.541    502.250   1098.540    508.293    502.250    502.250
 99.170   1067.000   1050.594     16.406    501.947   1045.422    507.158    501.947    501.947
 99.270   1040.197   1005.317     34.880    501.644   1000.885    506.109    501.644    501.644
 99.370    908.000    970.282    -62.282    501.341    966.493    505.157    501.341    501.341
 99.470    890.303    946.699    -56.396    501.039    943.453    504.304    501.039    501.039
 99.570    902.486    935.452    -32.967    500.737    932.652    503.548    500.737    500.737
 99.670    975.299    937.120     38.180    500.435    934.674    502.884    500.435    500.435
 99.770    970.000    951.995     18.005    500.134    949.820    502.304    500.134    500.134
 99.870   1005.000    980.095     24.905    499.832    978.119    501.798    499.832    499.832
 99.970   1005.492   1021.163    -15.671    499.532   1019.323    501.356    499.532    499.532
100.070   1098.000   1074.654     23.346    499.231   1072.898    500.968    499.231    499.231
100.170   1155.757   1139.707     16.051    498.931   1137.994    500.624    498.931    498.931
100.270   1243.000   1215.108     27.892    498.631   1213.408    500.313    498.631    498.631
100.370   1349.000   1299.243     49.757    498.332   1297.532    500.029    498.332    498.332
100.470   1313.772   1390.049    -76.277    498.033   1388.313    499.762    498.033    498.033
100.570   1485.000   1484.993      0.007    497.734   1483.225    499.506    497.734    497.734
100.670   1580.000   1581.099     -1.099    497.437   1579.298    499.255    497.437    497.437
100.770   1616.392   1675.074    -58.682    497.139   1673.245    499.004    497.139    497.139
100.870   1721.000   1763.550    -42.550    496.842   1761.700    498.748    496.842    496.842
100.970   1907.000   1843.407     63.593    496.546   1841.546    498.485    496.546    496.546
101.070   1966.000   1912.074     53.926    496.251   1910.211    498.215    496.251    496.251
101.170   2041.000   1967.666     73.334    495.956   1965.807    497.940    495.956    495.956
101.270   2039.000   2008.900     30.100    495.661   2007.047    497.662    495.661    495.661
101.370   2041.068   2034.874      6.194    495.368   2033.024    497.386    495.368    495.368
101.470   2109.916   2044.875     65.041    495.075   2043.019    497.116    495.075    495.075
101.570   1991.000   2038.369    -47.369    494.782   2036.495    496.857    494.782    494.782
101.670   2048.168   2015.306     32.861    494.491   2013.397    496.612    494.491    494.491
101.770   1934.000   1976.380    -42.380    494.200   1974.416    496.383    494.200    494.200
101.870   1874.836   1923.339    -48.503    493.910   1921.299    496.171    493.910    493.910
101.970   1864.000   1858.998      5.002    493.621   1856.863    495.975    493.621    493.621
102.070   1791.352   1786.936      4.416    493.333   1784.688    495.794    493.333    493.333
102.170   1711.648   1711.013      0.635    493.046   1708.639    495.623    493.046    493.046
102.270   1698.290   1634.898     63.391    492.760   1632.392    495.457    492.760    492.760
102.370   1556.000   1561.711     -5.711    492.474   1559.072    495.291    492.474    492.474
102.470   1454.379   1493.840    -39.461    492.190   1491.076    495.117    492.190    492.190
102.570   1423.000   1432.870     -9.870    491.906   1429.996    494.930    491.906    491.906
102.670   1332.767   1379.580    -46.814    491.624   1376.616    494.724    491.624    491.624
102.770   1301.000   1333.997    -32.997    491.343   1330.968    494.495    491.343    491.343
102.870   1294.000   1295.463     -1.463    491.062   1292.396    494.243    491.062    491.062
102.970   1229.000   1262.731    -33.731    490.783   1259.655    493.964    490.783    490.783
103.070   1162.000   1234.099    -72.099    490.505   1231.044    493.659    490.505    490.505
103.170   1245.502   1207.606     37.896    490.229   1204.602    493.327    490.229    490.229
103.270   1085.000   1181.284    -96.284    489.953   1178.361    492.967    489.953    489.953
103.370   1112.000   1153.437    -41.437    489.679   1150.625    492.581    489.679    489.679
103.470   1060.000   1122.889    -62.889    489.406   1120.213    492.171    489.406    489.406
103.570   1071.013   1089.107    -18.094    489.134   1086.590    491.740    489.134    489.134
103.670   1023.000   1052.177    -29.177    488.864   1049.834    491.294    488.864    488.864
103.770    962.302   1012.660    -50.358    488.595   1010.502    490.838    488.595    488.595
103.870    981.000    971.400      9.600    488.327    969.431    490.379    488.327    488.327
103.970    916.432    929.357    -12.925    488.061    927.574    489.922    488.061    488.061
104.070    873.970    887.483    -13.514    487.796    885.881    489.471    487.796    487.796
104.170    841.000    846.657     -5.657    487.533    845.225    489.032    487.533    487.533
104.270    798.000    807.637     -9.637    487.271    806.365    488.605    487.271    487.271
104.370    791.000    771.047     19.953    487.011    769.919    488.194    487.011    487.011
104.470    733.000    737.357     -4.357    486.752    736.359    487.800    486.752    486.752
104.570    651.796    706.885    -55.089    486.495    706.001    487.422    486.495    486.495
104.670    705.000    679.797     25.203    486.240    679.012    487.062    486.240    486.240
104.770    678.000    656.125     21.875    485.986    655.423    486.719    485.986    485.986
104.870    652.000    635.781     16.219    485.734    635.150    486.391    485.734    485.734
104.970    596.235    618.585    -22.350    485.484    618.012    486.079    485.484    485.484
105.070    632.000    604.293     27.707    485.235    603.766    485.780    485.235    485.235
105.170    573.164    592.621    -19.457    484.989    592.130    485.493    484.989    484.989
105.270    564.301    583.269    -18.969    484.744    582.806    485.218    484.744    484.744
105.370    556.344    575.945    -19.601    484.501    575.501    484.952    484.501    484.501
105.470    582.000    570.366     11.634    484.260    569.935    484.696    484.260    484.260
105.570    602.000    566.307     35.693    484.021    565.882    484.448    484.021    484.021
105.670    575.000    563.589     11.411    483.784    563.164    484.209    483.784    483.784
105.770    600.000    562.044     37.956    483.548    561.612    483.979    483.548    483.548
105.870    563.377    561.560      1.817    483.315    561.115    483.757    483.315    483.315
105.970    588.000    562.064     25.936    483.084    561.599    483.543    483.084    483.084
106.070    587.021    563.517     23.504    482.856    563.026    483.338    482.856    482.856
106.170    617.000    565.911     51.089    482.629    565.386    483.143    482.629    482.629
106.270    614.507    569.256     45.251    482.404    568.689    482.958    482.404    482.404
106.370    624.000    573.578     50.422    482.182    572.961    482.783    482.182    482.182
106.470    542.552    578.908    -36.356    481.962    578.232    482.620    481.962    481.962
106.570    566.000    585.278    -19.278    481.744    584.533    482.468    481.744    481.744
106.670    599.000    592.704      6.296    481.529    591.880    482.328    481.529    481.529
106.770    628.000    601.182     26.818    481.316    600.270    482.199    481.316    481.316
106.870    634.000    610.674     23.326    481.105    609.665    482.082    481.105    481.105
106.970    585.000    621.101    -36.101    480.897    619.986    481.976    480.897    480.897
107.070    633.000    632.337      0.663    480.691    631.111    481.879    480.691    480.691
107.170    661.432    644.205     17.227    480.488    642.863    481.788    480.488    480.488
107.270    622.000    656.477    -34.477    480.287    655.017    481.702    480.287    480.287
107.370    701.000    668.874     32.126    480.089    667.297    481.618    480.089    480.089
107.470    692.000    681.070     10.930    479.894    679.382    481.532    479.894    479.894
107.570    694.000    692.704      1.296    479.701    690.914    481.440    479.701    479.701
107.670    675.118    703.396    -28.278    479.511    701.518    481.338    479.511    479.511
107.770    716.000    712.777      3.223    479.323    710.829    481.221    479.323    479.323
107.870    662.000    720.526    -58.526    479.139    718.529    481.086    479.139    479.139
107.970    761.602    726.420     35.181    478.957    724.400    480.931    478.957    478.957
108.070    730.933    730.378      0.555    478.778    728.359    480.753    478.778    478.778
108.170    727.000    732.479     -5.479    478.602    730.488    480.553    478.602    478.602
108.270    714.000    732.961    -18.961    478.429    731.021    480.332    478.429    478.429
108.370    692.000    732.183    -40.183    478.259    730.315    480.095    478.259    478.259
108.470    731.000    730.572      0.428    478.092    728.793    479.843    478.092    478.092
108.570    688.000    728.567    -40.567    477.928    726.889    479.583    477.928    477.928
108.670    787.000    726.572     60.428    477.767    725.002    479.318    477.767    477.767
108.770    752.370    724.923     27.448    477.609    723.465    479.051    477.609    477.609
108.870    712.000    723.865    -11.865    477.454    722.520    478.788    477.454    477.454
108.970    703.000    723.542    -20.542    477.303    722.308    478.530    477.303    477.303
109.070    685.000    723.991    -38.991    477.155    722.863    478.280    477.155    477.155
109.170    679.000    725.141    -46.141    477.010    724.112    478.039    477.010    477.010
109.270    749.187    726.814     22.373    476.868    725.876    477.810    476.868    476.868
109.370    675.100    728.737    -53.637    476.730    727.883    477.592    476.730    476.730
109.470    769.307    730.559     38.748    476.596    729.779    477.385    476.596    476.596
109.570    697.000    731.872    -34.872    476.464    731.159    477.190    476.464    476.464
109.670    743.000    732.253     10.747    476.337    731.598    477.006    476.337    476.337
109.770    699.580    731.310    -31.730    476.212    730.708    476.833    476.212    476.212
109.870    685.281    728.738    -43.457    476.092    728.182    476.668    476.092    476.092
109.970    680.223    724.359    -44.135    475.975    723.843    476.512    475.975    475.975
110.070    732.737    718.144     14.593    475.862    717.665    476.364    475.862    475.862
110.170    719.000    710.215      8.785    475.752    709.769    476.222    475.752    475.752
110.270    727.000    700.810     26.190    475.646    700.393    476.088    475.646    475.646
110.370    660.000    690.242    -30.242    475.544    689.850    475.959    475.544    475.544
110.470    677.000    678.852     -1.852    475.446    678.487    475.833    475.446    475.446
110.570    624.646    667.008    -42.363    475.352    666.665    475.717    475.352    475.352
110.670    686.000    655.036     30.964    475.262    654.711    475.607    475.262    475.262
110.770    664.555    643.228     21.327    475.176    642.920    475.502    475.176    475.176
110.870    580.731    631.863    -51.133    475.093    631.569    475.403    475.093    475.093
110.970    609.000    621.150    -12.150    475.015    620.869    475.311    475.015    475.015
111.070    576.000    611.259    -35.259    474.941    610.989    475.224    474.941    474.941
111.170    645.000    602.318     42.682    474.872    602.057    475.142    474.872    474.872
111.270    604.000    594.408      9.592    474.806    594.155    475.067    474.806    474.806
111.370    662.000    587.573     74.427    474.745    587.326    474.997    474.745    474.745
111.470    594.000    581.819     12.181    474.687    581.577    474.934    474.687    474.687
111.570    534.000    577.122    -43.122    474.635    576.883    474.876    474.635    474.635
111.670    604.000    573.432     30.568    474.587    573.195    474.823    474.587    474.587
111.770    597.000    570.682     26.318    474.543    570.446    474.776    474.543    474.543
111.870    573.000    568.792      4.208    474.503    568.557    474.735    474.503    474.503
111.970    569.000    567.675      1.325    474.469    567.440    474.699    474.469    474.469
112.070    556.000    567.243    -11.243    474.438    567.007    474.668    474.438    474.438
112.170    583.000    567.410     15.590    474.413    567.173    474.643    474.413    474.413
112.270    567.000    568.095     -1.095    474.392    567.856    474.623    474.392    474.392
112.370    562.000    569.224     -7.224    474.376    568.983    474.608    474.376    474.376
112.470    581.303    570.733     10.570    474.364    570.490    474.598    474.364    474.364
112.570    602.000    572.572     29.428    474.358    572.327    474.593    474.358    474.358
112.670    577.000    574.699      2.301    474.356    574.452    474.593    474.356    474.356
112.770    623.087    577.090     45.997    474.360    576.840    474.598    474.360    474.360
112.870    549.593    579.731    -30.138    474.368    579.479    474.608    474.368    474.368
112.970    589.000    582.626      6.374    474.381    582.371    474.623    474.381    474.381
113.070    548.000    585.791    -37.791    474.400    585.534    474.644    474.400    474.400
113.170    600.369    589.257     11.112    474.423    588.997    474.670    474.423    474.423
113.270    600.000    593.071      6.929    474.452    592.808    474.702    474.452    474.452
113.370    564.085    597.296    -33.211    474.486    597.028    474.740    474.486    474.486
113.470    605.353    602.013      3.341    474.525    601.739    474.785    474.525    474.525
113.570    602.276    607.327     -5.052    474.570    607.046    474.836    474.570    474.570
113.670    638.363    613.375     24.988    474.620    613.085    474.894    474.620    474.620
113.770    656.478    620.329     36.149    474.675    620.027    474.960    474.675    474.675
113.870    640.000    628.410     11.590    474.736    628.094    475.033    474.736    474.736
113.970    597.037    637.897    -40.860    474.802    637.563    475.115    474.802    474.802
114.070    647.000    649.145     -2.145    474.874    648.789    475.206    474.874    474.874
114.170    704.964    662.595     42.368    474.952    662.214    475.306    474.952    474.952
114.270    624.615    678.800    -54.185    475.035    678.387    475.416    475.035    475.035
114.370    690.000    698.434     -8.434    475.125    697.985    475.537    475.125    475.125
114.470    717.000    722.319     -5.319    475.220    721.826    475.668    475.220    475.220
114.570    732.177    751.438    -19.261    475.320    750.893    475.812    475.320    475.320
114.670    811.000    786.950     24.050    475.427    786.346    475.967    475.427    475.427
114.770    883.520    830.204     53.316    475.540    829.532    476.134    475.540    475.540
114.870    903.000    882.740     20.260    475.658    881.990    476.315    475.658    475.658
114.970    956.166    946.283      9.883    475.783    945.446    476.508    475.783    475.783
115.070    969.000   1022.726    -53.726    475.914   1021.792    476.714    475.914    475.914
115.170   1103.000   1114.101    -11.101    476.051   1113.059    476.933    476.051    476.051
115.270   1276.000   1222.526     53.474    476.194   1221.366    477.165    476.194    476.194
115.370   1309.000   1350.141    -41.141    476.344   1348.854    477.408    476.344    476.344
115.470   1539.000   1499.029     39.971    476.500   1497.606    477.664    476.500    476.500
115.570   1733.000   1671.110     61.890    476.662   1669.542    477.930    476.662    476.662
115.670   1919.000   1868.026     50.974    476.831   1866.307    478.207    476.831    476.831
115.770   2140.000   2091.020     48.980    477.007   2089.146    478.492    477.007    477.007
115.870   2372.000   2340.797     31.203    477.188   2338.764    478.784    477.188    477.188
115.970   2658.000   2617.396     40.604    477.377   2615.205    479.083    477.377    477.377
116.070   2879.048   2920.067    -41.019    477.572   2917.721    479.387    477.572    477.572
116.170   3263.399   3247.159     16.240    477.774   3244.663    479.694    477.774    477.774
116.270   3676.000   3596.034     79.966    477.983   3593.397    480.003    477.983    477.983
116.370   3929.409   3963.008    -33.600    478.199   3960.240    480.314    478.199    478.199
116.470   4235.000   4343.314   -108.314    478.421   4340.429    480.626    478.421    478.421
116.570   4685.000   4731.077    -46.077    478.651   4728.090    480.938    478.651    478.651
116.670   5122.127   5119.481      2.645    478.887   5116.409    481.252    478.887    478.887
116.770   5366.598   5500.680   -134.083    479.131   5497.539    481.568    479.131    479.131
116.870   5737.742   5865.969   -128.227    479.382   5862.777    481.889    479.382    479.382
116.970   6114.725   6206.014    -91.289    479.640   6202.788    482.214    479.640    479.640
117.070   6532.000   6511.125     20.875    479.905   6507.882    482.545    479.905    479.905
117.170   6799.000   6771.676     27.324    480.178   6768.432    482.883    480.178    480.178
117.270   7127.964   6978.667    149.296    480.458   6975.437    483.228    480.458    480.458
117.370   7158.647   7124.404     34.243    480.746   7121.201    483.581    480.746    480.746
117.470   7165.000   7203.213    -38.213    481.041   7200.045    483.940    481.041    481.041
117.570   7110.872   7212.045   -101.173    481.343   7208.920    484.304    481.343    481.343
117.670   7244.000   7150.838     93.162    481.653   7147.758    484.674    481.653    481.653
117.770   7014.000   7022.513     -8.513    481.971   7019.478    485.046    481.971    481.971
117.870   6713.259   6832.629   -119.370    482.297   6829.637    485.418    482.297    482.297
117.970   6467.000   6588.770   -121.770    482.630   6585.820    485.789    482.630    482.630
118.070   6225.000   6299.832    -74.832    482.972   6296.922    486.156    482.972    482.972
118.170   6089.674   5975.340    114.334    483.321   5972.470    486.517    483.321    483.321
118.270   5617.000   5624.876     -7.876    483.678   5622.049    486.869    483.678    483.678
118.370   5307.000   5257.659     49.341    484.044   5254.879    487.211    484.044    484.044
118.470   4890.000   4882.249      7.751    484.417   4879.522    487.543    484.417    484.417
118.570   4535.000   4506.349     28.651    484.799   4503.683    487.864    484.799    484.799
118.670   4141.000   4136.689      4.311    485.189   4134.092    488.175    485.189    485.189
118.770   3742.684   3778.947    -36.264    485.587   3776.426    488.480    485.587    485.587
118.870   3447.000   3437.726      9.274    485.994   3435.288    488.779    485.994    485.994
118.970   3161.913   3116.562     45.351    486.409   3114.212    489.076    486.409    486.409
119.070   2891.524   2817.971     73.553    486.833   2815.714    489.375    486.833    486.833
119.170   2513.000   2543.524    -30.524    487.265   2541.363    489.678    487.265    487.265
119.270   2302.000   2293.954      8.046    487.706   2291.888    489.989    487.706    487.706
119.370   2113.000   2069.265     43.735    488.155   2067.294    490.311    488.155    488.155
119.470   1831.666   1868.864    -37.197    488.614   1866.985    490.646    488.614    488.614
119.570   1696.000   1691.681      4.319    489.081   1689.889    490.997    489.081    489.081
119.670   1496.000   1536.287    -40.287    489.557   1534.576    491.366    489.557    489.557
119.770   1419.000   1401.007     17.993    490.042   1399.369    491.755    490.042    490.042
119.870   1219.000   1284.015    -65.015    490.536   1282.441    492.166    490.536    490.536
119.970   1157.296   1183.425    -26.130    491.040   1181.904    492.600    491.040    491.040
120.070   1119.463   1097.360     22.103    491.552   1095.880    493.058    491.552    491.552
120.170   1010.000   1024.015    -14.015    492.074   1022.562    493.541    492.074    492.074
120.270    997.000    961.697     35.303    492.604    960.259    494.050    492.604    492.604
120.370    943.000    908.861     34.139    493.145    907.423    494.585    493.145    493.145
120.470    849.000    864.121    -15.121    493.695    862.668    495.145    493.695    493.695
120.570    850.000    826.256     23.744    494.254    824.773    495.733    494.254    494.254
120.670    760.186    794.214    -34.028    494.823    792.685    496.346    494.823    494.823
120.770    755.000    767.093    -12.093    495.401    765.502    496.986    495.401    495.401
120.870    743.000    744.135     -1.135    495.989    742.466    497.652    495.989    495.989
120.970    682.000    724.708    -42.708    496.587    722.945    498.345    496.587    496.587
121.070    740.000    708.289     31.711    497.195    706.415    499.065    497.195    497.195
121.170    634.000    694.448    -60.448    497.813    692.446    499.812    497.813    497.813
121.270    637.790    682.833    -45.043    498.441    680.687    500.586    498.441    498.441
121.370    652.000    673.158    -21.158    499.079    670.850    501.387    499.079    499.079
121.470    625.000    665.188    -40.188    499.727    662.700    502.216    499.727    499.727
121.570    666.000    658.732      7.268    500.385    656.045    503.075    500.385    500.385
121.670    674.000    653.629     20.371    501.053    650.725    503.962    501.053    501.053
121.770    628.000    649.749    -21.749    501.732    646.607    504.880    501.732    501.732
121.870    644.000    646.979     -2.979    502.421    643.579    505.829    502.421    502.421
121.970    587.000    645.221    -58.221    503.121    641.541    506.810    503.121    503.121
122.070    621.764    644.389    -22.625    503.831    640.407    507.824    503.831    503.831
122.170    649.081    644.404      4.678    504.552    640.096    508.872    504.552    504.552
122.270    635.000    645.189    -10.189    505.284    640.533    509.954    505.284    505.284
122.370    624.393    646.672    -22.279    506.026    641.644    511.070    506.026    506.026
122.470    634.000    648.778    -14.778    506.780    643.355    512.220    506.780    506.780
122.570    628.000    651.429    -23.429    507.544    645.591    513.401    507.544    507.544
122.670    628.000    654.544    -26.544    508.319    648.272    514.613    508.319    508.319
122.770    658.000    658.037     -0.037    509.106    651.315    515.852    509.106    509.106
122.870    612.110    661.815    -49.705    509.903    654.631    517.113    509.903    509.903
122.970    664.480    665.779     -1.299    510.712    658.128    518.393    510.712    510.712
123.070    645.433    669.825    -24.393    511.532    661.706    519.684    511.532    511.532
123.170    644.000    673.842    -29.842    512.363    665.260    520.980    512.363    512.363
123.270    681.000    677.714      3.286    513.206    668.684    522.274    513.206    513.206
123.370    714.281    681.324     32.957    514.061    671.868    523.558    514.061    514.061
123.470    690.492    684.555      5.937    514.927    674.703    524.822    514.927    514.927
123.570    705.039    687.296     17.743    515.804    677.087    526.059    515.804    515.804
123.670    746.000    689.440     56.560    516.694    678.921    527.260    516.694    516.694
123.770    665.000    690.873    -25.873    517.595    680.100    528.418    517.595    517.595
123.870    729.317    691.608     37.709    518.508    680.640    529.528    518.508    518.508
123.970    732.647    691.573     41.074    519.433    680.474    530.585    519.433    519.433
124.070    694.000    690.756      3.244    520.371    679.592    531.587    520.371    520.371
124.170    673.517    689.172    -15.655    521.320    678.013    532.533    521.320    521.320
124.270    695.000    686.861      8.139    522.282    675.773    533.423    522.282    522.282
124.370    700.000    683.881     16.119    523.256    672.928    534.260    523.256    523.256
124.470    706.000    680.300     25.700    524.242    669.546    535.047    524.242    524.242
124.570    668.000    676.199     -8.199    525.241    665.700    535.788    525.241    525.241
124.670    691.000    671.658     19.342    526.252    661.469    536.488    526.252    526.252
124.770    704.000    666.764     37.236    527.276    656.933    537.153    527.276    527.276
124.870    729.000    661.602     67.398    528.313    652.170    537.788    528.313    528.313
124.970    676.000    656.256     19.744    529.362    647.258    538.400    529.362    529.362
