neutron_powder_diffraction_0028
R_wp: 3.706
Temperature (K): 534.136
Counts: 83779.00
Wavelength (Ã…): 2.52098
COMMENTS
Test file for demonstrating the .xyy file format in Reel1.0
END OF HEADER
   tth       Y_obs     Y_calc      Y_res    Background    Phase_1_Nuc    Phase_1_Mag    Phase_2_Nuc    Phase_2_Mag
  9.970    748.000    714.225     33.775    712.589    713.633    713.179    712.589    712.589
 10.070    695.000    713.218    -18.218    711.492    712.620    712.089    711.492    711.492
 10.170    678.841    712.229    -33.388    710.401    711.624    711.004    710.401    710.401
 10.270    725.958    711.259     14.699    709.315    710.648    709.925    709.315    709.315
 10.370    708.000    710.312     -2.312    708.235    709.694    708.851    708.235    708.235
 10.470    727.000    709.390     17.610    707.161    708.766    707.784    707.161    707.161
 10.570    670.982    708.499    -37.517    706.092    707.868    706.722    706.092    706.092
 10.670    674.950    707.644    -32.694    705.029    707.006    705.665    705.029    705.029
 10.770    675.415    706.834    -31.418    703.971    706.188    704.615    703.971    703.971
 10.870    714.000    706.077      7.923    702.919    705.424    703.570    702.919    702.919
 10.970    695.000    705.389    -10.389    701.873    704.729    702.530    701.873    701.873
 11.070    710.000    704.788      5.212    700.832    704.121    701.497    700.832    700.832
 11.170    731.234    704.303     26.931    699.796    703.627    700.469    699.796    699.796
 11.270    700.000    703.973     -3.973    698.766    703.289    699.446    698.766    698.766
 11.370    709.445    703.864      5.581    697.742    703.172    698.429    697.742    697.742
 11.470    737.056    704.099     32.957    696.723    703.399    697.418    696.723    696.723
 11.570    691.000    704.943    -13.943    695.709    704.234    696.413    695.709    695.709
 11.670    792.000    706.990     85.010    694.701    706.271    695.413    694.701    694.701
 11.770    729.000    711.444     17.556    693.698    710.713    694.419    693.698    693.698
 11.870    746.000    720.271     25.729    692.701    719.526    693.430    692.701    692.701
 11.970    791.037    735.765     55.272    691.709    735.002    692.447    691.709    691.709
 12.070    819.000    758.954     60.046    690.723    758.169    691.469    690.723    690.723
 12.170    881.000    786.714     94.286    689.742    785.903    690.497    689.742    689.742
 12.270    754.116    808.846    -54.731    688.766    808.014    689.531    688.766    688.766
 12.370    782.556    811.734    -29.178    687.796    810.891    688.570    687.796    687.796
 12.470    828.000    792.338     35.662    686.831    791.495    687.614    686.831    686.831
 12.570    753.465    762.816     -9.351    685.872    761.979    686.664    685.872    685.872
 12.670    689.464    735.637    -46.173    684.917    734.805    685.720    684.917    684.917
 12.770    696.462    715.858    -19.396    683.969    715.027    684.781    683.969    683.969
 12.870    672.522    703.346    -30.824    683.025    702.512    683.848    683.025    683.025
 12.970    630.000    695.933    -65.933    682.087    695.092    682.920    682.087    682.087
 13.070    705.559    691.434     14.125    681.154    690.585    681.997    681.154    681.154
 13.170    732.000    688.412     43.588    680.226    687.553    681.080    680.226    680.226
 13.270    677.000    686.127     -9.127    679.304    685.258    680.169    679.304    679.304
 13.370    633.000    684.236    -51.236    678.387    683.356    679.263    678.387    678.387
 13.470    706.000    682.592     23.408    677.475    681.701    678.362    677.475    677.475
 13.570    718.634    681.118     37.516    676.568    680.216    677.467    676.568    676.568
 13.670    641.461    679.770    -38.309    675.666    678.857    676.577    675.666    675.666
 13.770    674.000    678.516     -4.516    674.770    677.591    675.693    674.770    674.770
 13.870    715.000    677.336     37.664    673.879    676.398    674.814    673.879    673.879
 13.970    700.000    676.213     23.787    672.993    675.263    673.941    672.993    672.993
 14.070    701.761    675.136     26.625    672.112    674.174    673.073    672.112    672.112
 14.170    683.000    674.098      8.902    671.237    673.123    672.210    671.237    671.237
 14.270    665.000    673.095     -8.095    670.366    672.106    671.353    670.366    670.366
 14.370    679.000    672.139      6.861    669.501    671.136    670.502    669.501    669.501
 14.470    663.000    671.190     -8.190    668.641    670.173    669.656    668.641    668.641
 14.570    636.000    670.254    -34.254    667.786    669.223    668.815    667.786    667.786
 14.670    660.000    669.335     -9.335    666.936    668.290    667.979    666.936    666.936
 14.770    672.000    668.432      3.568    666.091    667.372    667.149    666.091    666.091
 14.870    619.000    667.543    -48.543    665.251    666.467    666.324    665.251    665.251
 14.970    619.000    666.666    -47.666    664.416    665.576    665.505    664.416    664.416
 15.070    665.000    665.802     -0.802    663.586    664.696    664.691    663.586    663.586
 15.170    641.000    664.949    -23.949    662.761    663.826    663.882    662.761    662.761
 15.270    595.000    664.107    -69.107    661.941    662.968    663.079    661.941    661.941
 15.370    649.982    663.277    -13.296    661.127    662.121    662.281    661.127    661.127
 15.470    642.000    662.453    -20.453    660.317    661.280    661.488    660.317    660.317
 15.570    670.000    661.637      8.363    659.512    660.446    660.701    659.512    659.512
 15.670    697.000    660.829     36.171    658.712    659.620    659.919    658.712    658.712
 15.770    617.126    660.029    -42.903    657.917    658.802    659.143    657.917    657.917
 15.870    656.000    659.237     -3.237    657.127    657.991    658.372    657.127    657.127
 15.970    623.000    658.452    -35.452    656.342    657.187    657.606    656.342    656.342
 16.070    657.000    657.675     -0.675    655.562    656.390    656.845    655.562    655.562
 16.170    619.295    656.904    -37.609    654.787    655.599    656.090    654.787    654.787
 16.270    666.000    656.141      9.859    654.016    654.815    655.341    654.016    654.016
 16.370    684.660    655.384     29.276    653.251    654.037    654.596    653.251    653.251
 16.470    663.609    654.634      8.975    652.490    653.265    653.857    652.490    652.490
 16.570    634.000    653.890    -19.890    651.734    652.499    653.124    651.734    651.734
 16.670    664.442    653.154     11.288    650.983    651.740    652.396    650.983    650.983
 16.770    592.000    652.429    -60.429    650.237    650.991    651.673    650.237    650.237
 16.870    648.000    651.706     -3.706    649.496    650.245    650.956    649.496    649.496
 16.970    609.768    650.988    -41.220    648.759    649.502    650.244    648.759    648.759
 17.070    644.542    650.276     -5.734    648.027    648.765    649.537    648.027    648.027
 17.170    644.000    649.571     -5.571    647.300    648.034    648.836    647.300    647.300
 17.270    659.151    648.875     10.276    646.578    647.311    648.141    646.578    646.578
 17.370    682.773    648.226     34.547    645.860    646.634    647.452    645.860    645.860
 17.470    604.490    647.588    -43.098    645.147    645.966    646.768    645.147    645.147
 17.570    601.000    646.912    -45.912    644.439    645.261    646.089    644.439    644.439
 17.670    676.076    646.237     29.839    643.736    644.557    645.415    643.736    643.736
 17.770    676.000    645.568     30.432    643.037    643.857    644.746    643.037    643.037
 17.870    668.188    644.905     23.283    642.343    643.163    644.083    642.343    642.343
 17.970    643.000    644.253     -1.253    641.654    642.479    643.426    641.654    641.654
 18.070    597.996    643.628    -45.632    640.969    641.822    642.774    640.969    640.969
 18.170    601.000    642.986    -41.986    640.289    641.146    642.128    640.289    640.289
 18.270    649.913    642.348      7.565    639.613    640.472    641.487    639.613    639.613
 18.370    641.000    641.715     -0.715    638.942    639.804    640.852    638.942    638.942
 18.470    633.669    641.089     -7.420    638.276    639.141    640.222    638.276    638.276
 18.570    623.132    640.468    -17.336    637.614    638.482    639.599    637.614    637.614
 18.670    681.000    639.854     41.146    636.957    637.829    638.980    636.957    636.957
 18.770    661.000    639.246     21.754    636.304    637.180    638.368    636.304    636.304
 18.870    619.000    638.644    -19.644    635.656    636.538    637.761    635.656    635.656
 18.970    653.051    638.055     14.996    635.012    635.905    637.161    635.012    635.012
 19.070    680.527    637.472     43.054    634.373    635.279    636.566    634.373    634.373
 19.170    650.000    636.890     13.110    633.739    634.651    635.977    633.739    633.739
 19.270    624.000    636.313    -12.313    633.109    634.027    635.394    633.109    633.109
 19.370    676.000    635.743     40.257    632.483    633.409    634.816    632.483    632.483
 19.470    636.386    635.186      1.200    631.862    632.800    634.247    631.862    631.862
 19.570    632.000    634.693     -2.693    631.245    632.237    633.700    631.245    631.245
 19.670    600.000    634.155    -34.155    630.633    631.642    633.145    630.633    630.633
 19.770    653.000    633.618     19.382    630.025    631.050    632.592    630.025    630.025
 19.870    595.000    633.103    -38.103    629.421    630.477    632.046    629.421    629.421
 19.970    593.587    632.577    -38.990    628.822    629.892    631.506    628.822    628.822
 20.070    590.157    632.056    -41.899    628.228    629.310    630.972    628.228    628.228
 20.170    586.000    631.542    -45.542    627.637    628.732    630.446    627.637    627.637
 20.270    600.000    631.046    -31.046    627.051    628.164    629.932    627.051    627.051
 20.370    653.417    630.598     22.820    626.470    627.631    629.435    626.470    626.470
 20.470    637.000    630.136      6.864    625.892    627.097    628.930    625.892    625.892
 20.570    673.159    629.712     43.447    625.319    626.599    628.431    625.319    625.319
 20.670    606.000    629.254    -23.254    624.750    626.065    627.938    624.750    624.750
 20.770    617.000    628.804    -11.804    624.186    625.536    627.452    624.186    624.186
 20.870    577.000    628.359    -51.359    623.626    625.009    626.974    623.626    623.626
 20.970    601.000    627.943    -26.943    623.070    624.508    626.504    623.070    623.070
 21.070    584.000    627.504    -43.504    622.518    623.980    626.040    622.518    622.518
 21.170    600.000    627.070    -27.070    621.970    623.455    625.584    621.970    621.970
 21.270    603.000    626.646    -23.646    621.427    622.935    625.136    621.427    621.427
 21.370    614.936    626.237    -11.301    620.888    622.426    624.698    620.888    620.888
 21.470    633.419    625.849      7.569    620.353    621.930    624.271    620.353    620.353
 21.570    642.000    625.467     16.533    619.822    621.439    623.849    619.822    619.822
 21.670    596.013    625.088    -29.075    619.295    620.948    623.434    619.295    619.295
 21.770    599.000    624.715    -25.715    618.773    620.458    623.029    618.773    618.773
 21.870    609.000    624.354    -15.354    618.255    619.974    622.633    618.255    618.255
 21.970    664.982    624.005     40.977    617.740    619.498    622.246    617.740    617.740
 22.070    615.000    623.668     -8.668    617.230    619.028    621.869    617.230    617.230
 22.170    573.000    623.346    -50.346    616.724    618.567    621.502    616.724    616.724
 22.270    652.387    623.039     29.348    616.222    618.114    621.146    616.222    616.222
 22.370    611.000    622.746    -11.746    615.724    617.668    620.801    615.724    615.724
 22.470    633.353    622.469     10.883    615.230    617.231    620.467    615.230    615.230
 22.570    602.686    622.211    -19.526    614.740    616.805    620.145    614.740    614.740
 22.670    613.000    621.972     -8.972    614.255    616.390    619.836    614.255    614.255
 22.770    643.000    621.754     21.246    613.773    615.986    619.539    613.773    613.773
 22.870    642.000    621.563     20.437    613.295    615.598    619.258    613.295    613.295
 22.970    592.000    621.390    -29.390    612.821    615.221    618.989    612.821    612.821
 23.070    600.000    621.245    -21.245    612.351    614.859    618.735    612.351    612.351
 23.170    579.000    621.130    -42.130    611.885    614.517    618.497    611.885    611.885
 23.270    671.000    621.050     49.950    611.423    614.197    618.275    611.423    611.423
 23.370    573.000    621.010    -48.010    610.965    613.903    618.071    610.965    610.965
 23.470    608.000    621.018    -13.018    610.511    613.642    617.886    610.511    610.511
 23.570    612.235    621.080     -8.845    610.060    613.419    617.721    610.060    610.060
 23.670    640.000    621.209     18.791    609.614    613.246    617.576    609.614    609.614
 23.770    681.000    621.418     59.582    609.171    613.136    617.453    609.171    609.171
 23.870    645.606    621.729     23.876    608.732    613.108    617.354    608.732    608.732
 23.970    637.000    622.173     14.827    608.297    613.191    617.281    608.297    608.297
 24.070    579.655    622.800    -43.145    607.866    613.432    617.235    607.866    607.866
 24.170    617.714    623.703     -5.990    607.439    613.925    617.218    607.439    607.439
 24.270    621.000    625.085     -4.085    607.015    614.869    617.234    607.015    607.015
 24.370    637.000    627.384      9.616    606.596    616.698    617.285    606.596    606.596
 24.470    665.232    631.444     33.788    606.180    620.257    617.372    606.180    606.180
 24.570    654.000    638.586     15.414    605.767    626.864    617.501    605.767    605.767
 24.670    676.000    650.247     25.753    605.359    637.952    617.674    605.359    605.359
 24.770    650.000    666.910    -16.910    604.954    654.000    617.896    604.954    604.954
 24.870    659.269    686.289    -27.020    604.553    672.715    618.171    604.553    604.553
 24.970    711.705    701.612     10.093    604.155    687.318    618.506    604.155    604.155
 25.070    757.000    704.261     52.739    603.762    689.174    618.905    603.762    603.762
 25.170    731.323    692.564     38.759    603.372    676.606    619.378    603.372    603.372
 25.270    666.000    674.257     -8.257    602.985    657.346    619.931    602.985    602.985
 25.370    672.000    657.418     14.582    602.602    639.468    620.574    602.602    602.602
 25.470    616.000    645.444    -29.444    602.223    626.361    621.319    602.223    602.223
 25.570    675.000    638.374     36.626    601.848    618.051    622.178    601.848    601.848
 25.670    646.000    634.890     11.110    601.476    613.202    623.167    601.476    601.476
 25.770    618.000    633.589    -15.589    601.107    610.395    624.303    601.107    601.107
 25.870    625.737    633.517     -7.780    600.742    608.653    625.608    600.742    600.742
 25.970    645.000    634.175     10.825    600.381    607.450    627.106    600.381    600.381
 26.070    607.000    635.351    -28.351    600.023    606.545    628.829    600.023    600.023
 26.170    656.696    636.975     19.721    599.669    605.830    630.812    599.669    599.669
 26.270    628.000    639.039    -11.039    599.318    605.253    633.102    599.318    599.318
 26.370    642.000    641.579      0.421    598.971    604.790    635.757    598.971    598.971
 26.470    631.790    644.633    -12.843    598.627    604.418    638.839    598.627    598.627
 26.570    626.000    648.274    -22.274    598.287    604.124    642.433    598.287    598.287
 26.670    614.000    652.612    -38.612    597.950    603.906    646.651    597.950    597.950
 26.770    621.465    657.787    -36.323    597.617    603.767    651.632    597.617    597.617
 26.870    678.000    663.986     14.014    597.287    603.711    657.556    597.287    597.287
 26.970    659.585    671.456    -11.871    596.960    603.746    664.663    596.960    596.960
 27.070    668.000    680.533    -12.533    596.637    603.890    673.273    596.637    596.637
 27.170    725.000    691.678     33.322    596.317    604.163    683.824    596.317    596.317
 27.270    722.000    705.536     16.464    596.001    604.599    696.927    596.001    596.001
 27.370    673.560    723.033    -49.472    595.688    605.248    713.460    595.688    595.688
 27.470    777.845    745.557     32.288    595.378    606.182    734.737    595.378    595.378
 27.570    778.000    775.451      2.549    595.072    607.526    762.976    595.072    595.072
 27.670    785.775    817.782    -32.007    594.768    609.549    802.972    594.768    594.768
 27.770    911.258    887.010     24.248    594.469    613.013    868.417    594.469    594.469
 27.870   1058.000   1026.809     31.191    594.172    620.213   1000.672    594.172    594.172
 27.970   1266.000   1348.399    -82.399    593.879    636.991   1305.081    593.879    593.879
 28.070   1963.000   2057.140    -94.140    593.589    674.131   1976.193    593.589    593.589
 28.170   3099.000   3371.064   -272.064    593.302    743.091   3220.614    593.302    593.302
 28.270   5226.676   5254.472    -27.796    593.018    842.042   5004.601    593.018    593.018
 28.370   7064.000   7109.416    -45.416    592.738    939.715   6761.662    592.738    592.738
 28.470   7825.000   7864.342    -39.342    592.461    980.126   7476.228    592.461    592.461
 28.570   7223.000   6968.986    254.014    592.187    934.967   6626.066    592.187    592.187
 28.670   5224.424   5241.427    -17.004    591.916    848.345   4984.983    591.916    591.916
 28.770   3810.597   3832.131    -21.534    591.648    782.454   3641.289    591.648    591.648
 28.870   3245.000   3301.913    -56.913    591.383    768.287   3124.917    591.383    591.383
 28.970   3586.423   3572.240     14.183    591.122    800.933   3362.345    591.122    591.122
 29.070   4212.000   4151.381     60.619    590.864    849.115   3893.173    590.864    590.864
 29.170   4466.000   4387.864     78.136    590.608    868.801   4109.897    590.608    590.608
 29.270   3901.305   3919.634    -18.329    590.356    835.262   3675.044    590.356    590.356
 29.370   2974.000   3019.821    -45.821    590.107    769.405   2840.806    590.107    590.107
 29.470   2123.000   2135.308    -12.308    589.861    704.474   2020.889    589.861    589.861
 29.570   1516.360   1495.603     20.758    589.618    657.512   1427.819    589.618    589.618
 29.670   1156.000   1119.436     36.564    589.378    629.947   1078.921    589.378    589.378
 29.770    951.000    926.383     24.617    589.141    615.870    899.678    589.141    589.141
 29.870    851.729    830.598     21.131    588.907    608.964    810.553    588.907    588.907
 29.970    813.000    778.527     34.473    588.676    605.293    761.916    588.676    588.676
 30.070    758.804    745.519     13.285    588.448    603.058    730.911    588.448    588.448
 30.170    703.686    722.036    -18.350    588.222    601.581    708.678    588.222    588.222
 30.270    716.000    704.432     11.568    588.000    600.634    691.797    588.000    588.000
 30.370    653.960    691.137    -37.176    587.781    600.188    678.727    587.781    587.781
 30.470    725.000    681.573     43.427    587.565    600.399    668.733    587.565    587.565
 30.570    685.254    676.077      9.177    587.351    601.740    661.680    587.351    587.351
 30.670    678.000    676.072      1.928    587.140    605.139    658.060    587.140    587.140
 30.770    716.659    683.852     32.807    586.933    611.906    658.855    586.933    586.933
 30.870    762.000    701.265     60.735    586.728    623.089    664.866    586.728    586.728
 30.970    769.000    727.133     41.867    586.526    638.180    675.423    586.526    586.526
 31.070    740.171    754.101    -13.931    586.326    653.541    686.815    586.326    586.326
 31.170    736.877    767.912    -31.035    586.130    662.038    691.927    586.130    586.130
 31.270    808.000    757.393     50.607    585.936    658.083    685.178    585.936    585.936
 31.370    780.000    727.741     52.259    585.745    644.325    669.111    585.745    585.745
 31.470    761.000    693.249     67.751    585.557    627.993    650.781    585.557    585.557
 31.570    704.337    664.250     40.087    585.372    614.315    635.287    585.372    585.372
 31.670    662.000    644.136     17.864    585.189    605.019    624.294    585.189    585.189
 31.770    663.000    631.826     31.174    585.009    599.577    617.250    585.009    585.009
 31.870    632.000    624.701      7.299    584.832    596.682    612.845    584.832    584.832
 31.970    584.602    620.461    -35.858    584.658    595.186    609.927    584.658    584.658
 32.070    668.975    617.697     51.277    584.486    594.390    607.788    584.486    584.486
 32.170    662.000    615.726     46.274    584.317    593.959    606.079    584.317    584.317
 32.270    654.287    614.253     40.035    584.150    593.752    604.646    584.150    584.150
 32.370    625.000    613.157     11.843    583.986    593.719    603.420    583.986    583.986
 32.470    625.000    612.385     12.615    583.825    593.840    602.365    583.825    583.825
 32.570    606.000    611.915     -5.915    583.666    594.116    601.462    583.666    583.666
 32.670    597.706    611.747    -14.041    583.510    594.556    600.697    583.510    583.510
 32.770    628.000    611.896     16.104    583.356    595.182    600.067    583.356    583.356
 32.870    613.000    612.398      0.602    583.206    596.026    599.573    583.206    583.206
 32.970    600.000    613.311    -13.311    583.057    597.140    599.224    583.057    583.057
 33.070    569.896    614.723    -44.827    582.911    598.593    599.037    582.911    582.911
 33.170    652.000    616.770     35.230    582.768    600.493    599.041    582.768    582.768
 33.270    612.000    619.679     -7.679    582.627    603.015    599.287    582.627    582.627
 33.370    647.000    623.878     23.122    582.489    606.482    599.879    582.489    582.489
 33.470    639.178    630.283      8.895    582.353    611.590    601.040    582.353    582.353
 33.570    685.916    640.931     44.985    582.219    619.875    603.267    582.219    582.219
 33.670    654.000    659.983     -5.983    582.088    634.478    607.581    582.088    582.088
 33.770    732.000    694.647     37.353    581.960    660.835    615.753    581.960    581.960
 33.870    785.575    754.612     30.963    581.834    706.255    630.163    581.834    581.834
 33.970    863.000    848.199     14.801    581.710    777.013    652.854    581.710    581.710
 34.070    978.000    974.527      3.473    581.589    872.451    683.610    581.589    581.589
 34.170   1152.849   1113.076     39.773    581.470    977.096    717.387    581.470    581.470
 34.270   1273.066   1217.240     55.826    581.353   1055.809    742.729    581.353    581.353
 34.370   1238.629   1233.392      5.237    581.239   1068.145    746.453    581.239    581.239
 34.470   1197.000   1150.605     46.395    581.127   1005.852    725.868    581.127    581.127
 34.570   1007.647   1014.970     -7.323    581.017    903.685    692.301    581.017    581.017
 34.670    867.000    880.390    -13.390    580.910    802.299    659.004    580.910    580.910
 34.770    749.000    775.280    -26.280    580.805    723.126    632.961    580.805    580.805
 34.870    681.310    705.159    -23.849    580.702    670.331    615.531    580.702    580.702
 34.970    694.000    663.362     30.638    580.602    638.889    605.074    580.602    580.602
 35.070    666.000    639.917     26.083    580.503    621.279    599.140    580.503    580.503
 35.170    657.000    626.637     30.363    580.407    611.328    595.715    580.407    580.407
 35.270    579.624    618.501    -38.877    580.314    605.248    593.565    580.314    580.314
 35.370    672.000    612.967     59.033    580.222    601.122    592.065    580.222    580.222
 35.470    616.824    608.877      7.947    580.133    598.077    590.931    580.133    580.133
 35.570    598.000    605.704     -7.704    580.046    595.714    590.033    580.046    580.046
 35.670    622.000    603.175     18.825    579.961    593.827    589.306    579.961    579.961
 35.770    562.663    601.127    -38.464    579.878    592.294    588.708    579.878    579.878
 35.870    561.000    599.450    -38.450    579.797    591.030    588.215    579.797    579.797
 35.970    577.000    598.068    -21.068    579.718    589.977    587.808    579.718    579.718
 36.070    558.108    596.925    -38.817    579.642    589.090    587.474    579.642    579.642
 36.170    592.519    595.979     -3.461    579.567    588.339    587.206    579.567    579.567
 36.270    581.000    595.202    -14.202    579.495    587.697    586.998    579.495    579.495
 36.370    585.000    594.573     -9.573    579.425    587.148    586.847    579.425    579.425
 36.470    600.340    594.076      6.264    579.357    586.677    586.754    579.357    579.357
 36.570    599.000    593.705      5.295    579.290    586.273    586.720    579.290    579.290
 36.670    610.000    593.457     16.543    579.226    585.930    586.751    579.226    579.226
 36.770    574.000    593.335    -19.335    579.164    585.643    586.855    579.164    579.164
 36.870    635.928    593.348     42.580    579.104    585.408    587.042    579.104    579.104
 36.970    589.000    593.516     -4.516    579.046    585.228    587.331    579.046    579.046
 37.070    612.000    593.870     18.130    578.990    585.111    587.746    578.990    578.990
 37.170    591.000    594.469     -3.469    578.935    585.077    588.326    578.935    578.935
 37.270    639.718    595.426     44.292    578.883    585.173    589.134    578.883    578.883
 37.370    639.226    596.958     42.268    578.833    585.494    590.295    578.833    578.833
 37.470    606.000    599.482      6.518    578.784    586.195    592.068    578.784    578.784
 37.570    617.811    603.742     14.069    578.738    587.481    594.995    578.738    578.738
 37.670    634.000    610.935     23.065    578.693    589.533    600.092    578.693    578.693
 37.770    594.093    622.701    -28.609    578.650    592.369    608.978    578.650    578.650
 37.870    689.497    640.724     48.773    578.609    595.650    623.677    578.609    578.609
 37.970    656.000    665.744     -9.744    578.570    598.500    645.806    578.570    578.570
 38.070    690.000    696.284     -6.284    578.533    599.698    675.110    578.533    578.533
 38.170    750.000    727.747     22.253    578.497    598.649    707.586    578.497    578.497
 38.270    743.000    751.587     -8.587    578.464    596.037    734.007    578.464    578.464
 38.370    686.000    756.799    -70.799    578.432    592.919    742.309    578.432    578.432
 38.470    733.000    739.031     -6.031    578.402    589.979    727.455    578.402    578.402
 38.570    685.586    706.803    -21.218    578.373    587.581    697.598    578.373    578.373
 38.670    714.042    672.488     41.554    578.347    585.839    664.998    578.347    578.347
 38.770    602.000    643.727    -41.727    578.322    584.674    637.375    578.322    578.322
 38.870    612.000    623.007    -11.007    578.299    583.933    617.373    578.299    578.299
 38.970    620.000    609.660     10.340    578.277    583.468    604.468    578.277    578.277
 39.070    571.000    601.686    -30.686    578.257    583.173    596.770    578.257    578.257
 39.170    625.000    597.043     27.957    578.239    582.977    592.304    578.239    578.239
 39.270    598.000    594.244      3.756    578.223    582.842    589.623    578.223    578.223
 39.370    553.000    592.416    -39.416    578.208    582.746    587.876    578.208    578.208
 39.470    580.000    591.113    -11.113    578.195    582.677    586.630    578.195    578.195
 39.570    603.000    590.125     12.875    578.183    582.628    585.679    578.183    578.183
 39.670    578.834    589.346    -10.512    578.173    582.594    584.923    578.173    578.173
 39.770    541.569    588.720    -47.151    578.165    582.574    584.309    578.165    578.165
 39.870    596.000    588.216      7.784    578.158    582.571    583.802    578.158    578.158
 39.970    630.000    587.808     42.192    578.153    582.581    583.378    578.153    578.153
 40.070    581.000    587.475     -6.475    578.150    582.603    583.020    578.150    578.150
 40.170    587.554    587.207      0.347    578.148    582.637    582.716    578.148    578.148
 40.270    558.614    586.991    -28.378    578.147    582.682    582.455    578.147    578.147
 40.370    644.000    586.823     57.177    578.148    582.739    582.230    578.148    578.148
 40.470    598.962    586.695     12.268    578.150    582.809    582.035    578.150    578.150
 40.570    622.234    586.604     35.630    578.154    582.892    581.865    578.154    578.154
 40.670    586.888    586.549      0.339    578.160    582.990    581.718    578.160    578.160
 40.770    539.000    586.527    -47.527    578.167    583.103    581.589    578.167    578.167
 40.870    580.000    586.537     -6.537    578.175    583.235    581.476    578.175    578.175
 40.970    596.000    586.582      9.418    578.185    583.387    581.378    578.185    578.185
 41.070    629.957    586.661     43.296    578.196    583.562    581.293    578.196    578.196
 41.170    624.774    586.778     37.996    578.208    583.765    581.220    578.208    578.208
 41.270    624.104    586.937     37.167    578.222    584.000    581.158    578.222    578.222
 41.370    624.000    587.144     36.856    578.238    584.274    581.106    578.238    578.238
 41.470    586.000    587.406     -1.406    578.254    584.596    581.063    578.254    578.254
 41.570    574.000    587.736    -13.736    578.272    584.978    581.030    578.272    578.272
 41.670    543.000    588.149    -45.149    578.292    585.433    581.007    578.292    578.292
 41.770    573.000    588.667    -15.667    578.313    585.987    580.993    578.313    578.313
 41.870    559.000    589.329    -30.329    578.335    586.674    580.990    578.335    578.335
 41.970    553.904    590.203    -36.299    578.358    587.561    581.000    578.358    578.358
 42.070    634.424    591.424     43.000    578.383    588.779    581.028    578.383    578.383
 42.170    609.562    593.266     16.297    578.408    590.591    581.084    578.408    578.408
 42.270    577.401    596.238    -18.837    578.436    593.488    581.188    578.436    578.436
 42.370    617.000    601.190     15.810    578.464    598.286    581.372    578.464    578.464
 42.470    605.915    609.294     -3.378    578.494    606.114    581.681    578.494    578.494
 42.570    587.000    621.788    -34.788    578.524    618.163    582.161    578.524    578.524
 42.670    604.000    639.375    -35.375    578.556    635.111    582.841    578.556    578.556
 42.770    680.931    661.342     19.589    578.590    656.270    583.693    578.590    578.590
 42.870    669.000    684.542    -15.542    578.624    678.614    584.595    578.624    578.624
 42.970    653.000    702.755    -49.755    578.660    696.161    585.308    578.660    578.660
 43.070    633.000    708.473    -75.473    578.696    701.684    585.544    578.696    578.696
 43.170    669.000    698.686    -29.686    578.734    692.290    585.187    578.734    578.734
 43.270    658.560    678.268    -19.708    578.773    672.665    584.423    578.773    578.773
 43.370    675.000    654.966     20.034    578.813    650.264    583.551    578.813    578.813
 43.470    665.630    634.184     31.446    578.854    630.284    582.778    578.854    578.854
 43.570    637.000    618.238     18.762    578.897    614.956    582.194    578.897    578.897
 43.670    584.000    607.307    -23.307    578.940    604.451    581.806    578.940    578.940
 43.770    633.000    600.435     32.565    578.985    597.850    581.576    578.985    578.985
 43.870    591.053    596.347     -5.295    579.030    593.926    581.455    579.030    579.030
 43.970    585.000    593.946     -8.946    579.076    591.623    581.401    579.076    579.076
 44.070    572.000    592.486    -20.486    579.124    590.225    581.387    579.124    579.124
 44.170    592.000    591.541      0.459    579.173    589.320    581.394    579.173    579.173
 44.270    623.607    590.890     32.717    579.222    588.697    581.415    579.222    579.222
 44.370    598.000    590.424      7.576    579.273    588.250    581.446    579.273    579.273
 44.470    569.000    590.086    -21.086    579.324    587.926    581.484    579.324    579.324
 44.570    590.000    589.846      0.154    579.377    587.694    581.528    579.377    579.377
 44.670    590.780    589.683      1.097    579.430    587.534    581.577    579.430    579.430
 44.770    590.000    589.582      0.418    579.484    587.433    581.632    579.484    579.484
 44.870    598.384    589.533      8.851    579.539    587.380    581.691    579.539    579.539
 44.970    569.554    589.528    -19.974    579.596    587.368    581.754    579.596    579.596
 45.070    580.000    589.561     -9.561    579.653    587.391    581.822    579.653    579.653
 45.170    629.000    589.629     39.371    579.711    587.445    581.893    579.711    579.711
 45.270    559.065    589.728    -30.662    579.769    587.526    581.969    579.769    579.769
 45.370    572.842    589.855    -17.013    579.829    587.633    582.049    579.829    579.829
 45.470    559.000    590.010    -31.010    579.889    587.764    582.132    579.889    579.889
 45.570    674.000    590.190     83.810    579.951    587.918    582.221    579.951    579.951
 45.670    546.989    590.397    -43.409    580.013    588.095    582.313    580.013    580.013
 45.770    627.000    590.630     36.370    580.076    588.293    582.410    580.076    580.076
 45.870    609.000    590.889     18.111    580.140    588.514    582.512    580.140    580.140
 45.970    591.000    591.177     -0.177    580.204    588.759    582.619    580.204    580.204
 46.070    607.000    591.493     15.507    580.269    589.028    582.732    580.269    580.269
 46.170    572.000    591.842    -19.842    580.335    589.324    582.850    580.335    580.335
 46.270    571.000    592.225    -21.225    580.402    589.649    582.975    580.402    580.402
 46.370    580.718    592.646    -11.929    580.470    590.006    583.108    580.470    580.470
 46.470    578.000    593.111    -15.111    580.538    590.398    583.247    580.538    580.538
 46.570    603.000    593.625      9.375    580.607    590.832    583.396    580.607    580.607
 46.670    615.908    594.195     21.713    580.676    591.314    583.555    580.676    580.676
 46.770    585.000    594.832     -9.832    580.747    591.851    583.724    580.747    580.747
 46.870    582.000    595.550    -13.550    580.818    592.457    583.907    580.818    580.818
 46.970    630.000    596.368     33.632    580.889    593.148    584.106    580.889    580.889
 47.070    651.000    597.319     53.681    580.962    593.952    584.324    580.962    580.962
 47.170    595.675    598.460     -2.785    581.034    594.921    584.568    581.034    581.034
 47.270    642.000    599.902     42.098    581.108    596.154    584.851    581.108    581.108
 47.370    604.000    601.850      2.150    581.182    597.830    585.195    581.182    581.182
 47.470    592.000    604.656    -12.656    581.257    600.265    585.639    581.257    581.257
 47.570    598.000    608.856    -10.856    581.332    603.936    586.241    581.332    581.332
 47.670    629.000    615.139     13.861    581.408    609.457    587.074    581.408    581.408
 47.770    590.518    624.187    -33.669    581.484    617.436    588.214    581.484    581.484
 47.870    660.000    636.373     23.627    581.561    628.203    589.702    581.561    581.561
 47.970    646.000    651.337     -5.337    581.639    641.436    591.501    581.639    581.639
 48.070    643.000    667.518    -24.518    581.717    655.738    593.447    581.717    581.717
 48.170    662.000    681.776    -19.776    581.795    668.304    595.210    581.795    581.795
 48.270    670.000    689.904    -19.904    581.875    675.373    596.345    581.875    581.875
 48.370    691.073    689.114      1.959    581.954    674.451    596.558    581.954    581.954
 48.470    676.606    680.510     -3.903    582.034    666.519    595.974    582.034    582.034
 48.570    716.524    668.005     48.519    582.115    655.064    595.015    582.115    582.115
 48.670    642.000    655.459    -13.459    582.195    643.524    594.100    582.195    582.195
 48.770    584.000    645.284    -61.284    582.277    634.042    593.496    582.277    582.277
 48.870    603.000    638.491    -35.491    582.359    627.509    593.324    582.359    582.359
 48.970    662.000    635.139     26.861    582.441    623.960    593.607    582.441    582.441
 49.070    615.107    634.803    -19.696    582.523    622.992    594.324    582.523    582.523
 49.170    682.033    636.959     45.074    582.606    624.106    595.450    582.606    582.606
 49.270    654.000    641.272     12.728    582.690    626.952    597.001    582.690    582.690
 49.370    633.169    647.818    -14.648    582.773    631.507    599.075    582.773    582.773
 49.470    630.000    657.428    -27.428    582.858    638.316    601.960    582.858    582.858
 49.570    642.857    672.486    -29.629    582.942    649.052    606.364    582.942    582.942
 49.670    740.804    698.547     42.256    583.027    667.667    613.891    583.027    583.027
 49.770    694.540    746.888    -52.348    583.112    702.199    627.774    583.112    583.112
 49.870    828.000    837.036     -9.036    583.197    766.602    653.584    583.197    583.197
 49.970    962.000    996.655    -34.655    583.283    880.691    699.167    583.283    583.283
 50.070   1265.365   1255.496      9.869    583.369   1065.477    773.261    583.369    583.369
 50.170   1500.000   1629.239   -129.239    583.455   1332.258    880.254    583.455    583.455
 50.270   1969.000   2099.690   -130.690    583.542   1668.077   1014.923    583.542    583.542
 50.370   2539.000   2598.206    -59.206    583.628   2023.970   1157.615    583.628    583.628
 50.470   3008.813   3004.349      4.464    583.715   2314.016   1273.835    583.715    583.715
 50.570   3106.000   3178.874    -72.874    583.803   2438.874   1323.691    583.803    583.803
 50.670   2975.500   3048.926    -73.427    583.890   2346.566   1286.275    583.890    583.890
 50.770   2623.570   2671.805    -48.235    583.978   2078.004   1177.915    583.978    583.978
 50.870   2159.000   2182.795    -23.795    584.066   1729.801   1037.249    584.066    584.066
 50.970   1689.000   1707.994    -18.994    584.154   1392.066    900.272    584.154    584.154
 51.070   1342.000   1324.409     17.591    584.242   1119.880    788.930    584.242    584.242
 51.170   1041.000   1057.142    -16.142    584.330    931.225    710.364    584.330    584.330
 51.270    942.059    894.045     48.014    584.419    817.363    661.181    584.419    584.419
 51.370    827.000    805.915     21.085    584.508    757.160    633.318    584.508    584.508
 51.470    786.000    762.588     23.412    584.596    728.504    618.722    584.596    584.596
 51.570    689.553    740.939    -51.386    584.685    714.074    611.584    584.685    584.685
 51.670    694.303    726.849    -32.546    584.774    703.093    608.560    584.774    584.774
 51.770    699.000    714.283    -15.283    584.864    691.123    608.046    584.864    584.864
 51.870    722.000    702.475     19.525    584.953    678.117    609.326    584.953    584.953
 51.970    722.502    692.493     30.008    585.042    665.618    611.924    585.042    585.042
 52.070    732.000    685.065     46.935    585.131    654.973    615.224    585.131    585.131
 52.170    710.000    679.928     30.072    585.221    646.850    618.293    585.221    585.221
 52.270    719.274    676.010     43.264    585.310    641.339    619.973    585.310    585.310
 52.370    654.000    672.132    -18.132    585.400    638.165    619.357    585.400    585.400
 52.470    698.000    667.846     30.154    585.489    636.925    616.401    585.489    585.489
 52.570    695.000    663.638     31.362    585.579    637.275    611.934    585.579    585.579
 52.670    667.000    660.447      6.553    585.668    639.059    607.050    585.668    585.668
 52.770    662.351    659.259      3.092    585.758    642.408    602.604    585.758    585.758
 52.870    633.360    661.096    -27.735    585.847    647.875    599.063    585.847    585.847
 52.970    676.609    667.276      9.333    585.937    656.638    596.570    585.937    585.937
 53.070    640.774    679.796    -39.022    586.026    670.761    595.057    586.026    586.026
 53.170    684.383    701.657    -17.273    586.115    693.392    594.374    586.115    586.115
 53.270    741.496    736.857      4.639    586.205    728.663    594.391    586.205    586.205
 53.370    789.000    789.722     -0.722    586.294    780.994    595.013    586.294    586.294
 53.470    893.000    863.420     29.580    586.383    853.673    596.118    586.383    586.383
 53.570    993.000    958.237     34.763    586.472    946.851    597.844    586.472    586.472
 53.670   1078.000   1068.564      9.436    586.561   1055.156    599.952    586.561    586.561
 53.770   1229.951   1180.910     49.041    586.650   1165.407    602.139    586.650    586.650
 53.870   1268.998   1272.644     -3.646    586.738   1255.441    603.932    586.738    586.738
 53.970   1262.000   1316.850    -54.850    586.827   1298.903    604.774    586.827    586.827
 54.070   1278.756   1297.562    -18.806    586.915   1280.152    604.335    586.915    586.915
 54.170   1212.000   1222.565    -10.565    587.003   1206.815    602.772    587.003    587.003
 54.270   1072.870   1116.461    -43.592    587.091   1102.987    600.586    587.091    587.091
 54.370    979.000   1004.371    -25.371    587.179    993.280    598.289    587.179    587.179
 54.470    854.000    903.350    -49.350    587.267    894.404    596.230    587.267    587.267
 54.570    800.000    821.820    -21.820    587.354    814.608    594.578    587.354    587.354
 54.670    727.000    761.623    -34.623    587.442    755.701    593.371    587.442    587.442
 54.770    692.000    720.442    -28.442    587.529    715.414    592.562    587.529    587.529
 54.870    673.000    694.043    -21.043    587.616    689.599    592.061    587.616    587.616
 54.970    728.000    677.998     50.002    587.702    673.920    591.780    587.702    587.702
 55.070    690.233    668.676     21.557    587.788    664.821    591.642    587.788    587.788
 55.170    679.000    663.543     15.457    587.875    659.820    591.596    587.875    587.875
 55.270    639.000    661.045    -22.045    587.960    657.394    591.609    587.960    587.960
 55.370    612.144    660.327    -48.183    588.046    656.705    591.665    588.046    588.046
 55.470    635.000    660.970    -25.970    588.131    657.343    591.755    588.131    588.131
 55.570    672.713    662.808      9.905    588.216    659.146    591.875    588.216    588.216
 55.670    665.000    665.833     -0.833    588.301    662.105    592.025    588.301    588.301
 55.770    666.000    670.160     -4.160    588.385    666.332    592.209    588.385    588.385
 55.870    658.000    676.070    -18.070    588.469    672.102    592.434    588.469    588.469
 55.970    676.000    684.129     -8.129    588.553    679.965    592.712    588.553    588.553
 56.070    684.705    695.440    -10.735    588.636    691.000    593.070    588.636    588.636
 56.170    718.852    712.089      6.763    588.719    707.242    593.558    588.719    588.719
 56.270    780.000    737.795     42.205    588.801    732.321    594.264    588.801    588.801
 56.370    749.831    778.659    -28.828    588.884    772.194    595.331    588.884    588.884
 56.470    835.387    843.673     -8.285    588.965    835.638    596.973    588.965    588.965
 56.570    863.000    944.387    -81.387    589.047    933.931    599.463    589.047    589.047
 56.670   1093.000   1093.062     -0.062    589.128   1079.044    603.090    589.128    589.128
 56.770   1274.000   1298.925    -24.925    589.208   1279.990    608.073    589.208    589.208
 56.870   1535.000   1562.914    -27.914    589.289   1537.686    614.435    589.289    589.289
 56.970   1888.000   1871.964     16.036    589.368   1839.382    621.869    589.368    589.368
 57.070   2211.000   2194.141     16.859    589.448   2153.905    629.622    589.448    589.448
 57.170   2498.000   2476.741     21.259    589.527   2429.797    636.452    589.527    589.527
 57.270   2569.784   2654.028    -84.244    589.605   2602.873    640.808    589.605    589.605
 57.370   2831.000   2673.385    157.615    589.683   2621.738    641.450    589.683    589.683
 57.470   2555.000   2528.500     26.500    589.760   2480.203    638.231    589.760    589.760
 57.570   2333.581   2264.425     69.155    589.837   2222.236    632.219    589.837    589.837
 57.670   1976.000   1947.439     28.561    589.914   1912.550    624.987    589.914    589.914
 57.770   1567.000   1634.493    -67.493    589.990   1606.749    617.892    589.990    589.990
 57.870   1394.022   1362.079     31.943    590.065   1340.444    611.825    590.065    590.065
 57.970   1141.000   1147.124     -6.124    590.140   1130.115    607.239    590.140    590.140
 58.070   1000.000    991.649      8.351    590.215    977.632    604.291    590.215    590.215
 58.170    925.630    888.586     37.044    590.289    875.894    603.015    590.289    590.289
 58.270    819.825    827.419     -7.594    590.362    814.307    603.489    590.362    590.362
 58.370    788.000    798.471    -10.471    590.435    782.957    605.949    590.435    590.435
 58.470    760.000    795.103    -35.103    590.507    774.798    610.799    590.507    590.507
 58.570    784.000    813.921    -29.921    590.578    786.000    618.474    590.578    590.578
 58.670    823.000    853.577    -30.577    590.650    815.019    629.169    590.650    590.650
 58.770    876.397    912.919    -36.522    590.720    861.064    642.527    590.720    590.720
 58.870    985.119    989.108     -3.989    590.790    922.478    657.364    590.790    590.790
 58.970   1054.499   1076.182    -21.683    590.859    995.393    671.592    590.859    590.859
 59.070   1148.000   1164.705    -16.705    590.928   1073.119    682.466    590.928    590.928
 59.170   1224.845   1243.668    -18.823    590.996   1147.188    687.444    590.996    590.996
 59.270   1395.000   1304.455     90.545    591.063   1209.997    685.509    591.063    591.063
 59.370   1327.000   1342.720    -15.720    591.130   1256.118    677.742    591.130    591.130
 59.470   1341.000   1356.185    -15.185    591.196   1281.014    666.397    591.196    591.196
 59.570   1325.000   1344.086    -19.086    591.261   1281.685    653.704    591.261    591.261
 59.670   1301.000   1311.149    -10.149    591.326   1261.106    641.409    591.326    591.326
 59.770   1261.000   1269.487     -8.487    591.390   1230.199    630.701    591.390    591.390
 59.870   1210.850   1233.912    -23.062    591.454   1203.197    622.160    591.454    591.454
 59.970   1265.389   1216.060     49.329    591.517   1191.740    615.787    591.517    591.517
 60.070   1235.000   1222.442     12.558    591.579   1202.705    611.218    591.579    591.579
 60.170   1288.000   1255.731     32.269    591.640   1239.239    607.986    591.640    591.640
 60.270   1426.000   1315.773    110.227    591.701   1301.578    605.700    591.701    591.701
 60.370   1374.522   1397.715    -23.193    591.760   1385.137    604.100    591.760    591.760
 60.470   1558.000   1489.034     68.966    591.820   1477.567    603.017    591.820    591.820
 60.570   1567.531   1568.833     -1.301    591.878   1558.092    602.337    591.878    591.878
 60.670   1681.000   1611.734     69.266    591.936   1601.419    601.982    591.936    591.936
 60.770   1587.000   1597.780    -10.780    591.993   1587.640    601.899    591.993    591.993
 60.870   1639.000   1523.734    115.266    592.049   1513.543    602.054    592.049    592.049
 60.970   1462.000   1404.864     57.136    592.104   1394.401    602.429    592.104    592.104
 61.070   1310.000   1265.214     44.786    592.159   1254.252    603.023    592.159    592.159
 61.170   1050.000   1127.016    -77.016    592.213   1115.293    603.868    592.213    592.213
 61.270    946.281   1005.955    -59.675    592.266    993.127    605.047    592.266    592.266
 61.370    847.000    910.684    -63.684    592.318    896.235    606.729    592.318    592.318
 61.470    780.000    844.175    -64.175    592.370    827.279    609.232    592.370    592.370
 61.570    785.000    805.951    -20.951    592.420    785.245    613.088    592.420    592.420
 61.670    780.000    794.517    -14.517    592.470    767.819    619.120    592.470    592.470
 61.770    817.000    809.273      7.727    592.519    773.270    628.458    592.519    592.519
 61.870    893.305    851.312     41.993    592.567    801.326    642.466    592.567    592.567
 61.970    933.000    922.870     10.130    592.615    852.870    662.498    592.615    592.615
 62.070    993.000   1025.580    -32.580    592.661    928.608    689.480    592.661    592.661
 62.170   1171.000   1158.033     12.967    592.707   1027.172    723.376    592.707    592.707
 62.270   1280.000   1313.324    -33.324    592.751   1143.191    762.658    592.751    592.751
 62.370   1451.000   1477.194    -26.194    592.795   1265.838    803.898    592.795    592.795
 62.470   1562.000   1627.270    -65.270    592.838   1378.217    841.629    592.838    592.838
 62.570   1786.000   1734.920     51.080    592.880   1458.737    868.814    592.880    592.880
 62.670   1617.000   1773.204   -156.204    592.922   1487.088    878.823    592.922    592.922
 62.770   1771.058   1730.764     40.294    592.962   1454.692    868.862    592.962    592.962
 62.870   1629.634   1619.557     10.077    593.001   1370.539    841.892    593.001    593.001
 62.970   1370.000   1466.735    -96.735    593.040   1255.064    804.621    593.040    593.040
 63.070   1231.664   1300.735    -69.071    593.078   1129.676    764.075    593.078    593.078
 63.170   1197.771   1143.491     54.281    593.114   1010.888    725.676    593.114    593.114
 63.270   1016.772   1008.642      8.130    593.150    908.967    692.797    593.150    593.150
 63.370    917.000    902.202     14.798    593.185    828.437    666.928    593.185    593.185
 63.470    794.000    824.209    -30.209    593.219    769.325    648.085    593.219    593.219
 63.570    772.000    770.935      1.065    593.252    728.818    635.351    593.252    593.252
 63.670    791.000    737.088     53.912    593.284    702.929    627.425    593.284    593.284
 63.770    715.050    717.485     -2.436    593.315    687.751    623.030    593.315    593.315
 63.870    722.000    708.157     13.843    593.345    680.284    621.196    593.345    593.345
 63.970    674.000    706.763    -32.763    593.374    678.735    621.379    593.374    593.374
 64.070    723.000    712.632     10.368    593.402    682.511    623.495    593.402    593.402
 64.170    724.000    726.586     -2.586    593.429    692.047    627.933    593.429    593.429
 64.270    814.000    750.656     63.344    593.455    708.523    635.542    593.455    593.455
 64.370    734.701    787.660    -52.959    593.480    733.490    647.589    593.480    593.480
 64.470    872.419    840.572     31.846    593.505    768.375    665.621    593.505    593.505
 64.570    885.000    911.640    -26.640    593.528    813.870    691.192    593.528    593.528
 64.670   1011.000   1001.274      9.726    593.550    869.271    725.418    593.550    593.550
 64.770   1152.000   1106.850     45.150    593.571    931.833    768.424    593.571    593.571
 64.870   1166.073   1221.622    -55.549    593.591    996.257    818.765    593.591    593.591
 64.970   1335.761   1334.186      1.575    593.610   1054.636    872.950    593.610    593.610
 65.070   1479.836   1429.382     50.454    593.628   1097.591    925.203    593.628    593.628
 65.170   1447.180   1491.482    -44.302    593.645   1117.181    967.740    593.645    593.645
 65.270   1630.000   1509.033    120.967    593.661   1110.282    992.230    593.661    593.661
 65.370   1548.000   1479.109     68.891    593.675   1079.810    992.828    593.675    593.675
 65.470   1413.000   1408.724      4.276    593.689   1033.039    969.267    593.689    593.689
 65.570   1254.284   1312.136    -57.853    593.702    978.691    927.077    593.702    593.702
 65.670   1195.000   1205.351    -10.351    593.713    924.393    874.632    593.713    593.713
 65.770   1072.000   1101.409    -29.409    593.724    875.234    819.884    593.724    593.724
 65.870    976.441   1008.479    -32.038    593.733    833.458    768.757    593.733    593.733
 65.970    940.550    930.117     10.433    593.742    799.025    724.847    593.742    593.742
 66.070    895.000    866.636     28.364    593.749    770.721    689.680    593.749    593.749
 66.170    833.192    816.703     16.488    593.755    747.294    663.181    593.755    593.755
 66.270    765.495    778.430    -12.935    593.760    727.965    644.239    593.760    593.760
 66.370    746.775    749.817     -3.042    593.764    712.321    631.269    593.764    593.764
 66.470    690.352    728.945    -38.593    593.767    700.066    622.651    593.767    593.767
 66.570    745.258    714.149     31.109    593.769    690.923    616.995    593.769    593.769
 66.670    695.000    704.121     -9.121    593.769    684.635    613.253    593.769    593.769
 66.770    659.864    697.921    -38.058    593.769    680.982    610.703    593.769    593.769
 66.870    742.233    694.930     47.303    593.767    679.799    608.892    593.767    593.767
 66.970    675.341    694.816    -19.475    593.764    681.022    607.552    593.764    593.764
 67.070    682.000    697.569    -15.569    593.760    684.787    606.535    593.760    593.760
 67.170    679.634    703.612    -23.977    593.755    691.588    605.772    593.755    593.755
 67.270    670.750    713.990    -43.240    593.749    702.489    605.242    593.749    593.749
 67.370    754.000    730.624     23.376    593.742    719.393    604.963    593.742    593.742
 67.470    761.000    756.579      4.421    593.733    745.309    604.990    593.733    593.733
 67.570    791.690    796.270     -4.580    593.723    784.559    605.416    593.723    593.723
 67.670    837.586    855.425    -17.839    593.713    842.747    606.367    593.713    593.713
 67.770    918.000    940.645    -22.645    593.700    926.321    607.994    593.700    593.700
 67.870   1116.730   1058.383     58.347    593.687   1041.591    610.444    593.687    593.687
 67.970   1154.000   1213.334    -59.334    593.673   1193.146    613.823    593.673    593.673
 68.070   1334.924   1406.416    -71.492    593.657   1381.890    618.150    593.657    593.657
 68.170   1631.293   1632.682     -1.390    593.640   1603.002    623.300    593.640    593.640
 68.270   1859.476   1879.555    -20.079    593.622   1844.214    628.970    593.622    593.622
 68.370   2035.000   2125.641    -90.641    593.603   2084.648    634.643    593.603    593.603
 68.470   2267.946   2340.730    -72.784    593.583   2294.823    639.591    593.583    593.583
 68.570   2576.000   2489.146     86.854    593.561   2439.914    642.958    593.561    593.561
 68.670   2615.000   2539.700     75.300    593.538   2489.470    643.992    593.538    593.538
 68.770   2519.000   2480.227     38.773    593.514   2431.606    642.401    593.514    593.514
 68.870   2401.000   2324.791     76.209    593.489   2280.042    638.519    593.489    593.489
 68.970   2184.000   2105.528     78.472    593.462   2066.146    633.117    593.462    593.462
 69.070   1910.896   1858.026     52.870    593.435   1824.660    627.047    593.435    593.435
 69.170   1663.000   1611.867     51.133    593.406   1584.465    621.018    593.406    593.406
 69.270   1410.000   1387.693     22.307    593.376   1365.715    615.523    593.376    593.376
 69.370   1227.000   1197.387     29.613    593.344   1180.013    610.848    593.344    593.344
 69.470   1084.000   1045.323     38.677    593.312   1031.634    607.097    593.312    593.312
 69.570    941.000    930.175     10.825    593.278    919.283    604.237    593.278    593.278
 69.670    867.000    847.005     19.995    593.242    838.144    602.150    593.242    593.242
 69.770    802.705    789.261     13.444    593.206    781.821    600.676    593.206    593.206
 69.870    805.122    750.338     54.784    593.168    743.870    599.655    593.168    593.168
 69.970    768.569    724.555     44.014    593.130    718.737    598.959    593.130    593.130
 70.070    749.000    707.524     41.476    593.089    702.141    598.478    593.089    593.089
 70.170    660.131    696.156    -36.025    593.048    691.069    598.138    593.048    593.048
 70.270    689.000    688.435      0.565    593.005    683.551    597.889    593.005    593.005
 70.370    700.000    683.126     16.874    592.961    678.382    597.703    592.961    592.961
 70.470    715.000    679.516     35.484    592.916    674.865    597.563    592.916    592.916
 70.570    684.697    677.220      7.477    592.870    672.625    597.459    592.870    592.870
 70.670    681.000    676.060      4.940    592.822    671.487    597.388    592.822    592.822
 70.770    662.000    676.002    -14.002    592.773    671.416    597.351    592.773    592.773
 70.870    695.173    677.148     18.025    592.722    672.511    597.350    592.722    592.722
 70.970    606.000    679.763    -73.763    592.671    675.026    597.395    592.671    592.671
 71.070    706.000    684.349     21.651    592.618    679.449    597.503    592.618    592.618
 71.170    661.286    691.755    -30.469    592.564    686.599    597.701    592.564    592.564
 71.270    717.000    703.316     13.684    592.508    697.769    598.032    592.508    592.508
 71.370    721.000    720.995      0.005    592.451    714.857    598.559    592.451    592.451
 71.470    713.000    747.478    -34.478    592.393    740.462    599.368    592.393    592.393
 71.570    855.000    786.154     68.846    592.334    777.864    600.568    592.334    592.334
 71.670    837.000    840.886     -3.886    592.273    830.800    602.283    592.273    592.273
 71.770    917.000    915.513      1.487    592.211    902.988    604.636    592.211    592.211
 71.870   1029.550   1013.069     16.481    592.148    997.362    607.725    592.148    592.148
 71.970   1133.174   1134.777     -1.603    592.083   1115.107    611.590    592.083    592.083
 72.070   1262.000   1278.977    -16.977    592.018   1254.617    616.179    592.018    592.018
 72.170   1474.000   1440.150     33.850    591.950   1410.550    621.318    591.950    591.950
 72.270   1581.000   1608.172    -27.172    591.882   1573.106    626.686    591.882    591.882
 72.370   1817.958   1767.968     49.990    591.812   1727.695    631.805    591.812    591.812
 72.470   1958.224   1900.146     58.078    591.741   1855.545    636.060    591.741    591.741
 72.570   2002.682   1983.924     18.759    591.668   1936.535    638.790    591.668    591.668
 72.670   1941.000   2003.304    -62.304    591.595   1955.175    639.487    591.595    591.595
 72.770   1932.000   1954.108    -22.108    591.520   1907.408    638.021    591.520    591.520
 72.870   1835.000   1846.205    -11.205    591.443   1802.783    634.708    591.443    591.443
 72.970   1635.207   1698.665    -63.458    591.365   1659.756    630.154    591.365    591.365
 73.070   1467.000   1532.346    -65.346    591.286   1498.526    625.017    591.286    591.286
 73.170   1345.000   1364.980    -19.980    591.206   1336.269    619.853    591.206    591.206
 73.270   1269.112   1209.451     59.661    591.124   1185.475    615.055    591.124    591.124
 73.370   1013.124   1073.750    -60.626    591.041   1053.902    610.857    591.041    591.041
 73.470   1005.000    961.555     43.445    590.957    945.131    607.357    590.957    590.957
 73.570    848.163    873.111    -24.949    590.871    859.408    604.555    590.871    590.871
 73.670    833.000    806.279     26.721    590.784    794.654    602.392    590.784    590.784
 73.770    780.000    757.599     22.401    590.696    747.497    600.783    590.696    590.696
 73.870    766.000    723.204     42.796    590.606    714.159    599.638    590.606    590.606
 73.970    725.000    699.468     25.532    590.515    691.092    598.879    590.515    590.515
 74.070    641.367    683.379    -42.012    590.422    675.345    598.446    590.422    590.422
 74.170    719.000    672.662     46.338    590.329    664.679    598.303    590.329    590.329
 74.270    703.283    665.734     37.549    590.234    657.526    598.436    590.234    590.234
 74.370    689.054    661.565     27.490    590.137    652.857    598.841    590.137    590.137
 74.470    626.000    659.513    -33.513    590.040    650.030    599.523    590.040    590.040
 74.570    665.000    659.170      5.830    589.941    648.638    600.478    589.941    589.941
 74.670    649.000    660.232    -11.232    589.840    648.393    601.688    589.840    589.840
 74.770    645.000    662.404    -17.404    589.738    649.045    603.111    589.738    589.738
 74.870    703.600    665.338     38.262    589.635    650.318    604.675    589.635    589.635
 74.970    664.000    668.592     -4.592    589.531    651.878    606.270    589.531    589.531
 75.070    636.000    671.621    -35.621    589.425    653.322    607.755    589.425    589.425
 75.170    679.462    673.817      5.645    589.318    654.202    608.969    589.318    589.318
 75.270    703.000    674.646     28.354    589.210    654.122    609.771    589.210    589.210
 75.370    734.000    673.846     60.154    589.100    652.878    610.105    589.100    589.100
 75.470    700.190    671.574     28.616    588.989    650.558    610.039    588.989    588.989
 75.570    671.916    668.381      3.535    588.876    647.518    609.769    588.876    588.876
 75.670    671.000    665.053      5.947    588.763    644.269    609.571    588.763    588.763
 75.770    614.711    662.466    -47.754    588.648    641.361    609.769    588.648    588.648
 75.870    665.000    661.516      3.484    588.531    639.336    610.720    588.531    588.531
 75.970    690.000    663.118     26.882    588.413    638.715    612.817    588.413    588.413
 76.070    703.000    668.200     34.800    588.294    640.000    616.486    588.294    588.294
 76.170    688.000    677.683     10.317    588.174    643.667    622.172    588.174    588.174
 76.270    713.940    692.415     21.526    588.052    650.137    630.300    588.052    588.052
 76.370    719.000    713.056      5.944    587.929    659.727    641.216    587.929    587.929
 76.470    687.893    739.926    -52.033    587.805    672.574    655.101    587.805    587.805
 76.570    804.011    772.825     31.186    587.679    688.552    671.882    587.679    587.679
 76.670    792.000    810.851    -18.851    587.552    707.187    691.133    587.552    587.552
 76.770    851.113    852.256     -1.142    587.423    727.578    712.003    587.423    587.423
 76.870    869.000    894.330    -25.330    587.293    748.351    733.163    587.293    587.293
 76.970    953.000    933.389     19.611    587.162    767.641    752.792    587.162    587.162
 77.070   1010.000    964.988     45.012    587.030    783.212    768.683    587.030    587.030
 77.170   1025.000    984.582     40.418    586.896    792.773    778.583    586.896    586.896
 77.270    983.000    988.801     -5.801    586.761    794.626    780.821    586.761    586.761
 77.370    991.000    976.778     14.222    586.625    788.333    774.965    586.625    586.625
 77.470    932.654    950.548    -17.894    586.487    774.913    762.031    586.487    586.487
 77.570    927.000    914.158     12.842    586.348    756.397    744.031    586.348    586.348
 77.670    869.000    872.225     -3.225    586.208    735.103    723.266    586.208    586.208
 77.770    831.000    828.887      2.113    586.066    713.107    701.793    586.066    586.066
 77.870    784.000    787.351     -3.351    585.923    692.021    681.210    585.923    585.923
 77.970    795.311    749.817     45.493    585.779    672.950    662.613    585.779    585.779
 78.070    717.706    717.552      0.154    585.633    656.527    646.632    585.633    585.633
 78.170    725.036    691.018     34.019    585.486    642.984    633.498    585.486    585.486
 78.270    629.417    670.055    -40.639    585.338    632.242    623.133    585.338    585.338
 78.370    634.000    654.082    -20.082    585.189    624.007    615.249    585.189    585.189
 78.470    645.000    642.290      2.710    585.038    617.871    609.443    585.038    585.038
 78.570    647.000    633.813     13.187    584.886    613.399    605.287    584.886    584.886
 78.670    588.000    627.841    -39.841    584.732    610.184    602.378    584.732    584.732
 78.770    628.000    623.691      4.309    584.577    607.880    600.378    584.577    584.577
 78.870    638.000    620.831     17.169    584.421    606.220    599.022    584.421    584.421
 78.970    570.286    618.873    -48.587    584.264    605.007    598.119    584.264    584.264
 79.070    617.000    617.551     -0.551    584.106    604.108    597.538    584.106    584.106
 79.170    574.814    616.697    -41.882    583.946    603.435    597.197    583.946    583.946
 79.270    619.774    616.213      3.561    583.785    602.940    597.048    583.785    583.785
 79.370    568.677    616.056    -47.379    583.622    602.596    597.073    583.622    583.622
 79.470    610.000    616.221     -6.221    583.458    602.397    597.272    583.458    583.458
 79.570    626.000    616.738      9.262    583.293    602.352    597.669    583.293    583.293
 79.670    616.000    617.676     -1.676    583.127    602.481    598.311    583.127    583.127
 79.770    650.000    619.147     30.853    582.960    602.815    599.280    582.960    582.960
 79.870    559.000    621.326    -62.326    582.791    603.398    600.706    582.791    582.791
 79.970    652.903    624.469     28.434    582.621    604.288    602.789    582.621    582.621
 80.070    618.000    628.951    -10.951    582.450    605.559    605.826    582.450    582.450
 80.170    619.000    635.293    -16.293    582.277    607.308    610.244    582.277    582.277
 80.270    620.055    644.204    -24.149    582.103    609.661    616.626    582.103    582.103
 80.370    626.000    656.596    -30.596    581.928    612.774    625.725    581.928    581.928
 80.470    664.064    673.577     -9.513    581.752    616.842    638.457    581.752    581.752
 80.570    687.029    696.396     -9.367    581.574    622.087    655.846    581.574    581.574
 80.670    711.000    726.329    -15.329    581.396    628.754    678.926    581.396    581.396
 80.770    774.236    764.513      9.722    581.216    637.096    708.581    581.216    581.216
 80.870    810.112    811.740     -1.628    581.034    647.356    745.358    581.034    581.034
 80.970    814.149    868.213    -54.065    580.852    659.745    789.252    580.852    580.852
 81.070    984.710    933.294     51.416    580.668    674.395    839.492    580.668    580.668
 81.170   1031.000   1005.246     25.754    580.483    691.281    894.369    580.483    580.483
 81.270   1074.124   1081.059     -6.935    580.297    710.139    951.136    580.297    580.297
 81.370   1219.000   1156.436     62.564    580.110    730.416   1006.052    580.110    580.110
 81.470   1202.299   1226.054    -23.755    579.921    751.264   1054.640    579.921    579.921
 81.570   1220.351   1284.215    -63.864    579.731    771.615   1092.273    579.731    579.731
 81.670   1394.000   1325.838     68.162    579.541    790.294   1115.042    579.541    579.541
 81.770   1288.921   1347.688    -58.767    579.348    806.334   1120.677    579.348    579.348
 81.870   1417.000   1348.578     68.422    579.155    818.875   1108.853    579.155    579.155
 81.970   1424.000   1329.469     94.531    578.961    827.354   1081.088    578.961    578.961
 82.070   1317.000   1293.086     23.914    578.765    831.537   1040.344    578.765    578.765
 82.170   1303.000   1243.428     59.572    578.568    831.488    990.553    578.568    578.568
 82.270   1229.000   1185.058     43.942    578.370    827.444    936.041    578.370    578.370
 82.370   1124.000   1122.341      1.659    578.171    819.692    880.885    578.171    578.171
 82.470   1058.000   1058.948     -0.948    577.971    808.574    828.415    577.971    577.971
 82.570   1011.000    997.742     13.258    577.769    794.607    780.976    577.769    577.769
 82.670    935.483    940.815     -5.332    577.566    778.540    739.911    577.566    577.566
 82.770    905.000    889.488     15.512    577.363    761.229    705.688    577.363    577.363
 82.870    772.000    844.321    -72.321    577.158    743.448    678.092    577.158    577.158
 82.970    772.000    805.228    -33.228    576.952    725.785    656.450    576.952    576.952
 83.070    750.000    771.740    -21.740    576.744    708.678    639.856    576.744    576.744
 83.170    743.000    743.282     -0.282    576.536    692.505    627.354    576.536    576.536
 83.270    666.000    719.353    -53.353    576.327    677.643    618.070    576.327    576.327
 83.370    684.000    699.578    -15.578    576.116    664.447    611.272    576.116    576.116
 83.470    653.000    683.684    -30.684    575.904    653.213    606.392    575.904    575.904
 83.570    717.353    671.459     45.894    575.692    644.148    603.012    575.692    575.692
 83.670    676.861    662.717     14.144    575.478    637.356    600.838    575.478    575.478
 83.770    696.367    657.261     39.105    575.263    632.846    599.669    575.263    575.263
 83.870    622.000    654.853    -32.853    575.047    630.524    599.357    575.047    575.047
 83.970    600.000    655.175    -55.175    574.830    630.203    599.775    574.830    574.830
 84.070    618.388    657.813    -39.425    574.612    631.596    600.793    574.612    574.612
 84.170    627.000    662.234    -35.234    574.393    634.324    602.259    574.393    574.393
 84.270    623.000    667.787    -44.787    574.172    637.919    603.990    574.172    574.172
 84.370    659.000    673.711    -14.711    573.951    641.838    605.766    573.951    573.951
 84.470    654.000    679.164    -25.164    573.729    645.487    607.343    573.729    573.729
 84.570    688.357    683.285      5.071    573.505    648.263    608.463    573.505    573.505
 84.670    653.000    685.311    -32.311    573.281    649.629    608.897    573.281    573.281
 84.770    668.000    684.731    -16.731    573.055    649.228    608.494    573.055    573.055
 84.870    622.000    681.416    -59.416    572.829    646.963    607.221    572.829    572.829
 84.970    643.000    675.650    -32.650    572.601    643.019    605.176    572.601    572.601
 85.070    628.000    668.009    -40.009    572.373    637.781    602.550    572.373    572.373
 85.170    672.765    659.200     13.564    572.143    631.720    599.579    572.143    572.143
 85.270    625.300    649.928    -24.627    571.913    625.303    596.498    571.913    571.913
 85.370    592.000    640.811    -48.811    571.681    618.935    593.522    571.681    571.681
 85.470    584.000    632.349    -48.349    571.449    612.936    590.831    571.449    571.449
 85.570    566.000    624.917    -58.917    571.216    607.531    588.573    571.216    571.216
 85.670    594.726    618.763    -24.037    570.981    602.856    586.863    570.981    570.981
 85.770    626.000    614.028     11.972    570.746    598.967    585.783    570.746    570.746
 85.870    587.000    610.763    -23.763    570.510    595.856    585.394    570.510    570.510
 85.970    594.915    608.952    -14.036    570.272    593.469    585.731    570.272    570.272
 86.070    584.015    608.531    -24.516    570.034    591.730    586.810    570.034    570.034
 86.170    626.000    609.408     16.592    569.795    590.556    588.621    569.795    569.795
 86.270    616.483    611.469      5.014    569.555    589.872    591.124    569.555    569.555
 86.370    634.558    614.584     19.974    569.314    589.623    594.244    569.314    569.314
 86.470    633.000    618.609     14.391    569.073    589.784    597.863    569.073    569.073
 86.570    652.000    623.380     28.620    568.830    590.360    601.811    568.830    568.830
 86.670    623.434    628.716     -5.282    568.586    591.392    605.867    568.586    568.586
 86.770    674.615    634.415     40.200    568.342    592.950    609.759    568.342    568.342
 86.870    624.000    640.263    -16.263    568.097    595.136    613.171    568.097    568.097
 86.970    591.000    646.052    -55.052    567.851    598.072    615.772    567.851    567.851
 87.070    689.000    651.618     37.382    567.604    601.893    617.265    567.604    567.604
 87.170    673.000    656.895     16.105    567.356    606.728    617.453    567.356    567.356
 87.270    709.000    661.948     47.052    567.107    612.686    616.293    567.107    567.107
 87.370    672.721    666.959      5.762    566.858    619.828    613.904    566.858    566.858
 87.470    661.000    672.157    -11.157    566.607    628.143    610.528    566.607    566.607
 87.570    653.745    677.729    -23.984    566.356    637.523    606.460    566.356    566.356
 87.670    733.138    683.739     49.399    566.104    647.741    601.990    566.104    566.104
 87.770    698.000    690.084      7.916    565.852    658.434    597.380    565.852    565.852
 87.870    673.579    696.476    -22.897    565.598    669.099    592.844    565.598    565.598
 87.970    695.000    702.443     -7.443    565.344    679.094    588.552    565.344    565.344
 88.070    773.000    707.363     65.637    565.089    687.679    584.627    565.089    565.089
 88.170    710.808    710.556      0.251    564.833    694.100    581.141    564.833    564.833
 88.270    695.588    711.441    -15.853    564.577    697.746    578.126    564.577    564.577
 88.370    672.000    709.705    -37.705    564.320    698.311    575.574    564.320    564.320
 88.470    702.187    705.417     -3.231    564.062    695.895    573.453    564.062    564.062
 88.570    670.891    698.999    -28.108    563.803    690.968    571.717    563.803    563.803
 88.670    718.707    691.100     27.607    563.544    684.229    570.312    563.544    563.544
 88.770    699.000    682.457     16.543    563.284    676.469    569.184    563.284    563.284
 88.870    685.000    673.800     11.200    563.023    668.465    568.286    563.023    563.023
 88.970    702.000    665.793     36.207    562.762    660.922    567.575    562.762    562.762
 89.070    626.423    659.004    -32.582    562.499    654.443    567.017    562.499    562.499
 89.170    684.000    653.865     30.135    562.237    649.487    566.584    562.237    562.237
 89.270    688.440    650.641     37.800    561.973    646.342    566.253    561.973    561.973
 89.370    609.122    649.425    -40.303    561.709    645.122    566.004    561.709    561.709
 89.470    678.292    650.134     28.158    561.445    645.761    565.820    561.445    561.445
 89.570    630.000    652.519    -22.519    561.180    648.026    565.685    561.180    561.180
 89.670    634.000    656.184    -22.184    560.914    651.538    565.579    560.914    560.914
 89.770    641.106    660.604    -19.498    560.647    655.794    565.486    560.647    560.647
 89.870    680.000    665.158     14.842    560.381    660.192    565.384    560.381    560.381
 89.970    665.000    669.170     -4.170    560.113    664.075    565.251    560.113    560.113
 90.070    648.495    671.973    -23.478    559.845    666.799    565.067    559.845    559.845
 90.170    643.513    673.008    -29.495    559.576    667.821    564.816    559.576    559.576
 90.270    651.000    671.932    -20.932    559.307    666.807    564.487    559.307    559.307
 90.370    682.000    668.686     13.314    559.037    663.698    564.080    559.037    559.037
 90.470    635.980    663.490    -27.510    558.767    658.706    563.604    558.767    558.767
 90.570    685.340    656.763     28.578    558.497    652.235    563.074    558.497    558.497
 90.670    645.000    649.015     -4.015    558.225    644.775    562.509    558.225    558.225
 90.770    618.000    640.756    -22.756    557.954    636.821    561.927    557.954    557.954
 90.870    625.875    632.443     -6.568    557.682    628.812    561.344    557.682    557.682
 90.970    609.000    624.452    -15.452    557.409    621.113    560.773    557.409    557.409
 91.070    662.428    617.069     45.359    557.136    613.999    560.225    557.136    557.136
 91.170    550.000    610.490    -60.490    556.863    607.660    559.705    556.863    556.863
 91.270    600.000    604.827     -4.827    556.589    602.204    559.219    556.589    556.589
 91.370    617.000    600.121     16.879    556.314    597.671    558.767    556.314    556.314
 91.470    613.338    596.355     16.983    556.040    594.044    558.349    556.040    556.040
 91.570    593.000    593.474     -0.474    555.765    591.271    557.963    555.765    555.765
 91.670    595.000    591.403      3.597    555.489    589.278    557.606    555.489    555.489
 91.770    613.000    590.063     22.937    555.214    587.990    557.276    555.214    555.214
 91.870    602.056    589.386     12.670    554.937    587.340    556.971    554.937    554.937
 91.970    558.434    589.327    -30.893    554.661    587.286    556.688    554.661    554.661
 92.070    590.800    589.872      0.928    554.384    587.813    556.428    554.384    554.384
 92.170    548.585    591.043    -42.458    554.107    588.941    556.192    554.107    554.107
 92.270    587.627    592.897     -5.270    553.830    590.726    555.981    553.830    553.830
 92.370    595.000    595.529     -0.529    553.552    593.260    555.799    553.552    553.552
 92.470    602.000    599.065      2.935    553.274    596.664    555.651    553.274    553.274
 92.570    622.000    603.654     18.346    552.996    601.082    555.541    552.996    552.996
 92.670    612.000    609.461      2.539    552.718    606.674    555.474    552.718    552.718
 92.770    625.000    616.650      8.350    552.439    613.598    555.456    552.439    552.439
 92.870    651.000    625.371     25.629    552.160    622.002    555.489    552.160    552.160
 92.970    641.000    635.744      5.256    551.881    632.001    555.577    551.881    551.881
 93.070    620.915    647.839    -26.923    551.602    643.668    555.720    551.602    551.602
 93.170    615.728    661.663    -45.935    551.323    657.010    555.916    551.323    551.323
 93.270    684.000    677.148      6.852    551.043    671.965    556.159    551.043    551.043
 93.370    658.560    694.137    -35.577    550.763    688.381    556.444    550.763    550.763
 93.470    731.000    712.377     18.623    550.483    706.015    556.762    550.483    550.483
 93.570    768.106    731.517     36.589    550.203    724.523    557.106    550.203    550.203
 93.670    756.000    751.098      4.902    549.923    743.456    557.469    549.923    549.923
 93.770    783.000    770.665     12.335    549.643    762.357    557.848    549.643    549.643
 93.870    732.000    789.737    -57.737    549.363    780.741    558.251    549.363    549.363
 93.970    776.408    807.959    -31.551    549.083    798.233    558.697    549.083    549.083
 94.070    807.597    825.203    -17.606    548.802    814.667    559.225    548.802    548.802
 94.170    856.118    841.600     14.518    548.522    830.117    559.891    548.522    548.522
 94.270    818.000    857.479    -39.479    548.242    844.838    560.767    548.242    548.242
 94.370    843.000    873.232    -30.232    547.961    859.147    561.932    547.961    547.961
 94.470    861.000    889.179    -28.179    547.681    873.287    563.459    547.681    547.681
 94.570    914.000    905.471      8.529    547.401    887.346    565.412    547.401    547.401
 94.670    901.750    922.076    -20.326    547.120    901.255    567.829    547.120    547.120
 94.770    932.000    938.833     -6.833    546.840    914.846    570.716    546.840    546.840
 94.870    931.000    955.535    -24.535    546.560    927.942    574.043    546.560    546.560
 94.970    959.000    971.964    -12.964    546.280    940.401    577.735    546.280    546.280
 95.070   1046.780    987.855     58.925    546.000    952.077    581.673    546.000    546.000
 95.170   1061.444   1002.793     58.652    545.720    962.719    585.692    545.720    545.720
 95.270   1027.000   1016.116     10.884    545.440    971.873    589.587    545.440    545.440
 95.370   1024.895   1026.885     -1.991    545.161    978.835    593.121    545.161    545.161
 95.470   1084.000   1033.940     50.060    544.881    982.699    596.040    544.881    544.881
 95.570   1058.000   1036.063     21.937    544.602    982.490    598.101    544.602    544.602
 95.670   1061.000   1032.242     28.758    544.323    977.391    599.109    544.323    544.323
 95.770   1071.000   1021.915     49.085    544.044    966.959    598.946    544.044    544.044
 95.870    966.833   1005.196    -38.363    543.765    951.313    597.604    543.765    543.765
 95.970    957.247    982.901    -25.654    543.487    931.167    595.185    543.487    543.487
 96.070   1001.397    956.415     44.982    543.209    907.718    591.878    543.209    543.209
 96.170    929.000    927.473      1.527    542.931    882.460    587.920    542.931    542.931
 96.270    910.000    897.939     12.061    542.654    857.006    583.566    542.654    542.654
 96.370    902.000    869.659     32.341    542.376    832.959    579.057    542.376    542.376
 96.470    875.000    844.366     30.634    542.100    811.838    574.608    542.100    542.100
 96.570    847.000    823.633     23.367    541.823    795.039    570.394    541.823    541.823
 96.670    843.000    808.842     34.158    541.547    783.810    566.551    541.547    541.547
 96.770    811.000    801.171      9.829    541.271    779.237    563.170    541.271    541.271
 96.870    835.000    801.585     33.415    540.996    782.235    560.303    540.996    540.996
 96.970    875.000    810.830     64.170    540.721    793.532    557.967    540.721    540.721
 97.070    874.000    829.424     44.576    540.446    813.660    556.148    540.446    540.446
 97.170    829.649    857.637    -27.988    540.172    842.918    554.817    540.172    540.172
 97.270    907.000    895.446     11.554    539.898    881.332    553.927    539.898    539.898
 97.370    978.644    942.568     36.076    539.625    928.666    553.429    539.625    539.625
 97.470   1057.529    998.408     59.121    539.353    984.380    553.271    539.353    539.353
 97.570   1050.000   1061.877    -11.877    539.080   1047.442    553.395    539.080    539.080
 97.670   1086.312   1131.472    -45.160    538.809   1116.407    553.743    538.809    538.809
 97.770   1171.839   1205.223    -33.384    538.538   1189.368    554.254    538.538    538.538
 97.870   1257.622   1280.629    -23.007    538.267   1263.890    554.863    538.267    538.267
 97.970   1357.000   1354.687      2.313    537.997   1337.040    555.499    537.997    537.997
 98.070   1466.753   1423.944     42.809    537.728   1405.440    556.089    537.728    537.728
 98.170   1420.740   1484.645    -63.905    537.459   1465.414    556.554    537.459    537.459
 98.270   1568.000   1533.028     34.972    537.191   1513.274    556.819    537.191    537.191
 98.370   1607.730   1565.785     41.945    536.924   1545.779    556.820    536.924    536.924
 98.470   1590.000   1580.618      9.382    536.657   1560.673    556.510    536.657    536.657
 98.570   1600.339   1576.698     23.641    536.391   1557.141    555.876    536.391    536.391
 98.670   1598.000   1554.831     43.169    536.126   1535.973    554.931    536.126    536.126
 98.770   1491.112   1517.257    -26.145    535.862   1499.365    553.718    535.862    535.862
 98.870   1462.000   1467.195     -5.195    535.598   1450.474    552.298    535.598    535.598
 98.970   1482.000   1408.337     73.663    535.335   1392.923    550.738    535.335    535.335
 99.070   1345.000   1344.441      0.559    535.073   1330.406    549.106    535.073    535.073
 99.170   1258.000   1279.068    -21.068    534.811   1266.418    547.464    534.811    534.811
 99.270   1224.688   1215.424      9.264    534.551   1204.112    545.866    534.551    534.551
 99.370   1141.000   1156.290    -15.290    534.291   1146.225    544.359    534.291    534.291
 99.470   1160.762   1104.005     56.757    534.032   1095.058    542.977    534.032    534.032
 99.570   1019.000   1060.484    -41.484    533.774   1052.502    541.749    533.774    533.774
 99.670    995.493   1027.253    -31.760    533.517   1020.064    540.692    533.517    533.517
 99.770    995.000   1005.488    -10.488    533.261    998.912    539.816    533.261    533.261
 99.870    960.000    996.042    -36.042    533.006    989.896    539.123    533.006    533.006
 99.970    970.000    999.459    -29.459    532.751    993.564    538.609    532.751    532.751
100.070   1036.909   1015.984     20.926    532.498   1010.173    538.265    532.498    532.498
100.170   1052.000   1045.569      6.431    532.246   1039.688    538.078    532.246    532.246
100.270   1103.000   1087.878     15.122    531.995   1081.790    538.029    531.995    531.995
100.370   1151.702   1142.275      9.427    531.745   1135.865    538.098    531.745    531.745
100.470   1294.000   1207.814     86.186    531.496   1200.990    538.262    531.496    531.496
100.570   1319.209   1283.210     35.999    531.248   1275.907    538.496    531.248    531.248
100.670   1373.000   1366.809      6.191    531.001   1358.988    538.771    531.001    531.001
100.770   1485.291   1456.550     28.741    530.755   1448.202    539.061    530.755    530.755
100.870   1619.547   1549.987     69.560    530.511   1541.133    539.333    530.511    530.511
100.970   1710.000   1644.328     65.672    530.267   1635.018    539.560    530.267    530.267
101.070   1800.426   1736.519     63.907    530.025   1726.831    539.714    530.025    530.025
101.170   1895.000   1823.515     71.485    529.784   1813.547    539.771    529.784    529.784
101.270   1926.000   1902.543     23.457    529.544   1892.409    539.719    529.544    529.544
101.370   1935.401   1971.343    -35.942    529.306   1961.156    539.554    529.306    529.306
101.470   2012.001   2028.242    -16.241    529.069   2018.108    539.284    529.069    529.069
101.570   2051.000   2072.048    -21.048    528.833   2062.053    538.928    528.833    528.833
101.670   2069.614   2101.831    -32.217    528.598   2092.035    538.512    528.598    528.598
101.770   2060.000   2116.743    -56.743    528.365   2107.178    538.062    528.365    528.365
101.870   2103.000   2116.023    -13.023    528.133   2106.694    537.607    528.133    528.133
101.970   2081.052   2099.226    -18.174    527.903   2090.113    537.171    527.903    527.903
102.070   2059.000   2066.601     -7.601    527.674   2057.662    536.774    527.674    527.674
102.170   2000.000   2019.425    -19.425    527.446   2010.604    536.431    527.446    527.446
102.270   1949.000   1960.103    -11.103    527.220   1951.332    536.154    527.220    527.220
102.370   1869.593   1891.934    -22.342    526.995   1883.144    535.945    526.995    526.995
102.470   1765.000   1818.662    -53.662    526.772   1809.783    535.802    526.772    526.772
102.570   1754.092   1743.964     10.128    526.550   1734.938    535.717    526.550    526.550
102.670   1651.000   1671.065    -20.065    526.330   1661.847    535.677    526.330    526.330
102.770   1537.000   1602.496    -65.496    526.112   1593.063    535.662    526.112    526.112
102.870   1450.000   1540.009    -90.009    525.895   1530.355    535.654    525.895    525.895
102.970   1429.000   1484.563    -55.563    525.680   1474.704    535.632    525.680    525.680
103.070   1471.000   1436.367     34.633    525.466   1426.338    535.578    525.466    525.466
103.170   1308.000   1394.945    -86.945    525.254   1384.796    535.477    525.254    525.254
103.270   1319.000   1359.225    -40.225    525.044   1349.018    535.317    525.044    525.044
103.370   1360.244   1327.663     32.581    524.835   1317.473    535.086    524.835    524.835
103.470   1255.000   1298.425    -43.425    524.628   1288.335    534.775    524.628    524.628
103.570   1283.000   1269.634     13.366    524.423   1259.738    534.375    524.423    524.423
103.670   1241.000   1239.621      1.379    524.219   1230.011    533.884    524.219    524.219
103.770   1273.435   1207.165     66.271    524.018   1197.935    533.302    524.018    524.018
103.870   1140.000   1171.644    -31.644    523.818   1162.877    532.639    523.818    523.818
103.970   1084.000   1133.033    -49.033    523.620   1124.799    531.908    523.620    523.620
104.070   1107.000   1091.791     15.209    523.424   1084.140    531.127    523.424    523.424
104.170   1053.000   1048.689      4.311    523.230   1041.652    530.316    523.230    523.230
104.270    939.000   1004.643    -65.643    523.038    998.233    529.494    523.038    523.038
104.370    961.000    960.595      0.405    522.848    954.806    528.678    522.848    522.848
104.470    897.000    917.430    -20.430    522.659    912.243    527.883    522.659    522.659
104.570    832.138    875.933    -43.795    522.473    871.316    527.120    522.473    522.473
104.670    860.000    836.760     23.240    522.289    832.675    526.398    522.289    522.289
104.770    774.108    800.428    -26.320    522.107    796.828    525.724    522.107    522.107
104.870    726.514    767.303    -40.789    521.927    764.140    525.102    521.927    521.927
104.970    781.925    737.602     44.322    521.749    734.826    524.531    521.749    521.749
105.070    774.000    711.382     62.618    521.573    708.950    524.005    521.573    521.573
105.170    781.000    688.662     92.338    521.399    686.519    523.537    521.399    521.399
105.270    639.390    669.277    -29.887    521.227    667.377    523.117    521.227    521.227
105.370    695.222    653.008     42.214    521.058    651.309    522.742    521.058    521.058
105.470    637.000    639.590     -2.590    520.891    638.055    522.406    520.891    520.891
105.570    623.000    628.735     -5.735    520.726    627.331    522.106    520.726    520.726
105.670    647.000    620.151     26.849    520.563    618.850    521.837    520.563    520.563
105.770    612.460    613.562     -1.103    520.403    612.340    521.596    520.403    520.403
105.870    626.000    608.720     17.280    520.245    607.554    521.379    520.245    520.245
105.970    565.686    605.414    -39.728    520.089    604.284    521.183    520.089    520.089
106.070    642.000    603.472     38.528    519.936    602.363    521.007    519.936    519.936
106.170    647.000    602.767     44.233    519.785    601.663    520.848    519.785    519.785
106.270    580.244    603.209    -22.965    519.637    602.097    520.705    519.637    519.637
106.370    608.000    604.746      3.254    519.491    603.611    520.579    519.491    519.491
106.470    618.000    607.351     10.649    519.347    606.181    520.467    519.347    519.347
106.570    649.169    611.021     38.148    519.206    609.803    520.371    519.206    519.206
106.670    674.000    615.767     58.233    519.068    614.488    520.291    519.068    519.068
106.770    624.000    621.607      2.393    518.932    620.253    520.226    518.932    518.932
106.870    633.000    628.555      4.445    518.798    627.113    520.177    518.798    518.798
106.970    657.000    636.616     20.384    518.668    635.072    520.145    518.668    518.668
107.070    651.000    645.774      5.226    518.540    644.115    520.127    518.540    518.540
107.170    693.693    655.982     37.710    518.414    654.196    520.125    518.414    518.414
107.270    716.318    667.157     49.161    518.292    665.232    520.137    518.292    518.292
107.370    657.082    679.165    -22.083    518.172    677.093    520.161    518.172    518.172
107.470    739.000    691.828     47.172    518.055    689.601    520.194    518.055    518.055
107.570    717.000    704.913     12.087    517.940    702.528    520.234    517.940    517.940
107.670    682.000    718.140    -36.140    517.829    715.597    520.277    517.829    517.829
107.770    731.000    731.181     -0.181    517.720    728.486    520.318    517.720    517.720
107.870    784.000    743.673     40.327    517.614    740.837    520.351    517.614    517.614
107.970    795.000    755.232     39.768    517.511    752.270    520.373    517.511    517.511
108.070    761.000    765.479     -4.479    517.411    762.413    520.377    517.411    517.411
108.170    750.000    774.073    -24.073    517.314    770.930    520.358    517.314    517.314
108.270    758.513    780.762    -22.249    517.220    777.571    520.313    517.220    517.220
108.370    824.249    785.419     38.830    517.129    782.213    520.239    517.129    517.129
108.470    808.603    788.076     20.526    517.041    784.889    520.135    517.041    517.041
108.570    745.000    788.929    -43.929    516.956    785.791    520.004    516.956    516.956
108.670    798.893    788.306     10.587    516.874    785.244    519.850    516.874    516.874
108.770    770.000    786.625    -16.625    516.795    783.662    519.676    516.795    516.795
108.870    745.104    784.341    -39.237    516.720    781.493    519.489    516.720    516.720
108.970    735.000    781.890    -46.890    516.647    779.168    519.295    516.647    516.647
109.070    757.000    779.657    -22.657    516.578    777.066    519.098    516.578    516.578
109.170    824.000    777.946     46.054    516.512    775.486    518.903    516.512    516.512
109.270    798.353    776.966     21.388    516.450    774.635    518.715    516.450    516.450
109.370    804.000    776.820     27.180    516.390    774.611    518.537    516.390    516.390
109.470    824.906    777.505     47.402    516.334    775.410    518.370    516.334    516.334
109.570    745.297    778.907    -33.609    516.282    776.915    518.217    516.282    516.282
109.670    751.224    780.809    -29.585    516.232    778.911    518.077    516.232    516.232
109.770    723.000    782.901    -59.901    516.186    781.087    517.950    516.186    516.186
109.870    727.000    784.796    -57.796    516.144    783.056    517.836    516.144    516.144
109.970    733.000    786.059    -53.059    516.105    784.387    517.732    516.105    516.105
110.070    776.000    786.251    -10.251    516.070    784.640    517.637    516.070    516.070
110.170    751.000    784.975    -33.975    516.038    783.423    517.549    516.038    516.038
110.270    801.405    781.932     19.472    516.010    780.437    517.465    516.010    516.010
110.370    815.602    776.958     38.644    515.985    775.524    517.380    515.985    515.985
110.470    742.259    770.057    -27.798    515.964    768.687    517.296    515.964    515.964
110.570    762.000    761.391      0.609    515.947    760.077    517.222    515.947    515.947
110.670    771.000    751.215     19.785    515.933    749.958    517.151    515.933    515.933
110.770    707.449    739.867    -32.418    515.923    738.666    517.084    515.923    515.923
110.870    707.000    727.712    -20.712    515.917    726.566    517.021    515.917    515.917
110.970    698.000    715.116    -17.116    515.915    714.024    516.963    515.915    515.915
111.070    686.000    702.421    -16.421    515.916    701.380    516.911    515.916    515.916
111.170    650.000    689.933    -39.933    515.922    688.939    516.866    515.922    515.922
111.270    704.000    677.910     26.090    515.931    676.961    516.827    515.931    515.931
111.370    679.000    666.576     12.424    515.944    665.668    516.797    515.944    515.944
111.470    698.359    656.111     42.247    515.961    655.240    516.775    515.961    515.961
111.570    643.000    646.635     -3.635    515.982    645.795    516.762    515.982    515.982
111.670    628.374    638.230     -9.856    516.008    637.416    516.757    516.008    516.008
111.770    690.000    630.937     59.063    516.037    630.145    516.762    516.037    516.037
111.870    608.000    624.760    -16.760    516.070    623.985    516.775    516.070    516.070
111.970    628.000    619.673      8.327    516.108    618.910    516.797    516.108    516.108
112.070    608.034    615.625     -7.591    516.149    614.870    516.828    516.149    516.149
112.170    584.830    612.545    -27.715    516.195    611.794    516.867    516.195    516.195
112.270    630.000    610.353     19.647    516.245    609.603    516.913    516.245    516.245
112.370    589.839    608.958    -19.118    516.299    608.206    516.967    516.299    516.299
112.470    621.000    608.268     12.732    516.358    607.512    517.027    516.358    516.358
112.570    643.000    608.194     34.806    516.420    607.432    517.094    516.420    516.420
112.670    623.000    608.653     14.347    516.488    607.884    517.166    516.488    516.488
112.770    617.000    609.569      7.431    516.559    608.791    517.244    516.559    516.559
112.870    578.984    610.877    -31.893    516.635    610.090    517.327    516.635    516.635
112.970    668.000    612.523     55.477    516.716    611.727    517.415    516.716    516.716
113.070    567.000    614.468    -47.468    516.801    613.663    517.507    516.801    516.801
113.170    609.000    616.687     -7.687    516.890    615.872    517.604    516.890    516.890
113.270    584.000    619.169    -35.169    516.984    618.345    517.706    516.984    516.984
113.370    596.000    621.920    -25.920    517.083    621.086    517.813    517.083    517.083
113.470    630.000    624.962      5.038    517.186    624.117    517.925    517.186    517.186
113.570    622.477    628.333     -5.856    517.294    627.476    518.043    517.294    517.294
113.670    616.000    632.088    -16.088    517.406    631.217    518.167    517.406    517.406
113.770    642.000    636.305      5.695    517.524    635.417    518.299    517.524    517.524
113.870    640.000    641.083     -1.083    517.646    640.175    518.439    517.646    517.646
113.970    626.451    646.554    -20.103    517.773    645.620    518.589    517.773    517.773
114.070    601.997    652.885    -50.888    517.904    651.920    518.749    517.904    517.904
114.170    657.000    660.292     -3.292    518.041    659.289    518.921    518.041    518.041
114.270    667.000    669.048     -2.048    518.182    667.997    519.105    518.182    518.182
114.370    678.044    679.497     -1.454    518.329    678.389    519.305    518.329    518.329
114.470    635.000    692.071    -57.071    518.480    690.892    519.521    518.480    518.480
114.570    664.237    707.305    -43.068    518.637    706.041    519.756    518.637    518.637
114.670    740.000    725.854     14.146    518.798    724.490    520.011    518.798    518.798
114.770    800.877    748.515     52.362    518.965    747.030    520.288    518.965    518.965
114.870    779.000    776.240      2.760    519.136    774.614    520.591    519.136    519.136
114.970    826.000    810.154     15.846    519.313    808.362    520.920    519.313    519.313
115.070    875.831    851.563     24.268    519.495    849.579    521.279    519.495    519.495
115.170    913.112    901.962     11.150    519.682    899.757    521.670    519.682    519.682
115.270    951.000    963.031    -12.031    519.875    960.573    522.094    519.875    519.875
115.370    985.000   1036.619    -51.619    520.073   1033.873    522.555    520.073    520.073
115.470   1071.000   1124.718    -53.718    520.276   1121.647    523.054    520.276    520.276
115.570   1164.093   1229.420    -65.327    520.484   1225.987    523.593    520.484    520.484
115.670   1305.000   1352.860    -47.860    520.698   1349.026    524.172    520.698    520.698
115.770   1511.000   1497.140     13.860    520.918   1492.865    524.792    520.918    520.918
115.870   1700.597   1664.237     36.361    521.143   1659.480    525.454    521.143    521.143
115.970   1815.000   1855.892    -40.892    521.373   1850.615    526.156    521.373    521.373
116.070   2018.520   2073.498    -54.978    521.609   2067.664    526.897    521.609    521.609
116.170   2445.000   2317.967    127.033    521.851   2311.543    527.675    521.851    521.851
116.270   2489.061   2589.605   -100.544    522.098   2582.563    528.485    522.098    522.098
116.370   2838.000   2887.990    -49.990    522.351   2880.307    529.323    522.351    522.351
116.470   3181.000   3211.857    -30.857    522.609   3203.517    530.183    522.609    522.609
116.570   3645.000   3559.009     85.991    522.874   3550.006    531.059    522.874    522.874
116.670   3939.000   3926.251     12.749    523.144   3916.585    531.943    523.144    523.144
116.770   4370.852   4309.342     61.510    523.420   4299.026    532.828    523.420    523.420
116.870   4791.311   4702.970     88.341    523.702   4692.024    533.704    523.702    523.702
116.970   5213.654   5100.958    112.696    523.990   5089.410    534.569    523.990    523.990
117.070   5389.000   5496.040   -107.040    524.283   5483.927    535.413    524.283    524.283
117.170   5729.000   5880.156   -151.156    524.583   5867.523    536.232    524.583    524.583
117.270   6185.000   6244.581    -59.581    524.889   6231.480    537.018    524.889    524.889
117.370   6495.179   6580.139    -84.960    525.200   6566.630    537.766    525.200    525.200
117.470   6876.000   6877.519     -1.519    525.518   6863.667    538.471    525.518    525.518
117.570   7130.000   7127.696      2.304    525.842   7113.572    539.124    525.842    525.842
117.670   7438.699   7322.458    116.241    526.172   7308.140    539.722    526.172    526.172
117.770   7494.000   7455.018     38.982    526.509   7440.586    540.257    526.509    526.509
117.870   7660.213   7520.605    139.609    526.852   7506.139    540.727    526.852    526.852
117.970   7424.091   7516.946    -92.856    527.201   7502.527    541.128    527.201    527.201
118.070   7477.000   7444.512     32.488    527.556   7430.215    541.459    527.556    527.556
118.170   7255.000   7306.452    -51.452    527.918   7292.348    541.722    527.918    527.918
118.270   6877.000   7108.259   -231.259    528.286   7094.413    541.920    528.286    528.286
118.370   6864.000   6857.230      6.770    528.660   6843.698    542.056    528.660    528.660
118.470   6555.000   6561.845     -6.845    529.041   6548.679    542.136    529.041    529.041
118.570   6132.000   6231.190    -99.190    529.429   6218.432    542.166    529.429    529.429
118.670   5784.197   5874.453    -90.256    529.823   5862.143    542.150    529.823    529.823
118.770   5433.000   5500.550    -67.550    530.224   5488.719    542.095    530.224    530.224
118.870   5015.006   5117.840   -102.835    530.632   5106.514    542.008    530.632    530.632
118.970   4781.569   4733.931     47.638    531.046   4723.129    541.896    531.046    531.046
119.070   4578.000   4355.537    222.463    531.467   4345.272    541.768    531.467    531.467
119.170   4157.000   3988.394    168.606    531.895   3978.671    541.632    531.895    531.895
119.270   3596.317   3637.211    -40.895    532.329   3628.028    541.497    532.329    532.329
119.370   3312.000   3305.664      6.336    532.771   3297.013    541.370    532.771    532.771
119.470   3100.893   2996.425    104.468    533.219   2988.291    541.262    533.219    533.219
119.570   2797.000   2711.227     85.773    533.674   2703.589    541.178    533.674    533.674
119.670   2467.000   2450.956     16.044    534.137   2443.788    541.125    534.137    534.137
119.770   2277.414   2215.761     61.653    534.606   2209.032    541.109    534.606    534.606
119.870   1927.399   2005.176    -77.776    535.082   1998.851    541.136    535.082    535.082
119.970   1893.000   1818.241     74.759    535.566   1812.283    541.209    535.566    535.566
120.070   1574.406   1653.622    -79.216    536.057   1647.989    541.332    536.057    536.057
120.170   1551.000   1509.718     41.282    536.555   1504.367    541.508    536.555    536.555
120.270   1492.000   1384.761    107.239    537.060   1379.646    541.738    537.060    537.060
120.370   1369.000   1276.900     92.100    537.572   1271.975    542.024    537.572    537.572
120.470   1150.426   1184.277    -33.851    538.092   1179.492    542.368    538.092    538.092
120.570   1151.000   1105.086     45.914    538.619   1100.391    542.770    538.619    538.619
120.670   1106.000   1037.617     68.383    539.154   1032.961    543.232    539.154    539.154
120.770   1017.000    980.294     36.706    539.696    975.624    543.753    539.696    539.696
120.870    937.006    931.689      5.317    540.246    926.951    544.334    540.246    540.246
120.970    932.000    890.539     41.461    540.803    885.677    544.977    540.803    540.803
121.070    856.000    855.737      0.263    541.368    850.695    545.681    541.368    541.368
121.170    851.000    826.336     24.664    541.940    821.055    546.447    541.940    541.940
121.270    807.000    801.530      5.470    542.520    795.948    547.276    542.520    542.520
121.370    793.000    780.640     12.360    543.108    774.694    548.170    543.108    543.108
121.470    814.827    763.105     51.723    543.703    756.728    549.128    543.703    543.703
121.570    773.000    748.457     24.543    544.307    741.580    550.154    544.307    544.307
121.670    763.013    736.314     26.699    544.918    728.863    551.247    544.918    544.918
121.770    708.000    726.360    -18.360    545.537    718.259    552.409    545.537    545.537
121.870    707.000    718.337    -11.337    546.165    709.506    553.641    546.165    546.165
121.970    705.000    712.030     -7.030    546.800    702.385    554.944    546.800    546.800
122.070    715.000    707.263      7.737    547.443    696.715    556.318    547.443    547.443
122.170    630.000    703.885    -73.885    548.094    692.343    557.765    548.094    548.094
122.270    653.000    701.769    -48.769    548.754    689.136    559.284    548.754    548.754
122.370    710.000    700.804      9.196    549.421    686.980    560.874    549.421    549.421
122.470    678.000    700.888    -22.888    550.097    685.771    562.536    550.097    550.097
122.570    731.000    701.930     29.070    550.781    685.414    564.266    550.781    550.781
122.670    670.000    703.841    -33.841    551.474    685.819    566.062    551.474    551.474
122.770    659.177    706.535    -47.359    552.174    686.902    567.919    552.174    552.174
122.870    703.975    709.925     -5.950    552.883    688.575    569.831    552.883    552.883
122.970    675.000    713.919    -38.919    553.601    690.753    571.790    553.601    553.601
123.070    750.000    718.421     31.579    554.327    693.348    573.784    554.327    554.327
123.170    687.814    723.330    -35.516    555.062    696.269    575.802    555.062    555.062
123.270    704.820    728.538    -23.718    555.805    699.423    577.827    555.805    555.805
123.370    774.861    733.929     40.933    556.557    702.710    579.841    556.557    556.557
123.470    710.000    739.379    -29.379    557.318    706.030    581.826    557.318    557.318
123.570    758.000    744.761     13.239    558.087    709.277    583.758    558.087    558.087
123.670    777.005    749.939     27.066    558.865    712.346    585.615    558.865    558.865
123.770    782.310    754.777     27.533    559.652    715.130    587.373    559.652    559.652
123.870    767.000    759.139      7.861    560.448    717.524    589.007    560.448    560.448
123.970    759.000    762.894     -3.894    561.253    719.430    590.495    561.253    561.253
124.070    801.000    765.922     35.078    562.067    720.762    591.816    562.067    562.067
124.170    763.000    768.120     -5.120    562.889    721.447    592.952    562.889    562.889
124.270    793.000    769.408     23.592    563.721    721.432    593.892    563.721    563.721
124.370    806.000    769.723     36.277    564.562    720.679    594.630    564.562    564.562
124.470    752.000    769.035    -17.035    565.412    719.175    595.164    565.412    565.412
124.570    751.000    767.405    -16.405    566.271    716.993    595.505    566.271    566.271
124.670    808.660    764.841     43.819    567.140    714.153    595.664    567.140    567.140
124.770    814.323    761.401     52.922    568.018    710.713    595.659    568.018    568.018
124.870    783.000    757.162     25.838    568.905    706.752    595.511    568.905    568.905
124.970    824.000    752.213     71.787    569.802    702.355    595.244    569.802    569.802
