neutron_powder_diffraction_0232
R_wp: 3.945
Temperature (K): 1048.297
Counts: 83616.00
Wavelength (Ã…): 2.52098
COMMENTS
Test file for demonstrating the .xyy file format in Reel1.0
END OF HEADER
   tth       Y_obs     Y_calc      Y_res    Background    Phase_1_Nuc    Phase_1_Mag    Phase_2_Nuc    Phase_2_Mag
  9.970    628.000    578.948     49.052    578.315    578.925    578.315    578.339    578.315
 10.070    648.000    578.887     69.113    578.199    578.863    578.199    578.222    578.199
 10.170    654.000    578.829     75.171    578.079    578.806    578.079    578.103    578.079
 10.270    596.000    578.779     17.221    577.956    578.754    577.956    577.980    577.956
 10.370    599.031    578.738     20.294    577.830    578.713    577.830    577.854    577.830
 10.470    614.000    578.725     35.275    577.701    578.697    577.701    577.728    577.701
 10.570    627.000    578.714     48.286    577.568    578.684    577.568    577.597    577.568
 10.670    563.000    578.717    -15.717    577.432    578.687    577.432    577.461    577.432
 10.770    590.000    578.745     11.255    577.293    578.716    577.293    577.322    577.293
 10.870    584.599    578.808      5.792    577.152    578.778    577.152    577.181    577.152
 10.970    533.774    578.916    -45.142    577.007    578.886    577.007    577.036    577.007
 11.070    578.253    579.087     -0.834    576.859    579.057    576.859    576.888    576.859
 11.170    589.000    579.346      9.654    576.708    579.315    576.708    576.738    576.708
 11.270    604.272    579.729     24.544    576.554    579.697    576.554    576.584    576.554
 11.370    636.000    580.302     55.698    576.398    580.270    576.398    576.428    576.398
 11.470    552.000    581.205    -29.205    576.238    581.172    576.238    576.268    576.238
 11.570    653.000    582.827     70.173    576.076    582.794    576.076    576.106    576.076
 11.670    574.000    586.269    -12.269    575.911    586.233    575.911    575.941    575.911
 11.770    649.000    594.097     54.903    575.743    594.055    575.743    575.775    575.743
 11.870    603.198    610.497     -7.299    575.573    610.444    575.573    575.605    575.573
 11.970    655.000    638.847     16.153    575.400    638.778    575.400    575.433    575.400
 12.070    641.000    675.800    -34.800    575.224    675.710    575.224    575.257    575.224
 12.170    680.000    705.642    -25.642    575.046    705.534    575.046    575.079    575.046
 12.270    745.644    707.765     37.879    574.865    707.656    574.865    574.898    574.865
 12.370    632.000    680.095    -48.095    574.681    680.001    574.681    574.715    574.681
 12.470    689.708    642.380     47.329    574.495    642.307    574.495    574.529    574.495
 12.570    612.000    612.083     -0.083    574.307    612.028    574.307    574.341    574.307
 12.670    595.000    593.922      1.078    574.116    593.876    574.116    574.150    574.116
 12.770    599.000    584.937     14.063    573.922    584.895    573.922    573.958    573.922
 12.870    598.000    580.801     17.199    573.727    580.752    573.727    573.772    573.727
 12.970    580.000    578.692      1.308    573.529    578.640    573.529    573.577    573.529
 13.070    553.000    577.376    -24.376    573.328    577.325    573.328    573.378    573.328
 13.170    594.581    576.416     18.164    573.126    576.365    573.126    573.175    573.126
 13.270    537.000    575.658    -38.658    572.921    575.606    572.921    572.971    572.921
 13.370    548.114    575.031    -26.917    572.714    574.979    572.714    572.765    572.714
 13.470    584.869    574.496     10.373    572.505    574.444    572.505    572.556    572.505
 13.570    534.000    574.026    -40.026    572.293    573.974    572.293    572.345    572.293
 13.670    570.000    573.606     -3.606    572.080    573.553    572.080    572.132    572.080
 13.770    552.000    573.226    -21.226    571.864    573.168    571.864    571.922    571.864
 13.870    542.000    572.870    -30.870    571.646    572.810    571.646    571.706    571.646
 13.970    583.340    572.534     10.806    571.427    572.474    571.427    571.486    571.427
 14.070    570.565    572.214     -1.649    571.205    572.154    571.205    571.265    571.205
 14.170    578.097    571.908      6.190    570.981    571.847    570.981    571.042    570.981
 14.270    603.447    571.611     31.836    570.756    571.550    570.756    570.816    570.756
 14.370    578.000    571.322      6.678    570.528    571.260    570.528    570.589    570.528
 14.470    552.000    571.039    -19.039    570.299    570.977    570.299    570.360    570.299
 14.570    603.181    570.762     32.419    570.067    570.699    570.067    570.129    570.067
 14.670    603.000    570.488     32.512    569.834    570.425    569.834    569.896    569.834
 14.770    604.000    570.217     33.783    569.600    570.155    569.600    569.662    569.600
 14.870    575.000    569.949      5.051    569.363    569.886    569.363    569.426    569.363
 14.970    613.047    569.683     43.364    569.125    569.620    569.125    569.188    569.125
 15.070    576.000    569.420      6.580    568.885    569.357    568.885    568.948    568.885
 15.170    573.650    569.158      4.492    568.643    569.094    568.643    568.707    568.643
 15.270    545.000    568.895    -23.895    568.399    568.831    568.399    568.464    568.399
 15.370    565.000    568.633     -3.633    568.154    568.568    568.154    568.219    568.154
 15.470    601.000    568.370     32.630    567.908    568.305    567.908    567.973    567.908
 15.570    563.000    568.108     -5.108    567.660    568.042    567.660    567.725    567.660
 15.670    550.000    567.846    -17.846    567.410    567.779    567.410    567.476    567.410
 15.770    585.000    567.583     17.417    567.159    567.516    567.159    567.225    567.159
 15.870    539.000    567.320    -28.320    566.906    567.253    566.906    566.973    566.906
 15.970    561.000    567.056     -6.056    566.652    566.989    566.652    566.719    566.652
 16.070    530.032    566.793    -36.761    566.397    566.725    566.397    566.464    566.397
 16.170    580.000    566.528     13.472    566.140    566.460    566.140    566.208    566.140
 16.270    561.000    566.266     -5.266    565.881    566.195    565.881    565.953    565.881
 16.370    550.000    566.004    -16.004    565.622    565.931    565.622    565.694    565.622
 16.470    607.533    565.739     41.795    565.361    565.665    565.361    565.435    565.361
 16.570    567.000    565.472      1.528    565.098    565.397    565.098    565.173    565.098
 16.670    560.000    565.205     -5.205    564.835    565.129    564.835    564.910    564.835
 16.770    599.000    564.937     34.063    564.570    564.860    564.570    564.646    564.570
 16.870    562.987    564.668     -1.681    564.304    564.591    564.304    564.381    564.304
 16.970    605.920    564.398     41.522    564.037    564.320    564.037    564.114    564.037
 17.070    537.957    564.127    -26.170    563.769    564.049    563.769    563.847    563.769
 17.170    529.000    563.856    -34.856    563.499    563.777    563.499    563.578    563.499
 17.270    550.000    563.584    -13.584    563.229    563.505    563.229    563.308    563.229
 17.370    531.000    563.311    -32.311    562.957    563.232    562.957    563.037    562.957
 17.470    534.000    563.038    -29.038    562.684    562.958    562.684    562.765    562.684
 17.570    573.000    562.764     10.236    562.411    562.683    562.411    562.491    562.411
 17.670    548.506    562.489    -13.983    562.136    562.408    562.136    562.217    562.136
 17.770    550.000    562.215    -12.215    561.860    562.133    561.860    561.942    561.860
 17.870    567.000    561.940      5.060    561.584    561.857    561.584    561.666    561.584
 17.970    587.000    561.663     25.337    561.306    561.580    561.306    561.389    561.306
 18.070    550.000    561.386    -11.386    561.027    561.302    561.027    561.111    561.027
 18.170    547.000    561.108    -14.108    560.748    561.024    560.748    560.832    560.748
 18.270    540.000    560.829    -20.829    560.468    560.744    560.468    560.553    560.468
 18.370    537.000    560.550    -23.550    560.187    560.464    560.187    560.272    560.187
 18.470    602.255    560.270     41.985    559.905    560.184    559.905    559.991    559.905
 18.570    552.000    559.991     -7.991    559.622    559.903    559.622    559.710    559.622
 18.670    536.000    559.711    -23.711    559.338    559.622    559.338    559.428    559.338
 18.770    570.000    559.430     10.570    559.054    559.340    559.054    559.144    559.054
 18.870    551.522    559.148     -7.626    558.769    559.057    558.769    558.860    558.769
 18.970    565.000    558.866      6.134    558.484    558.775    558.484    558.575    558.484
 19.070    549.000    558.585     -9.585    558.197    558.493    558.197    558.289    558.197
 19.170    516.000    558.302    -42.302    557.910    558.209    557.910    558.003    557.910
 19.270    598.389    558.019     40.370    557.623    557.925    557.623    557.716    557.623
 19.370    591.000    557.736     33.264    557.334    557.641    557.334    557.429    557.334
 19.470    569.000    557.452     11.548    557.046    557.357    557.046    557.141    557.046
 19.570    568.000    557.168     10.832    556.756    557.072    556.756    556.852    556.756
 19.670    525.000    556.884    -31.884    556.466    556.787    556.466    556.563    556.466
 19.770    508.000    556.600    -48.600    556.176    556.502    556.176    556.274    556.176
 19.870    533.000    556.315    -23.315    555.885    556.217    555.885    555.984    555.885
 19.970    581.000    556.031     24.969    555.593    555.931    555.593    555.693    555.593
 20.070    565.291    555.746      9.544    555.302    555.646    555.302    555.402    555.302
 20.170    593.634    555.462     38.172    555.009    555.360    555.009    555.111    555.009
 20.270    519.919    555.182    -35.263    554.717    555.075    554.717    554.823    554.717
 20.370    511.797    554.911    -43.114    554.423    554.800    554.423    554.534    554.423
 20.470    517.000    554.639    -37.639    554.130    554.527    554.130    554.242    554.130
 20.570    595.763    554.356     41.407    553.836    554.243    553.836    553.949    553.836
 20.670    553.094    554.072     -0.978    553.542    553.959    553.542    553.656    553.542
 20.770    502.000    553.789    -51.789    553.247    553.674    553.247    553.362    553.247
 20.870    537.206    553.506    -16.300    552.953    553.390    552.953    553.069    552.953
 20.970    556.000    553.223      2.777    552.657    553.106    552.657    552.775    552.657
 21.070    551.000    552.941     -1.941    552.362    552.823    552.362    552.481    552.362
 21.170    563.000    552.660     10.340    552.067    552.540    552.067    552.186    552.067
 21.270    554.000    552.379      1.621    551.771    552.258    551.771    551.892    551.771
 21.370    598.000    552.100     45.900    551.475    551.977    551.475    551.597    551.475
 21.470    525.000    551.821    -26.821    551.179    551.697    551.179    551.302    551.179
 21.570    591.000    551.543     39.457    550.882    551.418    550.882    551.008    550.882
 21.670    592.677    551.267     41.410    550.586    551.140    550.586    550.713    550.586
 21.770    544.000    550.992     -6.992    550.289    550.864    550.289    550.418    550.289
 21.870    545.000    550.719     -5.719    549.993    550.589    549.993    550.122    549.993
 21.970    571.000    550.448     20.552    549.696    550.316    549.696    549.827    549.696
 22.070    528.000    550.179    -22.179    549.399    550.046    549.399    549.532    549.399
 22.170    534.239    549.912    -15.673    549.102    549.778    549.102    549.237    549.102
 22.270    533.000    549.648    -16.648    548.806    549.512    548.806    548.942    548.806
 22.370    585.122    549.388     35.734    548.509    549.250    548.509    548.647    548.509
 22.470    594.006    549.132     44.874    548.212    548.992    548.212    548.352    548.212
 22.570    545.684    548.880     -3.196    547.915    548.739    547.915    548.057    547.915
 22.670    542.000    548.639     -6.639    547.618    548.495    547.618    547.762    547.618
 22.770    565.000    548.453     16.547    547.322    548.308    547.322    547.467    547.322
 22.870    581.147    548.287     32.860    547.025    548.139    547.025    547.173    547.025
 22.970    569.879    548.097     21.782    546.728    547.947    546.728    546.879    546.728
 23.070    581.000    547.889     33.111    546.432    547.736    546.432    546.585    546.432
 23.170    557.000    547.695      9.305    546.136    547.540    546.136    546.291    546.136
 23.270    571.000    547.552     23.448    545.840    547.395    545.840    545.997    545.840
 23.370    527.000    547.417    -20.417    545.544    547.258    545.544    545.704    545.544
 23.470    550.372    547.290      3.082    545.248    547.128    545.248    545.411    545.248
 23.570    567.166    547.198     19.968    544.952    547.033    544.952    545.118    544.952
 23.670    571.000    547.155     23.845    544.657    546.987    544.657    544.826    544.657
 23.770    510.630    547.180    -36.550    544.362    547.010    544.362    544.534    544.362
 23.870    575.000    547.304     27.696    544.067    547.131    544.067    544.242    544.067
 23.970    538.286    547.578     -9.292    543.772    547.399    543.772    543.953    543.772
 24.070    549.495    548.121      1.374    543.478    547.938    543.478    543.663    543.478
 24.170    547.000    549.276     -2.276    543.184    549.090    543.184    543.373    543.184
 24.270    556.000    551.949      4.051    542.890    551.762    542.890    543.083    542.890
 24.370    570.000    558.038     11.962    542.597    557.851    542.597    542.794    542.597
 24.470    586.000    570.207     15.793    542.304    570.025    542.304    542.505    542.304
 24.570    578.000    589.921    -11.921    542.011    589.749    542.011    542.217    542.011
 24.670    614.000    613.696      0.304    541.719    613.536    541.719    541.930    541.719
 24.770    629.000    630.442     -1.442    541.427    630.289    541.427    541.643    541.427
 24.870    671.000    628.280     42.720    541.136    628.121    541.136    541.357    541.136
 24.970    597.319    608.867    -11.548    540.845    608.688    540.845    541.071    540.845
 25.070    554.242    584.830    -30.588    540.554    584.628    540.554    540.787    540.554
 25.170    576.000    565.899     10.101    540.264    565.678    540.264    540.503    540.264
 25.270    556.000    554.440      1.560    539.974    554.204    539.974    540.220    539.974
 25.370    499.000    548.590    -49.590    539.685    548.342    539.685    539.938    539.685
 25.470    539.000    545.764     -6.764    539.396    545.506    539.396    539.657    539.396
 25.570    554.000    544.265      9.735    539.108    543.999    539.108    539.377    539.108
 25.670    521.429    543.306    -21.877    538.820    543.030    538.820    539.098    538.820
 25.770    542.000    542.609     -0.609    538.533    542.323    538.533    538.820    538.533
 25.870    562.000    542.052     19.948    538.246    541.756    538.246    538.544    538.246
 25.970    569.000    541.604     27.396    537.960    541.296    537.960    538.269    537.960
 26.070    590.000    541.234     48.766    537.674    540.914    537.674    537.995    537.674
 26.170    543.382    540.908      2.474    537.389    540.575    537.389    537.723    537.389
 26.270    518.000    540.632    -22.632    537.105    540.286    537.105    537.452    537.105
 26.370    565.641    540.405     25.236    536.821    540.043    536.821    537.184    536.821
 26.470    519.902    540.224    -20.322    536.538    539.845    536.538    536.917    536.538
 26.570    549.474    540.086      9.387    536.256    539.689    536.256    536.653    536.256
 26.670    529.000    540.000    -11.000    535.974    539.583    535.974    536.391    535.974
 26.770    539.000    539.971     -0.971    535.693    539.532    535.693    536.131    535.693
 26.870    564.330    540.005     24.325    535.412    539.542    535.412    535.875    535.412
 26.970    550.170    540.121     10.049    535.133    539.631    535.133    535.622    535.133
 27.070    537.527    540.356     -2.829    534.853    539.837    534.853    535.372    534.853
 27.170    584.276    540.732     43.544    534.575    540.179    534.575    535.127    534.575
 27.270    546.978    541.257      5.721    534.297    540.668    534.297    534.886    534.297
 27.370    584.152    542.027     42.126    534.020    541.395    534.020    534.651    534.020
 27.470    574.000    543.169     30.831    533.744    542.489    533.744    534.423    533.744
 27.570    582.000    545.019     36.981    533.469    544.285    533.469    534.201    533.469
 27.670    534.000    548.698    -14.698    533.194    547.900    533.194    533.988    533.194
 27.770    564.000    558.453      5.547    532.920    557.582    532.920    533.786    532.920
 27.870    643.000    585.818     57.182    532.647    584.854    532.647    533.596    532.647
 27.970    691.000    650.181     40.819    532.375    649.099    532.375    533.420    532.375
 28.070    743.000    762.205    -19.205    532.104    760.976    532.104    533.264    532.104
 28.170    869.588    891.516    -21.929    531.833    890.122    531.833    533.129    531.833
 28.270   1013.000    959.031     53.969    531.563    957.475    531.563    533.024    531.563
 28.370    861.092    909.507    -48.415    531.294    907.788    531.294    532.956    531.294
 28.470    740.117    793.938    -53.821    531.026    792.008    531.026    532.936    531.026
 28.570    715.878    701.473     14.405    530.759    699.246    530.759    532.982    530.759
 28.670    634.704    680.437    -45.733    530.493    677.796    530.493    533.125    530.493
 28.770    749.000    727.478     21.522    530.227    724.266    530.227    533.422    530.227
 28.870    848.000    801.497     46.503    529.963    797.461    529.963    533.976    529.963
 28.970    830.000    839.565     -9.565    529.699    834.273    529.699    534.977    529.699
 29.070    764.000    802.544    -38.544    529.436    795.266    529.436    536.717    529.436
 29.170    731.292    720.980     10.312    529.175    710.585    529.175    539.583    529.175
 29.270    616.000    645.856    -29.856    528.914    630.834    528.914    543.950    528.914
 29.370    635.000    601.069     33.931    528.654    579.774    528.654    549.957    528.654
 29.470    601.000    583.549     17.451    528.395    554.818    528.395    557.129    528.395
 29.570    571.903    580.109     -8.205    528.137    544.454    528.137    563.791    528.137
 29.670    615.281    579.209     36.073    527.880    540.057    527.880    567.030    527.880
 29.770    613.484    574.968     38.516    527.624    537.760    527.624    564.830    527.624
 29.870    598.000    567.331     30.669    527.369    536.281    527.369    558.417    527.369
 29.970    564.793    558.826      5.968    527.115    535.246    527.115    550.693    527.115
 30.070    567.000    551.413     15.587    526.862    534.538    526.862    543.736    526.862
 30.170    554.000    545.866      8.134    526.610    534.132    526.610    538.342    526.610
 30.270    575.000    542.284     32.716    526.359    534.117    526.359    534.524    526.359
 30.370    537.565    540.739     -3.174    526.109    534.891    526.109    531.955    526.109
 30.470    534.217    541.952     -7.734    525.861    537.566    525.861    530.240    525.861
 30.570    584.023    547.814     36.209    525.613    544.362    525.613    529.054    525.613
 30.670    565.627    560.755      4.872    525.366    557.922    525.366    528.177    525.366
 30.770    589.000    580.966      8.034    525.120    578.569    525.120    527.481    525.120
 30.870    565.956    602.618    -36.662    524.876    600.545    524.876    526.897    524.876
 30.970    631.452    613.335     18.117    524.632    611.524    524.632    526.388    524.632
 31.070    623.000    604.390     18.610    524.390    602.801    524.390    525.933    524.390
 31.170    540.099    582.614    -42.516    524.149    581.215    524.149    525.518    524.149
 31.270    574.000    560.506     13.494    523.909    559.264    523.909    525.135    523.909
 31.370    511.691    544.950    -33.260    523.670    543.836    523.670    524.776    523.670
 31.470    494.044    536.403    -42.359    523.432    535.393    523.432    524.437    523.432
 31.570    531.000    532.395     -1.395    523.195    531.472    523.195    524.115    523.195
 31.670    510.517    530.562    -20.045    522.959    529.713    522.959    523.806    522.959
 31.770    545.262    529.601     15.661    522.725    528.816    522.725    523.509    522.725
 31.870    585.000    528.996     56.004    522.491    528.266    522.491    523.221    522.491
 31.970    524.000    528.575     -4.575    522.259    527.892    522.259    522.941    522.259
 32.070    500.000    528.282    -28.282    522.028    527.642    522.028    522.668    522.028
 32.170    514.000    528.096    -14.096    521.798    527.493    521.798    522.401    521.798
 32.270    492.000    528.007    -36.007    521.570    527.437    521.570    522.139    521.570
 32.370    491.069    528.016    -36.947    521.342    527.475    521.342    521.883    521.342
 32.470    567.488    528.131     39.357    521.116    527.615    521.116    521.631    521.116
 32.570    558.000    528.364     29.636    520.891    527.872    520.891    521.382    520.891
 32.670    542.000    528.740     13.260    520.667    528.268    520.667    521.138    520.667
 32.770    565.561    529.292     36.269    520.444    528.838    520.444    520.896    520.444
 32.870    565.000    530.069     34.931    520.223    529.633    520.223    520.658    520.223
 32.970    545.000    531.145     13.855    520.003    530.723    520.003    520.423    520.003
 33.070    511.000    532.625    -21.625    519.784    532.217    519.784    520.190    519.784
 33.170    537.864    534.710      3.154    519.566    534.315    519.566    519.959    519.566
 33.270    574.597    537.849     36.749    519.349    537.464    519.349    519.731    519.349
 33.370    559.000    543.290     15.710    519.134    542.915    519.134    519.506    519.134
 33.470    512.000    554.478    -42.478    518.920    554.111    518.920    519.282    518.920
 33.570    531.761    579.320    -47.559    518.707    578.956    518.707    519.061    518.707
 33.670    613.094    631.130    -18.036    518.496    630.764    518.496    518.841    518.496
 33.770    783.000    723.192     59.808    518.285    722.817    518.285    518.624    518.285
 33.870    880.000    853.907     26.093    518.076    853.520    518.076    518.408    518.076
 33.970    962.326    989.141    -26.815    517.869    988.749    517.869    518.194    517.869
 34.070   1105.880   1061.074     44.806    517.662   1060.696    517.662    517.982    517.662
 34.170   1042.000   1019.978     22.022    517.457   1019.632    517.457    517.772    517.457
 34.270    876.000    896.615    -20.615    517.253    896.299    517.253    517.564    517.253
 34.370    719.000    759.675    -40.675    517.051    759.375    517.051    517.357    517.051
 34.470    661.000    654.305      6.695    516.849    654.011    516.849    517.152    516.849
 34.570    568.000    590.580    -22.580    516.650    590.286    516.650    516.948    516.650
 34.670    594.996    558.196     36.800    516.451    557.903    516.451    516.746    516.451
 34.770    583.000    543.128     39.872    516.254    542.836    516.254    516.546    516.254
 34.870    565.396    535.810     29.587    516.058    535.520    516.058    516.347    516.058
 34.970    508.000    531.628    -23.628    515.863    531.340    515.863    516.150    515.863
 35.070    565.331    528.798     36.533    515.669    528.513    515.669    515.955    515.669
 35.170    516.612    526.681    -10.070    515.477    526.398    515.477    515.761    515.477
 35.270    499.595    525.019    -25.424    515.287    524.737    515.287    515.568    515.287
 35.370    479.984    523.676    -43.693    515.097    523.396    515.097    515.377    515.097
 35.470    532.000    522.570      9.430    514.909    522.291    514.909    515.188    514.909
 35.570    561.000    521.641     39.359    514.723    521.363    514.723    515.000    514.723
 35.670    544.064    520.849     23.216    514.537    520.572    514.537    514.813    514.537
 35.770    562.404    520.165     42.239    514.353    519.889    514.353    514.629    514.353
 35.870    529.000    519.567      9.433    514.171    519.292    514.171    514.445    514.171
 35.970    509.000    519.039    -10.039    513.989    518.764    513.989    514.263    513.989
 36.070    479.000    518.569    -39.569    513.809    518.295    513.809    514.083    513.809
 36.170    514.796    518.148     -3.352    513.631    517.874    513.631    513.904    513.631
 36.270    493.000    517.769    -24.769    513.453    517.496    513.453    513.727    513.453
 36.370    495.673    517.429    -21.756    513.278    517.156    513.278    513.551    513.278
 36.470    506.000    517.123    -11.123    513.103    516.850    513.103    513.376    513.103
 36.570    498.000    516.851    -18.851    512.930    516.578    512.930    513.203    512.930
 36.670    515.000    516.615     -1.615    512.758    516.341    512.758    513.032    512.758
 36.770    486.000    516.419    -30.419    512.588    516.145    512.588    512.862    512.588
 36.870    548.000    516.281     31.719    512.419    516.007    512.419    512.693    512.419
 36.970    497.000    516.248    -19.248    512.251    515.973    512.251    512.526    512.251
 37.070    516.398    516.432     -0.035    512.085    516.157    512.085    512.361    512.085
 37.170    546.000    517.052     28.948    511.920    516.776    511.920    512.196    511.920
 37.270    544.091    518.427     25.664    511.757    518.150    511.757    512.034    511.757
 37.370    520.918    520.842      0.076    511.594    520.565    511.594    511.873    511.594
 37.470    519.226    524.256     -5.031    511.434    523.979    511.434    511.713    511.434
 37.570    536.000    527.963      8.037    511.274    527.686    511.274    511.555    511.274
 37.670    494.000    530.509    -36.509    511.116    530.231    511.116    511.398    511.116
 37.770    551.000    530.532     20.468    510.960    530.255    510.960    511.243    510.960
 37.870    529.000    528.130      0.870    510.805    527.854    510.805    511.089    510.805
 37.970    483.758    524.628    -40.870    510.651    524.352    510.651    510.937    510.651
 38.070    506.089    521.194    -15.104    510.499    520.917    510.499    510.786    510.499
 38.170    560.593    518.339     42.254    510.348    518.059    510.348    510.637    510.348
 38.270    517.177    516.212      0.965    510.198    515.928    510.198    510.489    510.198
 38.370    523.508    514.760      8.748    510.050    514.472    510.050    510.343    510.050
 38.470    513.000    513.819     -0.819    509.903    513.527    509.903    510.198    509.903
 38.570    510.000    513.217     -3.217    509.758    512.922    509.758    510.054    509.758
 38.670    515.000    512.818      2.182    509.614    512.520    509.614    509.913    509.614
 38.770    543.410    512.529     30.881    509.471    512.228    509.471    509.772    509.471
 38.870    496.000    512.298    -16.298    509.330    511.995    509.330    509.633    509.330
 38.970    525.000    512.098     12.902    509.191    511.793    509.191    509.496    509.191
 39.070    489.936    511.919    -21.983    509.052    511.612    509.052    509.360    509.052
 39.170    511.054    511.755     -0.701    508.915    511.445    508.915    509.226    508.915
 39.270    478.899    511.602    -32.703    508.780    511.289    508.780    509.093    508.780
 39.370    505.000    511.459     -6.459    508.646    511.144    508.646    508.961    508.646
 39.470    534.961    511.326     23.635    508.513    511.008    508.513    508.831    508.513
 39.570    483.556    511.200    -27.644    508.382    510.879    508.382    508.703    508.382
 39.670    542.801    511.082     31.719    508.252    510.758    508.252    508.576    508.252
 39.770    551.000    510.972     40.028    508.123    510.645    508.123    508.451    508.123
 39.870    501.000    510.868     -9.868    507.996    510.538    507.996    508.327    507.996
 39.970    490.000    510.772    -20.772    507.871    510.439    507.871    508.204    507.871
 40.070    483.000    510.684    -27.684    507.746    510.347    507.746    508.084    507.746
 40.170    559.000    510.603     48.397    507.623    510.262    507.623    507.964    507.623
 40.270    528.000    510.530     17.470    507.502    510.186    507.502    507.846    507.502
 40.370    477.198    510.467    -33.269    507.382    510.119    507.382    507.730    507.382
 40.470    502.735    510.413     -7.678    507.263    510.062    507.263    507.615    507.263
 40.570    485.000    510.371    -25.371    507.146    510.015    507.146    507.502    507.146
 40.670    480.000    510.341    -30.341    507.030    509.981    507.030    507.390    507.030
 40.770    550.988    510.326     40.662    506.916    509.962    506.916    507.280    506.916
 40.870    523.000    510.327     12.673    506.803    509.959    506.803    507.171    506.803
 40.970    476.988    510.349    -33.361    506.691    509.976    506.691    507.064    506.691
 41.070    505.842    510.395     -4.553    506.581    510.017    506.581    506.959    506.581
 41.170    544.000    510.470     33.530    506.472    510.088    506.472    506.855    506.472
 41.270    596.000    510.582     85.418    506.364    510.195    506.364    506.752    506.364
 41.370    530.000    510.742     19.258    506.258    510.349    506.258    506.651    506.258
 41.470    506.288    510.961     -4.674    506.154    510.564    506.154    506.552    506.154
 41.570    454.000    511.264    -57.264    506.050    510.861    506.050    506.454    506.050
 41.670    482.000    511.686    -29.686    505.948    511.278    505.948    506.358    505.948
 41.770    495.000    512.313    -17.313    505.848    511.899    505.848    506.263    505.848
 41.870    500.568    513.350    -12.781    505.749    512.931    505.749    506.170    505.749
 41.970    514.000    515.286     -1.286    505.651    514.862    505.651    506.079    505.651
 42.070    499.000    519.139    -20.139    505.555    518.710    505.555    505.989    505.555
 42.170    527.000    526.613      0.387    505.460    526.181    505.460    505.901    505.460
 42.270    517.313    539.794    -22.481    505.366    539.360    505.366    505.814    505.366
 42.370    556.482    559.996     -3.514    505.274    559.564    505.274    505.729    505.274
 42.470    571.000    585.895    -14.895    505.183    585.469    505.183    505.646    505.183
 42.570    597.000    611.818    -14.818    505.094    611.398    505.094    505.564    505.094
 42.670    629.000    628.017      0.983    505.006    627.600    505.006    505.484    505.006
 42.770    599.000    626.242    -27.242    504.919    625.820    504.919    505.406    504.919
 42.870    608.000    607.532      0.468    504.834    607.093    504.834    505.329    504.834
 42.970    562.000    580.979    -18.979    504.750    580.517    504.750    505.254    504.750
 43.070    568.480    555.751     12.728    504.667    555.266    504.667    505.181    504.667
 43.170    513.000    536.690    -23.690    504.586    536.184    504.586    505.110    504.586
 43.270    562.325    524.528     37.797    504.506    524.004    504.506    505.040    504.506
 43.370    509.000    517.713     -8.713    504.427    517.174    504.427    504.972    504.427
 43.470    528.000    514.183     13.817    504.350    513.630    504.350    504.906    504.350
 43.570    508.000    512.354     -4.354    504.274    511.789    504.274    504.842    504.274
 43.670    525.000    511.318     13.682    504.200    510.740    504.200    504.779    504.200
 43.770    518.000    510.647      7.353    504.126    510.056    504.126    504.719    504.126
 43.870    523.000    510.164     12.836    504.055    509.560    504.055    504.660    504.055
 43.970    497.054    509.795    -12.741    503.984    509.176    503.984    504.604    503.984
 44.070    505.000    509.506     -4.506    503.915    508.873    503.915    504.549    503.915
 44.170    533.000    509.277     23.723    503.847    508.628    503.847    504.496    503.847
 44.270    499.000    509.095    -10.095    503.781    508.431    503.781    504.446    503.781
 44.370    513.000    508.952      4.048    503.716    508.270    503.716    504.397    503.716
 44.470    467.000    508.840    -41.840    503.652    508.141    503.652    504.351    503.652
 44.570    536.013    508.755     27.259    503.589    508.037    503.589    504.307    503.589
 44.670    526.000    508.692     17.308    503.528    507.955    503.528    504.265    503.528
 44.770    496.701    508.651    -11.950    503.468    507.893    503.468    504.226    503.468
 44.870    484.600    508.628    -24.028    503.410    507.848    503.410    504.189    503.410
 44.970    509.000    508.621      0.379    503.352    507.819    503.352    504.155    503.352
 45.070    501.000    508.632     -7.632    503.296    507.804    503.296    504.124    503.296
 45.170    513.000    508.657      4.343    503.242    507.804    503.242    504.095    503.242
 45.270    504.000    508.698     -4.698    503.188    507.818    503.188    504.069    503.188
 45.370    547.000    508.755     38.245    503.136    507.845    503.136    504.046    503.136
 45.470    548.851    508.827     40.024    503.085    507.886    503.085    504.027    503.085
 45.570    526.000    508.916     17.084    503.036    507.941    503.036    504.010    503.036
 45.670    538.876    509.022     29.854    502.988    508.012    502.988    503.998    502.988
 45.770    537.000    509.147     27.853    502.941    508.098    502.941    503.989    502.941
 45.870    484.883    509.292    -24.409    502.895    508.202    502.895    503.984    502.895
 45.970    506.000    509.459     -3.459    502.850    508.324    502.850    503.984    502.850
 46.070    525.000    509.650     15.350    502.807    508.468    502.807    503.989    502.807
 46.170    549.000    509.870     39.130    502.765    508.637    502.765    503.998    502.765
 46.270    526.000    510.122     15.878    502.725    508.833    502.725    504.013    502.725
 46.370    508.000    510.411     -2.411    502.685    509.061    502.685    504.035    502.685
 46.470    526.000    510.745     15.255    502.647    509.329    502.647    504.063    502.647
 46.570    520.000    511.133      8.867    502.610    509.644    502.610    504.098    502.610
 46.670    522.000    511.588     10.412    502.575    510.020    502.575    504.141    502.575
 46.770    526.085    512.133     13.951    502.540    510.478    502.540    504.194    502.540
 46.870    504.000    512.817     -8.817    502.507    511.066    502.507    504.257    502.507
 46.970    533.000    513.746     19.254    502.475    511.888    502.475    504.331    502.475
 47.070    500.806    515.148    -14.342    502.444    513.171    502.444    504.418    502.444
 47.170    461.000    517.511    -56.511    502.415    515.401    502.415    504.520    502.415
 47.270    509.000    521.621    -12.621    502.386    519.360    502.386    504.640    502.386
 47.370    495.524    528.521    -32.997    502.359    526.087    502.359    504.780    502.359
 47.470    548.000    539.127      8.873    502.333    536.497    502.333    504.943    502.333
 47.570    560.000    553.524      6.476    502.308    550.667    502.308    505.133    502.308
 47.670    589.000    570.142     18.858    502.285    567.027    502.285    505.356    502.285
 47.770    586.000    585.265      0.735    502.262    581.856    502.262    505.619    502.262
 47.870    561.000    593.713    -32.713    502.241    589.968    502.241    505.929    502.241
 47.970    600.000    591.993      8.007    502.221    587.864    502.221    506.297    502.221
 48.070    601.000    581.537     19.463    502.202    576.956    502.202    506.739    502.202
 48.170    573.000    567.208      5.792    502.184    562.085    502.184    507.276    502.184
 48.270    568.330    553.663     14.667    502.168    547.869    502.168    507.941    502.168
 48.370    581.000    543.599     37.401    502.152    536.947    502.152    508.792    502.152
 48.470    570.776    537.810     32.966    502.138    530.011    502.138    509.929    502.138
 48.570    490.000    535.927    -45.927    502.125    526.515    502.125    511.531    502.125
 48.670    578.000    537.266     40.734    502.113    525.478    502.113    513.897    502.113
 48.770    582.000    541.431     40.569    502.102    526.040    502.102    517.490    502.102
 48.870    549.000    548.531      0.469    502.092    527.676    502.092    522.944    502.092
 48.970    560.000    559.111      0.889    502.084    530.190    502.084    531.002    502.084
 49.070    605.736    573.928     31.807    502.076    533.670    502.076    542.330    502.076
 49.170    631.000    593.759     37.241    502.070    538.607    502.070    557.216    502.070
 49.270    669.000    619.527     49.473    502.065    546.426    502.065    575.157    502.065
 49.370    667.959    653.207     14.752    502.061    560.895    502.061    594.359    502.061
 49.470    755.000    700.159     54.841    502.057    590.891    502.057    611.302    502.057
 49.570    841.000    773.155     67.845    502.055    653.981    502.055    621.186    502.055
 49.670    966.000    896.443     69.557    502.054    778.060    502.054    620.362    502.054
 49.770   1152.730   1102.554     50.176    502.055    995.304    502.055    609.186    502.055
 49.870   1425.000   1413.635     11.365    502.056   1323.851    502.056    591.681    502.056
 49.970   1786.814   1811.792    -24.978    502.058   1741.149    502.058    572.529    502.058
 50.070   2197.751   2217.925    -20.173    502.061   2164.868    502.061    554.985    502.061
 50.170   2512.000   2502.023      9.977    502.066   2463.428    502.066    540.627    502.066
 50.270   2517.436   2542.861    -25.424    502.071   2515.205    502.071    529.819    502.071
 50.370   2406.110   2315.910     90.200    502.078   2295.975    502.078    522.197    502.078
 50.470   1947.995   1916.853     31.141    502.085   1902.082    502.085    517.070    502.085
 50.570   1448.045   1484.796    -36.751    502.094   1473.375    502.094    513.706    502.094
 50.670   1157.371   1123.576     33.794    502.103   1114.331    502.103    511.491    502.103
 50.770    827.299    875.548    -48.249    502.114    867.768    502.114    509.989    502.114
 50.870    730.000    732.598     -2.598    502.125    725.864    502.125    508.922    502.125
 50.970    624.000    662.311    -38.311    502.138    656.371    502.138    508.124    502.138
 51.070    594.000    630.732    -36.732    502.151    625.419    502.151    507.502    502.151
 51.170    606.000    613.729     -7.729    502.166    608.926    502.166    507.003    502.166
 51.270    628.251    599.234     29.017    502.181    594.849    502.181    506.596    502.181
 51.370    602.000    584.271     17.729    502.198    580.233    502.198    506.260    502.198
 51.470    559.000    569.930    -10.930    502.215    566.182    502.215    505.981    502.215
 51.570    575.765    557.793     17.972    502.233    554.291    502.233    505.748    502.233
 51.670    595.000    548.683     46.317    502.253    545.390    502.253    505.555    502.253
 51.770    575.000    542.578     32.422    502.273    539.463    502.273    505.394    502.273
 51.870    572.000    538.930     33.070    502.294    535.968    502.294    505.260    502.294
 51.970    582.000    537.052     44.948    502.316    534.222    502.316    505.150    502.316
 52.070    552.000    536.392     15.608    502.340    533.675    502.340    505.060    502.340
 52.170    506.995    536.634    -29.639    502.363    534.013    502.363    504.987    502.363
 52.270    558.000    537.703     20.297    502.388    535.163    502.388    504.931    502.388
 52.370    499.791    539.771    -39.980    502.414    537.299    502.414    504.887    502.414
 52.470    573.000    543.384     29.616    502.441    540.969    502.441    504.857    502.441
 52.570    561.000    549.786     11.214    502.469    547.419    502.469    504.837    502.469
 52.670    555.352    561.451     -6.099    502.497    559.121    502.497    504.827    502.497
 52.770    598.000    582.655     15.345    502.526    580.353    502.526    504.826    502.526
 52.870    571.959    619.610    -47.651    502.557    617.329    502.557    504.834    502.557
 52.970    771.000    679.398     91.602    502.588    677.131    502.588    504.850    502.588
 53.070    746.000    767.153    -21.153    502.620    764.892    502.620    504.873    502.620
 53.170    867.372    881.758    -14.387    502.652    879.500    502.652    504.904    502.652
 53.270   1042.929   1011.507     31.422    502.686   1009.249    502.686    504.941    502.686
 53.370   1093.000   1131.763    -38.763    502.721   1129.503    502.721    504.985    502.721
 53.470   1186.310   1208.492    -22.182    502.756   1206.230    502.756    505.035    502.756
 53.570   1218.976   1213.466      5.509    502.792   1211.197    502.792    505.092    502.792
 53.670   1146.000   1144.650      1.350    502.829   1142.362    502.829    505.154    502.829
 53.770    961.000   1028.093    -67.093    502.867   1025.774    502.867    505.223    502.867
 53.870    800.000    898.360    -98.360    502.905    896.000    502.905    505.299    502.905
 53.970    832.495    781.613     50.881    502.944    779.203    502.944    505.380    502.944
 54.070    729.604    691.026     38.578    502.985    688.560    502.985    505.469    502.985
 54.170    632.829    628.742      4.088    503.025    626.215    503.025    505.564    503.025
 54.270    555.000    590.107    -35.107    503.067    587.516    503.067    505.665    503.067
 54.370    537.000    568.066    -31.066    503.109    565.405    503.109    505.775    503.109
 54.470    576.000    556.202     19.798    503.153    553.466    503.153    505.891    503.153
 54.570    544.000    549.995     -5.995    503.197    547.178    503.197    506.016    503.197
 54.670    508.548    546.784    -38.236    503.241    543.878    503.241    506.149    503.241
 54.770    500.007    545.208    -45.202    503.287    542.205    503.287    506.291    503.287
 54.870    532.000    544.642    -12.642    503.333    541.533    503.333    506.443    503.333
 54.970    507.180    544.821    -37.641    503.379    541.597    503.379    506.605    503.379
 55.070    522.927    545.646    -22.719    503.427    542.296    503.427    506.778    503.427
 55.170    516.000    547.098    -31.098    503.475    543.611    503.475    506.963    503.475
 55.270    585.000    549.205     35.795    503.524    545.568    503.524    507.162    503.524
 55.370    552.000    552.042     -0.042    503.574    548.242    503.574    507.375    503.574
 55.470    546.530    555.750     -9.220    503.624    551.771    503.624    507.603    503.624
 55.570    579.570    560.597     18.973    503.675    556.422    503.675    507.850    503.675
 55.670    557.000    567.139    -10.139    503.726    562.750    503.726    508.115    503.726
 55.770    582.000    576.605      5.395    503.779    571.981    503.779    508.402    503.779
 55.870    599.694    591.666      8.028    503.831    586.782    503.831    508.714    503.831
 55.970    641.383    617.729     23.654    503.885    612.556    503.885    509.052    503.885
 56.070    661.940    664.586     -2.646    503.939    659.092    503.939    509.421    503.939
 56.170    778.314    747.547     30.767    503.994    741.694    503.994    509.825    503.994
 56.270    842.000    886.374    -44.374    504.049    880.118    504.049    510.267    504.049
 56.370   1146.709   1100.066     46.643    504.105   1093.362    504.105    510.755    504.105
 56.470   1403.000   1397.021      5.979    504.162   1389.821    504.162    511.295    504.162
 56.570   1750.000   1762.966    -12.966    504.219   1755.226    504.219    511.894    504.219
 56.670   2116.000   2151.634    -35.634    504.277   2143.310    504.277    512.563    504.277
 56.770   2387.421   2484.075    -96.654    504.335   2475.117    504.335    513.313    504.335
 56.870   2623.000   2666.523    -43.523    504.394   2656.865    504.394    514.159    504.394
 56.970   2602.000   2636.186    -34.186    504.453   2625.716    504.453    515.119    504.453
 57.070   2341.085   2405.390    -64.305    504.513   2393.941    504.513    516.215    504.513
 57.170   2085.000   2051.313     33.687    504.574   2038.673    504.574    517.477    504.574
 57.270   1626.692   1666.309    -39.617    504.635   1652.234    504.635    518.944    504.635
 57.370   1365.934   1320.674     45.259    504.697   1304.880    504.697    520.676    504.697
 57.470   1071.000   1051.180     19.820    504.759   1033.308    504.759    522.763    504.759
 57.570    842.000    864.829    -22.829    504.821    844.379    504.821    525.356    504.821
 57.670    707.500    749.628    -42.129    504.884    725.850    504.884    528.713    504.884
 57.770    692.715    686.606      6.109    504.948    658.314    504.948    533.266    504.948
 57.870    709.000    658.750     50.250    505.012    624.061    505.012    539.713    505.012
 57.970    657.000    655.168      1.832    505.077    611.140    505.077    549.105    505.077
 58.070    690.000    671.590     18.410    505.142    613.831    505.142    562.891    505.142
 58.170    678.882    708.761    -29.879    505.207    631.098    505.207    582.852    505.207
 58.270    759.000    769.940    -10.940    505.273    664.333    505.273    610.849    505.273
 58.370    912.906    858.116     54.790    505.339    715.039    505.339    648.375    505.339
 58.470    986.397    973.347     13.050    505.406    782.791    505.406    695.910    505.406
 58.570   1111.462   1110.565      0.897    505.474    863.804    505.474    752.179    505.474
 58.670   1270.681   1258.383     12.299    505.541    950.553    505.541    813.318    505.541
 58.770   1380.000   1399.821    -19.821    505.609   1033.331    505.609    872.057    505.609
 58.870   1548.000   1515.384     32.616    505.678   1103.425    505.678    917.611    505.678
 58.970   1609.301   1586.870     22.431    505.747   1154.272    505.747    938.340    505.747
 59.070   1641.000   1601.697     39.303    505.816   1179.640    505.816    927.890    505.816
 59.170   1580.000   1558.683     21.317    505.885   1174.899    505.885    889.704    505.885
 59.270   1505.540   1471.021     34.520    505.955   1142.650    505.955    834.365    505.955
 59.370   1408.000   1361.756     46.244    506.026   1094.497    506.026    773.312    506.026
 59.470   1274.000   1254.682     19.318    506.096   1045.750    506.096    715.031    506.096
 59.570   1131.859   1169.166    -37.307    506.167   1010.837    506.167    664.464    506.167
 59.670   1115.000   1120.766     -5.766    506.239   1003.247    506.239    623.681    506.239
 59.770   1155.299   1121.370     33.929    506.310   1034.832    506.310    592.720    506.310
 59.870   1108.000   1174.912    -66.912    506.382   1110.749    506.382    570.362    506.382
 59.970   1361.000   1272.390     88.610    506.455   1223.793    506.455    554.816    506.455
 60.070   1347.582   1390.133    -42.551    506.527   1352.142    506.527    544.244    506.527
 60.170   1425.261   1492.328    -67.066    506.600   1461.568    506.600    537.072    506.600
 60.270   1539.000   1540.019     -1.019    506.673   1514.308    506.673    532.119    506.673
 60.370   1475.248   1508.295    -33.047    506.747   1486.252    506.747    528.575    506.747
 60.470   1348.000   1400.716    -52.716    506.821   1381.454    506.821    525.932    506.821
 60.570   1302.000   1244.951     57.049    506.895   1227.869    506.895    523.884    506.895
 60.670   1101.000   1075.687     25.313    506.969   1060.350    506.969    522.258    506.969
 60.770    918.000    921.112     -3.112    507.043    907.181    507.043    520.954    507.043
 60.870    815.000    797.602     17.398    507.118    784.791    507.118    519.921    507.118
 60.970    656.970    710.060    -53.090    507.193    698.116    507.193    519.134    507.193
 61.070    624.849    655.538    -30.688    507.268    644.220    507.268    518.580    507.268
 61.170    659.000    628.011     30.989    507.343    617.088    507.343    518.257    507.343
 61.270    630.000    622.473      7.527    507.419    611.715    507.419    518.159    507.419
 61.370    631.228    637.260     -6.032    507.495    626.455    507.495    518.271    507.495
 61.470    635.000    674.431    -39.431    507.571    663.395    507.571    518.560    507.571
 61.570    761.951    738.342     23.608    507.647    726.955    507.647    518.965    507.647
 61.670    855.504    832.737     22.766    507.723    820.976    507.723    519.386    507.723
 61.770    903.000    956.958    -53.958    507.799    944.940    507.799    519.687    507.799
 61.870   1070.000   1102.397    -32.397    507.876   1090.390    507.876    519.723    507.876
 61.970   1248.055   1250.543     -2.489    507.952   1238.916    507.952    519.402    507.952
 62.070   1357.000   1373.979    -16.979    508.029   1363.091    508.029    518.740    508.029
 62.170   1443.000   1442.483      0.517    508.106   1432.589    508.106    517.847    508.106
 62.270   1397.756   1435.751    -37.995    508.183   1426.963    508.183    516.859    508.183
 62.370   1274.000   1355.513    -81.513    508.260   1347.815    508.260    515.892    508.260
 62.470   1277.526   1224.341     53.184    508.338   1217.633    508.338    515.017    508.338
 62.570   1087.348   1072.678     14.671    508.415   1066.816    508.415    514.274    508.415
 62.670    917.000    926.899     -9.899    508.492    921.729    508.492    513.673    508.492
 62.770    756.000    803.973    -47.973    508.570    799.351    508.570    513.206    508.570
 62.870    756.760    710.891     45.870    508.647    706.696    508.647    512.855    508.647
 62.970    599.435    646.769    -47.334    508.725    642.906    508.725    512.596    508.725
 63.070    630.000    606.193     23.807    508.803    602.591    508.803    512.408    508.803
 63.170    578.000    582.416     -4.416    508.880    579.025    508.880    512.271    508.880
 63.270    533.572    569.519    -35.947    508.958    566.304    508.958    512.171    508.958
 63.370    568.210    563.357      4.853    509.036    560.291    509.036    512.097    509.036
 63.470    558.437    561.656     -3.220    509.113    558.721    509.113    512.042    509.113
 63.570    552.379    563.753    -11.374    509.191    560.934    509.191    512.002    509.191
 63.670    561.000    570.291     -9.291    509.269    567.574    509.269    511.974    509.269
 63.770    571.000    582.963    -11.963    509.347    580.336    509.347    511.955    509.347
 63.870    621.000    604.190     16.810    509.424    601.641    509.424    511.945    509.424
 63.970    660.000    636.576     23.424    509.502    634.095    509.502    511.942    509.502
 64.070    668.000    682.030    -14.030    509.579    679.607    509.579    511.944    509.579
 64.170    787.760    740.648     47.112    509.657    738.274    509.657    511.952    509.657
 64.270    811.000    809.586      1.414    509.734    807.254    509.734    511.967    509.734
 64.370    912.000    882.286     29.714    509.812    879.995    509.812    511.986    509.812
 64.470    934.000    948.554    -14.554    509.889    946.306    509.889    512.010    509.889
 64.570   1053.000    996.477     56.523    509.967    994.279    509.967    512.038    509.967
 64.670   1004.000   1016.697    -12.697    510.044   1014.557    510.044    512.070    510.044
 64.770    953.654   1006.446    -52.792    510.121   1004.371    510.121    512.105    510.121
 64.870    982.000    969.929     12.071    510.198    967.920    510.198    512.143    510.198
 64.970    916.000    915.891      0.109    510.275    913.946    510.275    512.184    510.275
 65.070    815.851    854.592    -38.741    510.351    852.704    510.351    512.228    510.351
 65.170    831.844    794.793     37.052    510.428    792.953    510.428    512.275    510.428
 65.270    759.000    741.806     17.194    510.504    740.006    510.504    512.324    510.504
 65.370    771.000    697.442     73.558    510.581    695.674    510.581    512.375    510.581
 65.470    637.000    661.374    -24.374    510.657    659.629    510.657    512.429    510.657
 65.570    660.000    632.619     27.381    510.733    630.891    510.733    512.485    510.733
 65.670    566.825    610.168    -43.343    510.809    608.454    510.809    512.542    510.809
 65.770    610.154    593.050     17.104    510.884    591.345    510.884    512.602    510.884
 65.870    609.205    580.364     28.841    510.960    578.668    510.960    512.664    510.960
 65.970    534.209    571.334    -37.125    511.035    569.646    511.035    512.727    511.035
 66.070    556.000    565.302     -9.302    511.110    563.621    511.110    512.793    511.110
 66.170    530.000    561.706    -31.706    511.185    560.032    511.185    512.860    511.185
 66.270    536.000    560.071    -24.071    511.259    558.402    511.259    512.928    511.259
 66.370    593.604    560.027     33.577    511.334    558.362    511.334    512.999    511.334
 66.470    519.260    561.346    -42.086    511.408    559.683    511.408    513.071    511.408
 66.570    504.000    564.000    -60.000    511.482    562.337    511.482    513.145    511.482
 66.670    580.000    568.257     11.743    511.555    566.593    511.555    513.220    511.555
 66.770    557.000    574.868    -17.868    511.629    573.200    511.629    513.297    511.629
 66.870    554.466    585.382    -30.916    511.702    583.708    511.702    513.376    511.702
 66.970    583.000    602.617    -19.617    511.774    600.934    511.774    513.456    511.774
 67.070    605.000    631.217    -26.217    511.847    629.520    511.847    513.538    511.847
 67.170    684.000    678.074      5.926    511.919    676.362    511.919    513.622    511.919
 67.270    742.000    752.252    -10.252    511.991    750.520    511.991    513.708    511.991
 67.370    867.000    863.910      3.090    512.063    862.156    512.063    513.796    512.063
 67.470   1061.000   1021.909     39.091    512.134   1020.133    512.134    513.886    512.134
 67.570   1212.000   1230.195    -18.195    512.205   1228.403    512.205    513.978    512.205
 67.670   1461.966   1483.716    -21.750    512.275   1481.916    512.275    514.072    512.275
 67.770   1744.000   1765.086    -21.086    512.346   1763.292    512.346    514.169    512.346
 67.870   1985.177   2043.280    -58.103    512.415   2041.508    512.415    514.268    512.415
 67.970   2418.000   2275.735    142.265    512.485   2273.997    512.485    514.370    512.485
 68.070   2379.000   2416.435    -37.435    512.554   2414.738    512.554    514.474    512.554
 68.170   2407.000   2431.903    -24.903    512.623   2430.235    512.623    514.582    512.623
 68.270   2343.000   2318.064     24.936    512.691   2316.396    512.691    514.693    512.691
 68.370   2118.760   2102.772     15.988    512.759   2101.065    512.759    514.807    512.759
 68.470   1778.252   1831.005    -52.753    512.827   1829.224    512.827    514.925    512.827
 68.570   1537.457   1547.250     -9.793    512.894   1545.369    512.894    515.047    512.894
 68.670   1245.377   1285.548    -40.171    512.961   1283.553    512.961    515.174    512.961
 68.770   1062.580   1066.379     -3.799    513.027   1064.265    513.027    515.306    513.027
 68.870    845.000    897.360    -52.360    513.093    895.128    513.093    515.443    513.093
 68.970    799.000    776.224     22.776    513.158    773.876    513.158    515.586    513.158
 69.070    700.000    694.847      5.153    513.223    692.387    513.223    515.735    513.223
 69.170    690.000    643.075     46.925    513.288    640.504    513.288    515.891    513.288
 69.270    568.940    611.432    -42.492    513.352    608.749    513.352    516.056    513.352
 69.370    618.000    592.478     25.522    513.416    589.678    513.416    516.229    513.416
 69.470    576.000    581.067     -5.067    513.479    578.142    513.479    516.412    513.479
 69.570    612.000    573.986     38.014    513.542    570.928    513.542    516.607    513.542
 69.670    579.000    569.398      9.602    513.604    566.194    513.604    516.813    513.604
 69.770    601.000    566.320     34.680    513.665    562.956    513.665    517.033    513.665
 69.870    601.000    564.253     36.747    513.726    560.713    513.726    517.269    513.726
 69.970    551.000    562.952    -11.952    513.787    559.218    513.787    517.523    513.787
 70.070    538.000    562.302    -24.302    513.847    558.354    513.847    517.796    513.847
 70.170    543.000    562.263    -19.263    513.907    558.077    513.907    518.093    513.907
 70.270    600.000    562.852     37.148    513.966    558.402    513.966    518.416    513.966
 70.370    558.000    564.155     -6.155    514.024    559.409    514.024    518.769    514.024
 70.470    525.000    566.377    -41.377    514.082    561.299    514.082    519.157    514.082
 70.570    542.000    569.930    -27.930    514.140    564.480    514.140    519.586    514.140
 70.670    532.551    575.584    -43.033    514.196    569.711    514.196    520.063    514.196
 70.770    579.101    584.694     -5.594    514.253    578.339    514.253    520.597    514.253
 70.870    624.000    599.482     24.518    514.308    592.572    514.308    521.202    514.308
 70.970    615.671    623.303     -7.633    514.363    615.748    514.363    521.894    514.363
 71.070    627.000    660.768    -33.768    514.418    652.446    514.418    522.701    514.418
 71.170    722.000    717.510      4.490    514.472    708.255    514.472    523.669    514.472
 71.270    819.000    799.405     19.595    514.525    788.979    514.525    524.869    514.525
 71.370    916.000    911.160      4.840    514.578    899.206    514.578    526.422    514.578
 71.470   1027.000   1054.393    -27.393    514.630   1040.364    514.630    528.519    514.630
 71.570   1244.000   1225.633     18.367    514.681   1208.692    514.681    531.452    514.681
 71.670   1376.000   1414.795    -38.795    514.732   1393.683    514.732    535.650    514.732
 71.770   1597.000   1604.645     -7.645    514.782   1577.527    514.782    541.693    514.782
 71.870   1821.000   1771.747     49.253    514.831   1736.067    514.831    550.308    514.831
 71.970   1852.000   1889.976    -37.976    514.880   1842.361    514.880    562.313    514.880
 72.070   2010.333   1938.028     72.305    514.928   1874.303    514.928    578.505    514.928
 72.170   1908.000   1909.010     -1.010    514.975   1824.395    514.975    599.482    514.975
 72.270   1806.628   1814.405     -7.777    515.022   1703.936    515.022    625.419    515.022
 72.370   1708.000   1677.842     30.158    515.068   1537.035    515.068    655.833    515.068
 72.470   1543.000   1524.902     18.098    515.114   1350.623    515.114    689.370    515.114
 72.570   1406.000   1376.156     29.844    515.158   1167.661    515.158    723.642    515.158
 72.670   1283.850   1244.302     39.549    515.202   1004.326    515.202    755.173    515.202
 72.770   1099.000   1133.897    -34.897    515.246    869.498    515.246    779.641    515.246
 72.870   1061.528   1043.081     18.447    515.288    765.595    515.288    792.771    515.288
 72.970   1014.674    966.842     47.832    515.330    690.289    515.330    791.879    515.330
 73.070    823.000    900.378    -77.378    515.371    638.571    515.371    777.173    515.371
 73.170    771.000    840.831    -69.831    515.411    604.601    515.411    751.637    515.411
 73.270    761.000    787.171    -26.171    515.451    582.998    515.451    719.621    515.451
 73.370    672.000    739.368    -67.368    515.490    569.494    515.490    685.363    515.490
 73.470    628.000    697.750    -69.750    515.528    561.076    515.528    652.201    515.528
 73.570    629.000    662.642    -33.642    515.565    555.821    515.565    622.387    515.565
 73.670    563.000    634.161    -71.161    515.601    552.614    515.601    597.153    515.601
 73.770    630.296    612.105     18.191    515.637    550.863    515.637    576.885    515.637
 73.870    600.000    595.940      4.060    515.672    550.279    515.672    561.342    515.672
 73.970    603.514    584.872     18.642    515.706    550.701    515.706    549.890    515.706
 74.070    566.104    577.956    -11.852    515.740    551.991    515.740    541.722    515.740
 74.170    690.000    574.188    115.812    515.772    553.957    515.772    536.026    515.772
 74.270    588.000    572.574     15.426    515.804    556.315    515.804    532.092    515.804
 74.370    632.000    572.168     59.832    515.835    558.677    515.835    529.361    515.835
 74.470    590.306    572.093     18.213    515.865    560.575    515.865    527.423    515.865
 74.570    570.165    571.599     -1.434    515.894    561.537    515.894    525.999    515.894
 74.670    609.229    570.170     39.060    515.923    561.226    515.923    524.910    515.923
 74.770    557.182    567.635    -10.453    515.950    559.585    515.950    524.042    515.950
 74.870    629.000    564.183     64.817    515.977    556.872    515.977    523.326    515.977
 74.970    533.016    560.241    -27.226    516.003    553.555    516.003    522.722    516.003
 75.070    604.000    556.318     47.682    516.028    550.169    516.028    522.203    516.028
 75.170    574.154    552.915     21.239    516.052    547.236    516.052    521.752    516.052
 75.270    585.000    550.511     34.489    516.076    545.245    516.076    521.356    516.076
 75.370    589.594    549.567     40.027    516.098    544.667    516.098    521.006    516.098
 75.470    535.000    550.561    -15.561    516.120    545.986    516.120    520.697    516.120
 75.570    601.175    554.000     47.175    516.140    549.716    516.140    520.421    516.140
 75.670    571.266    560.406     10.860    516.160    556.383    516.160    520.174    516.160
 75.770    601.726    570.245     31.481    516.179    566.455    516.179    519.953    516.179
 75.870    580.000    583.802     -3.802    516.197    580.222    516.197    519.754    516.197
 75.970    572.257    601.014    -28.757    516.214    597.623    516.214    519.574    516.214
 76.070    621.000    621.298     -0.298    516.230    618.078    516.230    519.411    516.230
 76.170    642.050    643.433     -1.384    516.246    640.368    516.246    519.263    516.246
 76.270    693.000    665.514     27.486    516.260    662.590    516.260    519.128    516.260
 76.370    701.358    685.036     16.322    516.274    682.244    516.274    519.004    516.274
 76.470    666.158    699.189    -33.031    516.286    696.521    516.286    518.891    516.286
 76.570    696.000    705.491     -9.491    516.298    702.941    516.298    518.786    516.298
 76.670    695.000    702.670     -7.670    516.308    700.231    516.308    518.690    516.308
 76.770    733.000    691.232     41.768    516.318    688.900    516.318    518.601    516.318
 76.870    627.000    673.215    -46.215    516.327    670.983    516.327    518.518    516.327
 76.970    661.620    651.356     10.264    516.334    649.218    516.334    518.441    516.334
 77.070    652.000    628.326     23.674    516.341    626.275    516.341    518.369    516.341
 77.170    625.000    606.290     18.710    516.347    604.319    516.347    518.302    516.347
 77.270    588.112    586.743      1.370    516.352    584.845    516.352    518.238    516.352
 77.370    564.166    570.486     -6.320    516.356    568.655    516.356    518.179    516.356
 77.470    594.000    557.719     36.281    516.359    555.951    516.359    518.122    516.359
 77.570    527.000    548.186    -21.186    516.361    546.475    516.361    518.069    516.361
 77.670    545.000    541.380      3.620    516.362    539.722    516.362    518.018    516.362
 77.770    540.741    536.732      4.009    516.362    535.123    516.362    517.969    516.362
 77.870    519.169    533.639    -14.470    516.361    532.076    516.361    517.923    516.361
 77.970    547.000    531.612     15.388    516.359    530.091    516.359    517.878    516.359
 78.070    565.000    530.281     34.719    516.356    528.800    516.356    517.835    516.356
 78.170    489.000    529.395    -40.395    516.351    527.952    516.351    517.794    516.351
 78.270    525.000    528.789     -3.789    516.346    527.381    516.346    517.754    516.346
 78.370    493.964    528.364    -34.400    516.340    526.989    516.340    517.715    516.340
 78.470    554.000    528.066     25.934    516.333    526.721    516.333    517.678    516.333
 78.570    537.000    527.870      9.130    516.325    526.553    516.325    517.641    516.325
 78.670    524.760    527.769     -3.009    516.316    526.478    516.316    517.606    516.316
 78.770    507.000    527.770    -20.770    516.306    526.503    516.306    517.571    516.306
 78.870    528.000    527.889      0.111    516.295    526.645    516.295    517.538    516.295
 78.970    526.000    528.152     -2.152    516.282    526.927    516.282    517.507    516.282
 79.070    516.226    528.588    -12.362    516.269    527.379    516.269    517.477    516.269
 79.170    517.359    529.230    -11.871    516.255    528.033    516.255    517.450    516.255
 79.270    516.222    530.108    -13.886    516.239    528.919    516.239    517.426    516.239
 79.370    556.771    531.252     25.519    516.223    530.066    516.223    517.406    516.223
 79.470    536.956    532.686      4.271    516.205    531.495    516.205    517.392    516.205
 79.570    495.566    534.437    -38.871    516.187    533.234    516.187    517.385    516.187
 79.670    551.270    536.545     14.726    516.167    535.321    516.167    517.386    516.167
 79.770    526.514    539.076    -12.562    516.146    537.820    516.146    517.396    516.146
 79.870    539.000    542.147     -3.147    516.124    540.849    516.124    517.417    516.124
 79.970    531.427    545.948    -14.521    516.101    544.595    516.101    517.448    516.101
 80.070    544.000    550.769     -6.769    516.077    549.353    516.077    517.489    516.077
 80.170    536.000    557.015    -21.015    516.052    555.527    516.052    517.536    516.052
 80.270    572.000    565.165      6.835    516.026    563.602    516.026    517.587    516.026
 80.370    552.000    575.688    -23.688    515.999    574.051    515.999    517.637    515.999
 80.470    584.000    588.920     -4.920    515.971    587.217    515.971    517.677    515.971
 80.570    631.274    604.948     26.325    515.941    603.198    515.941    517.700    515.941
 80.670    647.000    623.524     23.476    515.911    621.750    515.911    517.698    515.911
 80.770    624.922    644.006    -19.084    515.879    642.240    515.879    517.664    515.879
 80.870    681.000    665.378     15.622    515.847    663.652    515.847    517.597    515.847
 80.970    686.000    686.345     -0.345    515.813    684.687    515.813    517.502    515.813
 81.070    731.000    705.518     25.482    515.778    703.949    515.778    517.386    515.778
 81.170    723.000    721.601      1.399    515.742    720.132    515.742    517.256    515.742
 81.270    692.000    733.520    -41.520    515.705    732.155    515.705    517.122    515.705
 81.370    747.000    740.512      6.488    515.667    739.248    515.667    516.988    515.667
 81.470    696.593    742.206    -45.614    515.627    741.036    515.627    516.860    515.627
 81.570    804.000    738.657     65.343    515.587    737.570    515.587    516.740    515.587
 81.670    724.000    730.285     -6.285    515.545    729.269    515.545    516.629    515.545
 81.770    702.000    717.834    -15.834    515.502    716.877    515.502    516.529    515.502
 81.870    713.341    702.361     10.980    515.459    701.450    515.459    516.437    515.459
 81.970    711.870    685.118     26.752    515.414    684.242    515.414    516.354    515.414
 82.070    716.088    667.307     48.781    515.368    666.458    515.368    516.278    515.368
 82.170    677.000    649.840     27.160    515.320    649.011    515.320    516.207    515.320
 82.270    663.125    633.253     29.872    515.272    632.438    515.272    516.141    515.272
 82.370    680.000    617.785     62.215    515.223    616.980    515.223    516.077    515.223
 82.470    598.000    603.542     -5.542    515.172    602.743    515.172    516.015    515.172
 82.570    580.987    590.634     -9.647    515.120    589.839    515.120    515.954    515.120
 82.670    563.000    579.217    -16.217    515.067    578.424    515.067    515.894    515.067
 82.770    539.000    569.461    -30.461    515.013    568.667    515.013    515.833    515.013
 82.870    552.000    561.519     -9.519    514.958    560.724    514.958    515.773    514.958
 82.970    524.000    555.509    -31.509    514.902    554.712    514.902    515.712    514.902
 83.070    589.944    551.501     38.443    514.844    550.700    514.844    515.651    514.844
 83.170    577.151    549.500     27.651    514.786    548.696    514.786    515.589    514.786
 83.270    512.000    549.429    -37.429    514.726    548.620    514.726    515.526    514.726
 83.370    533.000    551.104    -18.104    514.665    550.291    514.665    515.463    514.665
 83.470    569.000    554.230     14.770    514.603    553.412    514.603    515.399    514.603
 83.570    572.000    558.390     13.610    514.540    557.567    514.540    515.334    514.540
 83.670    556.000    563.059     -7.059    514.476    562.231    514.476    515.268    514.476
 83.770    543.000    567.628    -24.628    514.410    566.796    514.410    515.202    514.410
 83.870    574.000    571.448      2.552    514.343    570.614    514.343    515.135    514.343
 83.970    532.000    573.907    -41.907    514.276    573.072    514.276    515.067    514.276
 84.070    572.000    574.545     -2.545    514.207    573.710    514.207    514.998    514.207
 84.170    542.000    573.178    -31.178    514.137    572.345    514.137    514.928    514.137
 84.270    561.000    569.951     -8.951    514.065    569.121    514.065    514.858    514.065
 84.370    555.749    565.270     -9.521    513.993    564.444    513.993    514.786    513.993
 84.470    563.000    559.670      3.330    513.920    558.847    513.920    514.714    513.920
 84.570    538.116    553.693    -15.577    513.845    552.874    513.845    514.641    513.845
 84.670    553.000    547.811      5.189    513.769    546.994    513.769    514.567    513.769
 84.770    479.000    542.388    -63.388    513.692    541.573    513.692    514.492    513.692
 84.870    575.108    537.662     37.446    513.614    536.848    513.614    514.416    513.614
 84.970    574.826    533.752     41.074    513.535    532.939    513.535    514.340    513.535
 85.070    485.000    530.674    -45.674    513.454    529.859    513.454    514.262    513.454
 85.170    554.000    528.367     25.633    513.373    527.551    513.373    514.184    513.373
 85.270    521.000    526.731     -5.731    513.290    525.911    513.290    514.105    513.290
 85.370    535.035    525.648      9.387    513.206    524.825    513.206    514.025    513.206
 85.470    512.000    525.012    -13.012    513.121    524.185    513.121    513.944    513.121
 85.570    492.000    524.741    -32.741    513.035    523.909    513.035    513.862    513.035
 85.670    523.000    524.786     -1.786    512.948    523.949    512.948    513.780    512.948
 85.770    542.000    525.140     16.860    512.859    524.298    512.859    513.697    512.859
 85.870    528.000    525.838      2.162    512.770    524.989    512.770    513.612    512.770
 85.970    540.000    526.959     13.041    512.679    526.102    512.679    513.527    512.679
 86.070    504.000    528.625    -24.625    512.587    527.759    512.587    513.442    512.587
 86.170    561.000    530.999     30.001    512.494    530.124    512.494    513.355    512.494
 86.270    573.164    534.275     38.889    512.400    533.388    512.400    513.268    512.400
 86.370    558.000    538.656     19.344    512.305    537.757    512.305    513.180    512.305
 86.470    508.827    544.332    -35.506    512.208    543.419    512.208    513.091    512.208
 86.570    534.802    551.440    -16.637    512.111    550.509    512.111    513.001    512.111
 86.670    604.341    560.010     44.330    512.012    559.061    512.012    512.911    512.012
 86.770    577.000    569.952      7.048    511.912    568.983    511.912    512.820    511.912
 86.870    574.000    581.004     -7.004    511.811    580.014    511.811    512.728    511.811
 86.970    573.206    592.685    -19.479    511.709    591.673    511.709    512.636    511.709
 87.070    605.000    604.324      0.676    511.606    603.290    511.606    512.543    511.606
 87.170    654.000    615.078     38.922    511.501    614.023    511.501    512.449    511.501
 87.270    614.403    623.994     -9.592    511.396    622.922    511.396    512.355    511.396
 87.370    669.000    630.142     38.858    511.289    629.055    511.289    512.260    511.289
 87.470    666.000    632.811     33.189    511.182    631.714    511.182    512.164    511.182
 87.570    634.000    631.716      2.284    511.073    630.612    511.073    512.067    511.073
 87.670    646.000    627.092     18.908    510.963    625.985    510.963    511.971    510.963
 87.770    617.128    619.610     -2.482    510.852    618.501    510.852    511.874    510.852
 87.870    622.000    610.192     11.808    510.740    609.081    510.740    511.777    510.740
 87.970    590.000    599.839     -9.839    510.626    598.726    510.626    511.680    510.626
 88.070    605.855    589.514     16.342    510.512    588.397    510.512    511.582    510.512
 88.170    558.000    580.062    -22.062    510.397    578.940    510.397    511.485    510.397
 88.270    571.263    572.165     -0.902    510.280    571.035    510.280    511.387    510.280
 88.370    527.000    566.305    -39.305    510.162    565.166    510.162    511.288    510.162
 88.470    541.955    562.759    -20.803    510.044    561.608    510.044    511.190    510.044
 88.570    562.000    561.598      0.402    509.924    560.434    509.924    511.092    509.924
 88.670    588.731    562.706     26.024    509.803    561.527    509.803    510.994    509.803
 88.770    579.836    565.794     14.042    509.681    564.598    509.681    510.896    509.681
 88.870    583.000    570.425     12.575    509.558    569.210    509.558    510.799    509.558
 88.970    587.000    576.036     10.964    509.434    574.802    509.434    510.702    509.434
 89.070    581.000    581.971     -0.971    509.309    580.716    509.309    510.605    509.309
 89.170    612.000    587.518     24.482    509.182    586.239    509.182    510.509    509.182
 89.270    662.000    591.956     70.044    509.055    590.651    509.055    510.414    509.055
 89.370    556.577    594.649    -38.072    508.927    593.314    508.927    510.320    508.927
 89.470    619.527    595.150     24.377    508.797    593.782    508.797    510.227    508.797
 89.570    616.225    593.308     22.918    508.667    591.901    508.667    510.135    508.667
 89.670    597.000    589.291      7.709    508.535    587.842    508.535    510.045    508.535
 89.770    566.000    583.526    -17.526    508.403    582.029    508.403    509.957    508.403
 89.870    594.559    576.574     17.985    508.269    575.024    508.269    509.871    508.269
 89.970    546.000    569.020    -23.020    508.134    567.411    508.134    509.788    508.134
 90.070    538.000    561.393    -23.393    507.999    559.723    507.999    509.707    507.999
 90.170    571.360    554.131     17.228    507.862    552.395    507.862    509.630    507.862
 90.270    490.000    547.555    -57.555    507.724    545.748    507.724    509.557    507.724
 90.370    555.000    541.865     13.135    507.585    539.983    507.585    509.488    507.585
 90.470    542.702    537.150      5.552    507.446    535.186    507.446    509.424    507.446
 90.570    529.000    533.376     -4.376    507.305    531.326    507.305    509.367    507.305
 90.670    512.000    530.525    -18.525    507.163    528.379    507.163    509.317    507.163
 90.770    519.000    528.494     -9.494    507.021    526.243    507.021    509.277    507.021
 90.870    540.000    527.144     12.856    506.877    524.775    506.877    509.249    506.877
 90.970    495.412    526.364    -30.952    506.732    523.860    506.732    509.237    506.732
 91.070    534.000    526.060      7.940    506.586    523.400    506.586    509.246    506.586
 91.170    508.277    526.174    -17.897    506.440    523.330    506.440    509.283    506.440
 91.270    529.000    526.689      2.311    506.292    523.623    506.292    509.357    506.292
 91.370    519.694    527.632     -7.937    506.144    524.290    506.144    509.483    506.144
 91.470    500.510    529.074    -28.564    505.994    525.390    505.994    509.675    505.994
 91.570    522.517    531.137     -8.620    505.844    527.019    505.844    509.956    505.844
 91.670    515.000    533.989    -18.989    505.692    529.320    505.692    510.355    505.692
 91.770    509.957    537.845    -27.888    505.540    532.471    505.540    510.905    505.540
 91.870    587.661    542.949     44.713    505.387    536.680    505.387    511.643    505.387
 91.970    568.641    549.566     19.075    505.233    542.172    505.233    512.612    505.233
 92.070    538.000    557.964    -19.964    505.077    549.168    505.077    513.854    505.077
 92.170    535.000    568.379    -33.379    504.921    557.865    504.921    515.411    504.921
 92.270    622.000    580.985     41.015    504.765    568.400    504.765    517.319    504.765
 92.370    633.680    595.868     37.813    504.607    580.835    504.607    519.603    504.607
 92.470    645.000    612.995     32.005    504.448    595.127    504.448    522.272    504.448
 92.570    645.000    632.173     12.827    504.289    611.097    504.289    525.314    504.289
 92.670    605.000    653.043    -48.043    504.128    628.425    504.128    528.688    504.128
 92.770    663.573    675.071    -11.498    503.967    646.651    503.967    532.322    503.967
 92.870    673.000    697.561    -24.561    503.805    665.185    503.805    536.111    503.805
 92.970    705.000    719.695    -14.695    503.642    683.353    503.642    539.909    503.642
 93.070    786.000    740.618     45.382    503.478    700.488    503.478    543.530    503.478
 93.170    776.000    759.571     16.429    503.313    716.051    503.313    546.755    503.313
 93.270    792.000    776.019     15.981    503.148    729.749    503.148    549.339    503.148
 93.370    797.000    789.723      7.277    502.981    741.577    502.981    551.050    502.981
 93.470    769.000    800.730    -31.730    502.814    751.765    502.814    551.703    502.814
 93.570    808.000    809.307     -1.307    502.646    760.663    502.646    551.216    502.646
 93.670    760.703    815.876    -55.173    502.477    768.657    502.477    549.625    502.477
 93.770    786.339    820.981    -34.642    502.308    776.142    502.308    547.079    502.308
 93.870    879.234    825.279     53.955    502.138    783.555    502.138    543.796    502.138
 93.970    881.243    829.523     51.720    501.967    791.407    501.967    540.019    501.967
 94.070    873.000    834.474     38.526    501.795    800.226    501.795    535.982    501.795
 94.170    866.000    840.741     25.259    501.622    810.421    501.622    531.883    501.622
 94.270    858.385    848.592      9.792    501.449    822.100    501.449    527.885    501.449
 94.370    876.000    857.819     18.181    501.275    834.931    501.275    524.109    501.275
 94.470    905.000    867.697     37.303    501.100    848.105    501.100    520.642    501.100
 94.570    836.401    877.033    -40.632    500.924    860.378    500.924    517.535    500.924
 94.670    942.000    884.299     57.701    500.748    870.197    500.748    514.812    500.748
 94.770    960.000    887.843     72.157    500.571    875.913    500.571    512.471    500.571
 94.870    890.315    886.174      4.141    500.394    876.051    500.394    510.495    500.394
 94.970    889.000    878.332     10.668    500.215    869.684    500.215    508.851    500.215
 95.070    842.685    864.087    -21.402    500.036    856.620    500.036    507.499    500.036
 95.170    862.000    844.024     17.976    499.857    837.487    499.857    506.397    499.857
 95.270    831.000    819.426     11.574    499.677    813.611    499.677    505.501    499.677
 95.370    828.000    792.022     35.978    499.496    786.758    499.496    504.772    499.496
 95.470    764.000    763.743      0.257    499.314    758.895    499.314    504.176    499.314
 95.570    696.291    736.537    -40.246    499.132    732.001    499.132    503.682    499.132
 95.670    717.000    712.255      4.745    498.949    707.948    498.949    503.267    498.949
 95.770    730.000    692.574     37.426    498.766    688.435    498.766    502.913    498.766
 95.870    666.000    678.966    -12.966    498.582    674.947    498.582    502.604    498.582
 95.970    656.000    672.691    -16.691    498.397    668.754    498.397    502.330    498.397
 96.070    623.000    674.802    -51.802    498.212    670.918    498.212    502.083    498.212
 96.170    699.050    686.156     12.894    498.027    682.303    498.027    501.857    498.027
 96.270    704.000    707.410     -3.410    497.841    703.568    497.841    501.650    497.841
 96.370    733.000    738.985     -5.985    497.654    735.138    497.654    501.458    497.654
 96.470    780.000    781.009     -1.009    497.467    777.142    497.467    501.279    497.467
 96.570    797.000    833.201    -36.201    497.279    829.301    497.279    501.112    497.279
 96.670    944.059    894.773     49.286    497.091    890.830    497.091    500.957    497.091
 96.770    985.708    964.329     21.378    496.902    960.332    496.902    500.813    496.902
 96.870   1025.000   1039.782    -14.782    496.713   1035.722    496.713    500.680    496.713
 96.970   1070.985   1118.330    -47.345    496.523   1114.197    496.523    500.558    496.523
 97.070   1202.214   1196.477      5.736    496.333   1192.265    496.333    500.447    496.333
 97.170   1334.672   1270.146     64.526    496.143   1265.846    496.143    500.348    496.143
 97.270   1366.330   1334.884     31.446    495.952   1330.490    495.952    500.261    495.952
 97.370   1447.000   1386.248     60.752    495.760   1381.751    495.760    500.186    495.760
 97.470   1456.000   1420.362     35.638    495.568   1415.751    495.568    500.125    495.568
 97.570   1447.000   1434.580     12.420    495.376   1429.843    495.376    500.079    495.376
 97.670   1429.000   1428.020      0.980    495.184   1423.142    495.184    500.049    495.184
 97.770   1434.000   1401.714     32.286    494.991   1396.676    494.991    500.037    494.991
 97.870   1373.648   1358.305     15.343    494.798   1353.084    494.798    500.045    494.798
 97.970   1339.039   1301.489     37.550    494.604   1296.058    494.604    500.076    494.604
 98.070   1262.000   1235.446     26.554    494.410   1229.773    494.410    500.134    494.410
 98.170   1160.000   1164.408     -4.408    494.216   1158.456    494.216    500.225    494.216
 98.270   1094.357   1092.374      1.983    494.021   1086.098    494.021    500.356    494.021
 98.370   1090.000   1022.931     67.069    493.827   1016.277    493.827    500.539    493.827
 98.470    960.000    959.146      0.854    493.631    952.044    493.631    500.786    493.631
 98.570    917.000    903.565     13.435    493.436    895.929    493.436    501.118    493.436
 98.670    853.274    858.200     -4.926    493.241    849.918    493.241    501.560    493.241
 98.770    771.797    824.571    -52.774    493.045    815.498    493.045    502.146    493.045
 98.870    838.227    803.807     34.419    492.849    793.753    492.849    502.921    492.849
 98.970    797.000    796.721      0.279    492.653    785.442    492.653    503.940    492.653
 99.070    752.983    803.884    -50.901    492.456    791.066    492.456    505.273    492.456
 99.170    770.117    825.668    -55.551    492.260    810.917    492.260    507.002    492.260
 99.270    884.000    862.258     21.742    492.063    845.080    492.063    509.226    492.063
 99.370    942.678    913.613     29.065    491.866    893.405    491.866    512.053    491.866
 99.470    998.000    979.394     18.606    491.669    955.436    491.669    515.604    491.669
 99.570   1101.013   1058.876     42.137    491.472   1030.324    491.472    520.002    491.472
 99.670   1127.000   1150.840    -23.840    491.275   1116.728    491.275    525.369    491.275
 99.770   1304.803   1253.474     51.329    491.078   1212.729    491.078    531.811    491.078
 99.870   1381.000   1364.298     16.702    490.880   1315.763    490.880    539.414    490.880
 99.970   1444.168   1480.132    -35.964    490.683   1422.603    490.683    548.226    490.683
100.070   1579.000   1597.138    -18.138    490.486   1529.411    490.486    558.246    490.486
100.170   1746.000   1710.975     35.025    490.288   1631.906    490.288    569.412    490.288
100.270   1757.672   1817.096    -59.424    490.091   1725.677    490.091    581.590    490.091
100.370   1982.470   1911.149     71.321    489.893   1806.584    489.893    594.563    489.893
100.470   2024.000   1989.353     34.647    489.696   1871.151    489.696    608.029    489.696
100.570   2072.000   2048.718     23.282    489.499   1916.780    489.499    621.591    489.499
100.670   2109.485   2087.047     22.438    489.301   1941.765    489.301    634.758    489.301
100.770   2159.000   2102.866     56.134    489.104   1945.207    489.104    646.955    489.104
100.870   2153.000   2095.468     57.532    488.907   1927.038    488.907    657.542    488.907
100.970   2049.000   2065.148    -16.148    488.710   1888.210    488.710    665.860    488.710
101.070   2053.000   2013.516     39.484    488.513   1830.933    488.513    671.312    488.513
101.170   1914.000   1943.641    -29.641    488.317   1758.715    488.317    673.458    488.317
101.270   1865.000   1859.850      5.150    488.120   1676.076    488.120    672.104    488.120
101.370   1829.362   1767.233     62.129    487.924   1588.007    487.924    667.349    487.924
101.470   1670.000   1671.025     -1.025    487.728   1499.380    487.728    659.560    487.728
101.570   1587.000   1576.064     10.936    487.532   1414.476    487.532    649.292    487.532
101.670   1443.000   1486.397    -43.397    487.336   1336.698    487.336    637.192    487.336
101.770   1360.000   1405.062    -45.062    487.141   1268.432    487.141    623.912    487.141
101.870   1311.231   1333.993    -22.762    486.946   1211.013    486.946    610.052    486.946
101.970   1215.854   1274.028    -58.173    486.751   1164.758    486.751    596.134    486.751
102.070   1225.928   1224.977      0.951    486.556   1129.052    486.556    582.584    486.556
102.170   1213.162   1185.752     27.410    486.362   1102.471    486.362    569.738    486.362
102.270   1211.263   1154.530     56.733    486.168   1082.948    486.168    557.840    486.168
102.370   1193.000   1128.970     64.030    485.975   1067.980    485.975    547.051    485.975
102.470   1037.000   1106.474    -69.474    485.782   1054.884    485.782    537.456    485.782
102.570   1070.000   1084.496    -14.496    485.589   1041.094    485.589    529.077    485.589
102.670   1041.000   1060.878    -19.878    485.397   1024.482    485.397    521.879    485.397
102.770    987.000   1034.119    -47.119    485.205   1003.622    485.205    515.789    485.205
102.870    988.000   1003.517    -15.517    485.013    977.912    485.013    510.706    485.013
102.970    965.000    969.123     -4.123    484.822    947.520    484.822    506.512    484.822
103.070    959.000    931.570     27.430    484.632    913.201    484.632    503.083    484.632
103.170    911.000    891.846     19.154    484.442    876.068    484.442    500.299    484.442
103.270    849.000    851.101     -2.101    484.253    837.382    484.253    498.045    484.253
103.370    859.000    810.497     48.503    484.064    798.409    484.064    496.220    484.064
103.470    819.000    771.114     47.886    483.876    760.316    483.876    494.735    483.876
103.570    730.000    733.872     -3.872    483.688    724.096    483.688    493.517    483.688
103.670    710.000    699.490     10.510    483.501    690.532    483.501    492.506    483.501
103.770    685.000    668.487     16.513    483.315    660.188    483.315    491.654    483.315
103.870    681.817    641.150     40.668    483.129    633.390    483.129    490.923    483.129
103.970    569.647    617.559    -47.912    482.944    610.246    482.944    490.285    482.944
104.070    608.000    597.622     10.378    482.760    590.686    482.760    489.718    482.760
104.170    622.000    581.111     40.889    482.576    574.497    482.576    489.207    482.576
104.270    603.785    567.699     36.086    482.394    561.370    482.394    488.736    482.394
104.370    524.732    557.020    -32.288    482.212    550.938    482.212    488.304    482.212
104.470    592.000    548.682     43.318    482.030    542.817    482.030    487.903    482.030
104.570    532.962    542.305     -9.343    481.850    536.633    481.850    487.526    481.850
104.670    536.282    537.545     -1.262    481.670    532.047    481.670    487.171    481.670
104.770    561.000    534.106     26.894    481.492    528.763    481.492    486.835    481.492
104.870    489.000    531.745    -42.745    481.314    526.543    481.314    486.516    481.314
104.970    563.000    530.277     32.723    481.137    525.201    481.137    486.212    481.137
105.070    504.262    529.570    -25.308    480.961    524.608    480.961    485.920    480.961
105.170    521.000    529.536     -8.536    480.786    524.684    480.786    485.633    480.786
105.270    558.552    530.156     28.397    480.611    525.397    480.611    485.364    480.611
105.370    544.000    531.434     12.566    480.438    526.756    480.438    485.110    480.438
105.470    546.000    533.411     12.589    480.266    528.803    480.266    484.865    480.266
105.570    538.000    536.159      1.841    480.095    531.613    480.095    484.631    480.095
105.670    548.000    539.770      8.230    479.925    535.278    479.925    484.405    479.925
105.770    521.000    544.347    -23.347    479.756    539.900    479.756    484.189    479.756
105.870    520.059    549.986    -29.926    479.588    545.576    479.588    483.981    479.588
105.970    555.571    556.763     -1.193    479.422    552.385    479.422    483.781    479.422
106.070    568.000    564.722      3.278    479.256    560.367    479.256    483.589    479.256
106.170    546.000    573.861    -27.861    479.092    569.523    479.092    483.404    479.092
106.270    581.000    584.115     -3.115    478.929    579.788    478.929    483.226    478.929
106.370    629.865    595.355     34.510    478.767    591.033    478.767    483.056    478.767
106.470    578.476    607.384    -28.908    478.606    603.062    478.606    482.892    478.606
106.570    621.000    619.935      1.065    478.447    615.607    478.447    482.735    478.447
106.670    660.000    632.681     27.319    478.289    628.342    478.289    482.585    478.289
106.770    682.179    645.241     36.938    478.132    640.887    478.132    482.442    478.132
106.870    643.130    657.199    -14.069    477.977    652.825    477.977    482.305    477.977
106.970    695.000    668.131     26.869    477.823    663.733    477.823    482.175    477.823
107.070    713.000    677.635     35.365    477.670    673.209    477.670    482.052    477.670
107.170    699.800    685.379     14.421    477.519    680.920    477.519    481.935    477.519
107.270    640.000    691.151    -51.151    477.369    686.655    477.369    481.824    477.369
107.370    690.251    694.901     -4.650    477.221    690.364    477.221    481.721    477.221
107.470    691.000    696.758     -5.758    477.074    692.174    477.074    481.624    477.074
107.570    680.000    697.012    -17.012    476.929    692.378    476.929    481.534    476.929
107.670    665.063    696.070    -31.007    476.785    691.379    476.785    481.451    476.785
107.770    655.250    694.389    -39.139    476.643    689.637    476.643    481.375    476.643
107.870    666.000    692.419    -26.419    476.503    687.599    476.503    481.307    476.503
107.970    658.581    690.553    -31.972    476.364    685.660    476.364    481.246    476.364
108.070    648.122    689.092    -40.971    476.227    684.119    476.227    481.193    476.227
108.170    704.784    688.222     16.563    476.092    683.162    476.092    481.148    476.092
108.270    657.000    688.001    -31.001    475.958    682.848    475.958    481.112    475.958
108.370    630.000    688.360    -58.360    475.826    683.106    475.826    481.083    475.826
108.470    600.000    689.104    -89.104    475.696    683.743    475.696    481.064    475.696
108.570    756.000    689.932     66.068    475.568    684.456    475.568    481.054    475.568
108.670    688.000    690.461     -2.461    475.441    684.862    475.441    481.054    475.441
108.770    736.691    690.269     46.423    475.316    684.538    475.316    481.064    475.316
108.870    659.000    688.943    -29.943    475.194    683.071    475.194    481.084    475.194
108.970    690.000    686.143      3.857    475.073    680.121    475.073    481.116    475.073
109.070    662.936    681.651    -18.715    474.954    675.469    474.954    481.159    474.954
109.170    680.000    675.385      4.615    474.837    669.031    474.837    481.214    474.837
109.270    677.363    667.445      9.918    474.722    660.909    474.722    481.283    474.722
109.370    666.000    658.086      7.914    474.609    651.355    474.609    481.365    474.609
109.470    633.000    647.593    -14.593    474.498    640.654    474.498    481.461    474.498
109.570    591.168    636.317    -45.149    474.390    629.156    474.390    481.573    474.390
109.670    635.925    624.623     11.303    474.283    617.225    474.283    481.702    474.283
109.770    618.000    612.863      5.137    474.179    605.213    474.179    481.848    474.179
109.870    629.000    601.357     27.643    474.076    593.439    474.076    482.013    474.076
109.970    635.148    590.384     44.764    473.976    582.179    473.976    482.198    473.976
110.070    609.132    580.171     28.962    473.879    571.658    473.879    482.406    473.879
110.170    576.060    570.890      5.169    473.783    562.047    473.783    482.637    473.783
110.270    580.000    562.660     17.340    473.690    553.464    473.690    482.896    473.690
110.370    568.000    555.548     12.452    473.599    545.970    473.599    483.185    473.599
110.470    569.000    549.572     19.428    473.510    539.581    473.510    483.508    473.510
110.570    579.511    544.713     34.798    473.424    534.272    473.424    483.869    473.424
110.670    523.957    540.918    -16.961    473.341    529.985    473.341    484.275    473.341
110.770    545.000    538.114      6.886    473.259    526.640    473.259    484.735    473.259
110.870    580.000    536.216     43.784    473.181    524.139    473.181    485.257    473.181
110.970    543.000    535.132      7.868    473.104    522.380    473.104    485.854    473.104
111.070    538.398    534.774      3.624    473.031    521.258    473.031    486.544    473.031
111.170    505.450    535.061    -29.612    472.960    520.671    472.960    487.346    472.960
111.270    535.240    535.926     -0.686    472.891    520.526    472.891    488.287    472.891
111.370    543.000    537.316      5.684    472.825    520.737    472.825    489.399    472.825
111.470    587.000    539.196     47.804    472.762    521.231    472.762    490.721    472.762
111.570    528.000    541.554    -13.554    472.702    521.946    472.702    492.303    472.702
111.670    538.000    544.394     -6.394    472.644    522.828    472.644    494.202    472.644
111.770    553.000    547.746      5.254    472.589    523.838    472.589    496.489    472.589
111.870    541.000    551.662    -10.662    472.537    524.946    472.537    499.245    472.537
111.970    555.000    556.215     -1.215    472.488    526.132    472.488    502.562    472.488
112.070    564.000    561.503      2.497    472.441    527.390    472.441    506.545    472.441
112.170    585.197    567.645     17.552    472.398    528.722    472.398    511.312    472.398
112.270    538.400    574.777    -36.378    472.357    530.138    472.357    516.987    472.357
112.370    585.000    583.052      1.948    472.320    531.660    472.320    523.702    472.320
112.470    596.000    592.633      3.367    472.285    533.315    472.285    531.593    472.285
112.570    580.000    603.687    -23.687    472.254    535.138    472.254    540.792    472.254
112.670    576.705    616.385    -39.680    472.226    537.175    472.226    551.424    472.226
112.770    677.000    630.891     46.109    472.200    539.482    472.200    563.598    472.200
112.870    669.390    647.364     22.026    472.178    542.131    472.178    577.398    472.178
112.970    656.000    665.950     -9.950    472.159    545.214    472.159    592.881    472.159
113.070    681.572    686.785     -5.213    472.144    548.854    472.144    610.060    472.144
113.170    711.000    709.994      1.006    472.131    553.208    472.131    628.900    472.131
113.270    766.868    735.699     31.169    472.122    558.489    472.122    649.313    472.122
113.370    756.325    764.025     -7.700    472.117    564.975    472.117    671.145    472.117
113.470    763.000    795.116    -32.116    472.114    573.031    472.114    694.175    472.114
113.570    861.000    829.151     31.849    472.115    583.129    472.115    718.109    472.115
113.670    942.000    866.371     75.629    472.120    595.879    472.120    742.579    472.120
113.770    913.000    907.099      5.901    472.127    612.051    472.127    767.137    472.127
113.870    995.000    951.774     43.226    472.139    632.607    472.139    791.261    472.139
113.970   1010.000   1000.982      9.018    472.154    658.728    472.154    814.354    472.154
114.070   1040.000   1055.493    -15.493    472.172    691.840    472.172    835.760    472.172
114.170   1117.101   1116.295      0.805    472.195    733.630    472.195    854.782    472.195
114.270   1094.000   1184.642    -90.642    472.220    786.054    472.220    870.715    472.220
114.370   1220.000   1262.091    -42.091    472.250    851.328    472.250    882.900    472.250
114.470   1414.000   1350.537     63.463    472.283    931.899    472.283    890.786    472.283
114.570   1444.000   1452.227     -8.227    472.320   1030.394    472.320    893.990    472.320
114.670   1582.556   1569.729     12.828    472.361   1149.542    472.361    892.354    472.361
114.770   1771.000   1705.843     65.157    472.406   1292.057    472.406    885.962    472.406
114.870   1960.000   1863.452     96.548    472.455   1460.506    472.455    875.133    472.455
114.970   2082.000   2045.311     36.689    472.507   1657.135    472.507    860.371    472.507
115.070   2326.000   2253.789     72.211    472.564   1883.686    472.564    842.311    472.564
115.170   2476.852   2490.615    -13.764    472.624   2141.189    472.624    821.646    472.624
115.270   2822.000   2756.610     65.390    472.689   2429.765    472.689    799.082    472.689
115.370   2993.489   3051.464    -57.974    472.757   2748.433    472.757    775.290    472.757
115.470   3403.442   3373.543     29.899    472.830   3094.947    472.830    750.885    472.830
115.570   3680.101   3719.763    -39.662    472.907   3465.676    472.907    726.415    472.907
115.670   3934.000   4085.511   -151.511    472.988   3855.540    472.988    702.350    472.988
115.770   4378.000   4464.642    -86.642    473.073   4258.003    473.073    679.084    473.073
115.870   4853.716   4849.554      4.162    473.163   4665.148    473.163    656.933    473.163
115.970   5367.906   5231.326    136.580    473.257   5067.813    473.257    636.141    473.257
116.070   5690.750   5599.948     90.802    473.355   5455.815    473.355    616.881    473.355
116.170   5977.000   5944.621     32.379    473.458   5818.248    473.458    599.262    473.458
116.270   6347.331   6254.165     93.166    473.565   6143.882    473.565    583.335    473.565
116.370   6686.000   6517.620    168.380    473.677   6421.755    473.677    569.100    473.677
116.470   6675.000   6724.763    -49.763    473.793   6641.687    473.793    556.515    473.793
116.570   6890.000   6866.946     23.054    473.914   6795.103    473.914    545.501    473.914
116.670   6985.000   6937.847     47.153    474.039   6875.780    474.039    535.958    474.039
116.770   6947.213   6934.106     13.107    474.169   6880.473    474.169    527.764    474.169
116.870   6740.000   6855.689   -115.689    474.304   6809.275    474.304    520.789    474.304
116.970   6860.926   6705.879    155.047    474.443   6665.598    474.443    514.897    474.443
117.070   6379.136   6490.884   -111.748    474.587   6455.780    474.587    509.957    474.587
117.170   6237.857   6219.192     18.665    474.737   6188.432    474.737    505.840    474.737
117.270   5938.886   5900.806     38.080    474.890   5873.676    474.890    502.426    474.890
117.370   5642.215   5546.517     95.697    475.049   5522.411    475.049    499.607    475.049
117.470   5097.000   5167.273    -70.273    475.213   5145.680    475.213    497.287    475.213
117.570   4863.769   4773.666     90.103    475.382   4754.162    475.382    495.380    475.382
117.670   4424.000   4375.548     48.452    475.555   4357.784    475.555    493.813    475.555
117.770   4163.000   3981.735    181.265    475.734   3965.424    475.734    492.526    475.734
117.870   3635.699   3599.799     35.900    475.918   3584.710    475.918    491.466    475.918
117.970   3338.000   3235.947    102.053    476.107   3221.891    476.107    490.591    476.107
118.070   2878.716   2894.969    -16.254    476.302   2881.794    476.302    489.866    476.302
118.170   2686.000   2580.263    105.737    476.501   2567.849    476.501    489.264    476.501
118.270   2251.000   2293.920    -42.920    476.706   2282.169    476.706    488.763    476.706
118.370   2054.386   2036.853     17.534    476.917   2025.687    476.917    488.345    476.917
118.470   1720.000   1808.964    -88.964    477.132   1798.321    477.132    487.997    477.132
118.570   1621.000   1609.325     11.675    477.353   1599.154    477.353    487.708    477.353
118.670   1357.000   1436.363    -79.363    477.580   1426.623    477.580    487.469    477.580
118.770   1251.000   1288.043    -37.043    477.812   1278.699    477.812    487.274    477.812
118.870   1118.000   1162.041    -44.041    478.050   1153.064    478.050    487.118    478.050
118.970   1051.000   1055.893     -4.893    478.293   1047.258    478.293    486.997    478.293
119.070    991.340    967.123     24.217    478.542    958.808    478.542    486.908    478.542
119.170    844.000    893.343    -49.343    478.797    885.328    478.797    486.849    478.797
119.270    826.321    832.328     -6.006    479.057    824.594    479.057    486.817    479.057
119.370    785.000    782.058      2.942    479.323    774.588    479.323    486.811    479.323
119.470    760.862    740.748     20.113    479.595    733.525    479.595    486.829    479.595
119.570    648.000    706.853    -58.853    479.873    699.861    479.873    486.872    479.873
119.670    721.000    679.057     41.943    480.157    672.280    480.157    486.938    480.157
119.770    630.000    656.262    -26.262    480.447    649.684    480.447    487.027    480.447
119.870    576.000    637.562    -61.562    480.743    631.168    480.743    487.139    480.743
119.970    586.611    622.220    -35.610    481.045    615.993    481.045    487.274    481.045
120.070    621.000    609.643     11.357    481.353    603.566    481.353    487.432    481.353
120.170    599.000    599.357     -0.357    481.667    593.413    481.667    487.614    481.667
120.270    556.095    590.986    -34.891    481.988    585.158    481.988    487.819    481.988
120.370    596.003    584.237     11.766    482.315    578.505    482.315    488.050    482.315
120.470    569.000    578.878     -9.878    482.648    573.224    482.648    488.306    482.648
120.570    610.000    574.730     35.270    482.988    569.133    482.988    488.589    482.988
120.670    616.000    571.654     44.346    483.333    566.092    483.333    488.900    483.333
120.770    561.000    569.540     -8.540    483.686    563.991    483.686    489.240    483.686
120.870    608.532    568.304     40.228    484.045    562.745    484.045    489.610    484.045
120.970    608.369    567.880     40.490    484.410    562.285    484.410    490.011    484.410
121.070    569.000    568.211      0.789    484.783    562.556    484.783    490.445    484.783
121.170    560.000    569.251     -9.251    485.162    563.509    485.162    490.913    485.162
121.270    584.000    570.956     13.044    485.547    565.099    485.547    491.414    485.547
121.370    604.953    573.282     31.671    485.940    567.284    485.940    491.949    485.940
121.470    569.000    576.185     -7.185    486.339    570.018    486.339    492.519    486.339
121.570    572.000    579.612     -7.612    486.745    573.249    486.745    493.123    486.745
121.670    626.000    583.505     42.495    487.158    576.922    487.158    493.759    487.158
121.770    587.000    587.799     -0.799    487.578    580.970    487.578    494.427    487.578
121.870    582.000    592.416    -10.416    488.005    585.322    488.005    495.122    488.005
121.970    563.000    597.274    -34.274    488.439    589.894    488.439    495.845    488.439
122.070    635.000    602.280     32.720    488.880    594.597    488.880    496.591    488.880
122.170    588.000    607.330    -19.330    489.329    599.332    489.329    497.357    489.329
122.270    624.000    612.316     11.684    489.784    603.996    489.784    498.138    489.784
122.370    664.577    617.122     47.454    490.247    608.479    490.247    498.927    490.247
122.470    585.634    621.635    -36.001    490.718    612.673    490.718    499.718    490.718
122.570    625.000    625.738     -0.738    491.195    616.470    491.195    500.505    491.195
122.670    642.000    629.327     12.673    491.680    619.770    491.680    501.280    491.680
122.770    668.000    632.306     35.694    492.173    622.488    492.173    502.036    492.173
122.870    595.000    634.599    -39.599    492.673    624.555    492.673    502.764    492.673
122.970    588.828    636.152    -47.324    493.181    625.924    493.181    503.456    493.181
123.070    640.000    636.938      3.062    493.697    626.577    493.697    504.106    493.697
123.170    625.000    636.957    -11.957    494.220    626.518    494.220    504.707    494.220
123.270    640.000    636.234      3.766    494.751    625.778    494.751    505.254    494.751
123.370    647.000    634.816     12.184    495.290    624.407    495.290    505.746    495.290
123.470    665.000    632.769     32.231    495.837    622.468    495.837    506.182    495.837
123.570    631.000    630.167      0.833    496.391    620.037    496.391    506.564    496.391
123.670    650.000    627.098     22.902    496.954    617.195    496.954    506.897    496.954
123.770    658.000    623.648     34.352    497.525    614.024    497.525    507.187    497.525
123.870    666.654    619.907     46.748    498.103    610.606    498.103    507.439    498.103
123.970    631.000    615.958     15.042    498.690    607.016    498.690    507.664    498.690
124.070    631.000    611.880     19.120    499.286    603.328    499.286    507.867    499.286
124.170    609.000    607.745      1.255    499.889    599.602    499.889    508.057    499.889
124.270    585.000    603.612    -18.612    500.501    595.894    500.501    508.242    500.501
124.370    590.590    599.532     -8.942    501.121    592.245    501.121    508.428    501.121
124.470    623.000    595.543     27.457    501.750    588.687    501.750    508.622    501.750
124.570    570.000    591.669    -21.669    502.387    585.242    502.387    508.829    502.387
124.670    554.101    587.935    -33.833    503.033    581.926    503.033    509.054    503.033
124.770    620.000    584.348     35.652    503.687    578.744    503.687    509.301    503.687
124.870    543.537    580.912    -37.375    504.350    575.697    504.350    509.574    504.350
124.970    584.000    577.624      6.376    505.022    572.779    505.022    509.874    505.022
