neutron_powder_diffraction_0146
R_wp: 4.036
Temperature (K): 1074.000
Counts: 83431.00
Wavelength (Ã…): 2.52098
COMMENTS
Test file for demonstrating the .xyy file format in Reel1.0
END OF HEADER
   tth       Y_obs     Y_calc      Y_res    Background    Phase_1_Nuc    Phase_1_Mag    Phase_2_Nuc    Phase_2_Mag
  9.970    640.000    570.080     69.920    569.234    570.013    569.234    569.301    569.234
 10.070    612.495    570.250     42.245    569.336    570.183    569.336    569.404    569.336
 10.170    550.000    570.425    -20.425    569.433    570.357    569.433    569.500    569.433
 10.270    531.833    570.605    -38.772    569.523    570.536    569.523    569.591    569.523
 10.370    566.000    570.794     -4.794    569.608    570.725    569.608    569.676    569.608
 10.470    556.000    570.995    -14.995    569.687    570.926    569.687    569.755    569.687
 10.570    565.125    571.212     -6.087    569.760    571.143    569.760    569.828    569.760
 10.670    554.860    571.452    -16.592    569.827    571.382    569.827    569.896    569.827
 10.770    586.000    571.721     14.279    569.889    571.651    569.889    569.958    569.889
 10.870    554.793    572.030    -17.238    569.945    571.960    569.945    570.015    569.945
 10.970    618.000    572.395     45.605    569.996    572.324    569.996    570.066    569.996
 11.070    542.283    572.835    -30.551    570.041    572.763    570.041    570.111    570.041
 11.170    580.000    573.380      6.620    570.081    573.308    570.081    570.151    570.081
 11.270    612.578    574.080     38.499    570.116    574.007    570.116    570.186    570.116
 11.370    580.000    575.017      4.983    570.145    574.943    570.145    570.216    570.145
 11.470    543.278    576.384    -33.106    570.169    576.309    570.169    570.240    570.169
 11.570    587.000    578.680      8.320    570.187    578.604    570.187    570.259    570.187
 11.670    619.000    583.155     35.845    570.201    583.076    570.201    570.273    570.201
 11.770    609.000    592.321     16.679    570.209    592.236    570.209    570.282    570.209
 11.870    596.829    609.682    -12.853    570.213    609.588    570.213    570.285    570.213
 11.970    601.929    637.369    -35.440    570.211    637.260    570.211    570.284    570.211
 12.070    680.000    671.404      8.596    570.204    671.276    570.204    570.278    570.204
 12.170    696.000    697.531     -1.531    570.193    697.387    570.193    570.267    570.193
 12.270    745.566    698.359     47.207    570.177    698.215    570.177    570.251    570.177
 12.370    595.000    673.160    -78.160    570.156    673.029    570.156    570.230    570.156
 12.470    677.316    639.005     38.310    570.130    638.893    570.130    570.204    570.130
 12.570    609.000    610.748     -1.748    570.099    610.651    570.099    570.174    570.099
 12.670    633.000    592.835     40.165    570.064    592.747    570.064    570.139    570.064
 12.770    563.000    583.310    -20.310    570.024    583.227    570.024    570.100    570.024
 12.870    593.765    578.646     15.119    569.980    578.565    569.980    570.056    569.980
 12.970    565.000    576.254    -11.254    569.931    576.174    569.931    570.007    569.931
 13.070    557.000    574.830    -17.830    569.877    574.751    569.877    569.954    569.877
 13.170    571.000    573.851     -2.851    569.819    573.772    569.819    569.897    569.819
 13.270    564.000    573.117     -9.117    569.757    573.038    569.757    569.835    569.757
 13.370    563.000    572.541     -9.541    569.691    572.462    569.691    569.769    569.691
 13.470    594.735    572.074     22.661    569.620    571.994    569.620    569.698    569.620
 13.570    598.148    571.687     26.461    569.545    571.608    569.545    569.624    569.545
 13.670    601.000    571.356     29.644    569.466    571.277    569.466    569.545    569.466
 13.770    575.000    571.067      3.933    569.383    570.986    569.383    569.462    569.383
 13.870    527.000    570.808    -43.808    569.295    570.728    569.295    569.375    569.295
 13.970    529.000    570.574    -41.574    569.204    570.494    569.204    569.284    569.204
 14.070    577.654    570.359      7.295    569.108    570.278    569.108    569.189    569.108
 14.170    539.000    570.157    -31.157    569.009    570.076    569.009    569.090    569.009
 14.270    569.000    569.966     -0.966    568.906    569.885    568.906    568.987    568.906
 14.370    574.000    569.784      4.216    568.799    569.702    568.799    568.881    568.799
 14.470    632.000    569.609     62.391    568.688    569.525    568.688    568.772    568.688
 14.570    584.000    569.438     14.562    568.573    569.353    568.573    568.658    568.573
 14.670    605.253    569.270     35.983    568.454    569.184    568.454    568.540    568.454
 14.770    512.000    569.104    -57.104    568.332    569.017    568.332    568.418    568.332
 14.870    588.000    568.939     19.061    568.206    568.852    568.206    568.293    568.206
 14.970    558.000    568.775    -10.775    568.077    568.688    568.077    568.164    568.077
 15.070    594.325    568.612     25.714    567.944    568.524    567.944    568.032    567.944
 15.170    538.000    568.448    -30.448    567.808    568.360    567.808    567.896    567.808
 15.270    575.000    568.284      6.716    567.668    568.195    567.668    567.756    567.668
 15.370    556.000    568.119    -12.119    567.524    568.029    567.524    567.613    567.524
 15.470    562.531    567.952     -5.422    567.378    567.863    567.378    567.467    567.378
 15.570    529.519    567.784    -38.265    567.228    567.694    567.228    567.318    567.228
 15.670    547.000    567.615    -20.615    567.074    567.525    567.074    567.165    567.074
 15.770    538.851    567.444    -28.593    566.918    567.353    566.918    567.009    566.918
 15.870    574.757    567.272      7.485    566.758    567.180    566.758    566.849    566.758
 15.970    606.534    567.100     39.435    566.595    567.007    566.595    566.687    566.595
 16.070    525.898    566.924    -41.026    566.429    566.831    566.429    566.521    566.429
 16.170    583.000    566.745     16.255    566.260    566.652    566.260    566.353    566.260
 16.270    586.000    566.565     19.435    566.087    566.471    566.087    566.181    566.087
 16.370    521.607    566.383    -44.776    565.912    566.289    565.912    566.006    565.912
 16.470    581.144    566.199     14.944    565.734    566.104    565.734    565.829    565.734
 16.570    560.000    566.012     -6.012    565.553    565.917    565.553    565.648    565.553
 16.670    591.000    565.823     25.177    565.369    565.727    565.369    565.465    565.369
 16.770    609.809    565.631     44.178    565.182    565.535    565.182    565.278    565.182
 16.870    611.000    565.438     45.562    564.992    565.341    564.992    565.089    564.992
 16.970    560.345    565.242     -4.897    564.800    565.144    564.800    564.897    564.800
 17.070    555.000    565.044    -10.044    564.605    564.946    564.605    564.703    564.605
 17.170    560.000    564.844     -4.844    564.407    564.745    564.407    564.506    564.407
 17.270    569.000    564.642      4.358    564.206    564.542    564.206    564.306    564.206
 17.370    564.000    564.437     -0.437    564.003    564.337    564.003    564.103    564.003
 17.470    559.000    564.230     -5.230    563.797    564.129    563.797    563.898    563.797
 17.570    608.429    564.021     44.408    563.589    563.920    563.589    563.691    563.589
 17.670    559.000    563.810     -4.810    563.378    563.708    563.378    563.480    563.378
 17.770    580.000    563.597     16.403    563.165    563.494    563.165    563.268    563.165
 17.870    549.256    563.381    -14.125    562.949    563.278    562.949    563.053    562.949
 17.970    537.000    563.164    -26.164    562.731    563.060    562.731    562.836    562.731
 18.070    506.000    562.945    -56.945    562.511    562.840    562.511    562.616    562.511
 18.170    543.000    562.724    -19.724    562.288    562.618    562.288    562.394    562.288
 18.270    560.000    562.502     -2.502    562.063    562.395    562.063    562.170    562.063
 18.370    588.000    562.291     25.709    561.836    562.184    561.836    561.943    561.836
 18.470    520.000    562.074    -42.074    561.607    561.966    561.607    561.715    561.607
 18.570    562.341    561.846      0.494    561.375    561.738    561.375    561.484    561.375
 18.670    580.113    561.616     18.497    561.142    561.506    561.142    561.251    561.142
 18.770    533.000    561.384    -28.384    560.906    561.273    560.906    561.016    560.906
 18.870    553.000    561.150     -8.150    560.668    561.039    560.668    560.779    560.668
 18.970    548.000    560.914    -12.914    560.428    560.802    560.428    560.540    560.428
 19.070    533.806    560.677    -26.870    560.186    560.564    560.186    560.299    560.186
 19.170    581.000    560.438     20.562    559.942    560.324    559.942    560.056    559.942
 19.270    566.000    560.197      5.803    559.697    560.082    559.697    559.811    559.697
 19.370    601.000    559.955     41.045    559.449    559.840    559.449    559.565    559.449
 19.470    541.000    559.712    -18.712    559.200    559.595    559.200    559.316    559.200
 19.570    555.741    559.467     -3.726    558.948    559.349    558.948    559.066    558.948
 19.670    612.000    559.220     52.780    558.695    559.102    558.695    558.814    558.695
 19.770    523.000    558.973    -35.973    558.440    558.853    558.440    558.560    558.440
 19.870    532.000    558.724    -26.724    558.184    558.603    558.184    558.304    558.184
 19.970    577.000    558.474     18.526    557.926    558.352    557.926    558.047    557.926
 20.070    553.000    558.222     -5.222    557.666    558.100    557.666    557.788    557.666
 20.170    599.000    557.970     41.030    557.404    557.846    557.404    557.528    557.404
 20.270    559.617    557.725      1.893    557.141    557.600    557.141    557.266    557.141
 20.370    596.155    557.554     38.602    556.876    557.428    556.876    557.002    556.876
 20.470    525.138    557.323    -32.186    556.610    557.196    556.610    556.737    556.610
 20.570    548.000    557.071     -9.071    556.343    556.943    556.343    556.471    556.343
 20.670    535.197    556.819    -21.622    556.074    556.689    556.074    556.203    556.074
 20.770    543.371    556.562    -13.192    555.803    556.431    555.803    555.934    555.803
 20.870    547.000    556.304     -9.304    555.531    556.172    555.531    555.663    555.531
 20.970    583.000    556.046     26.954    555.258    555.913    555.258    555.391    555.258
 21.070    509.000    555.788    -46.788    554.983    555.653    554.983    555.118    554.983
 21.170    558.808    555.529      3.279    554.707    555.393    554.707    554.843    554.707
 21.270    533.000    555.270    -22.270    554.430    555.133    554.430    554.568    554.430
 21.370    551.000    555.011     -4.011    554.152    554.872    554.152    554.291    554.152
 21.470    571.852    554.753     17.099    553.872    554.612    553.872    554.013    553.872
 21.570    531.719    554.494    -22.776    553.591    554.352    553.591    553.733    553.591
 21.670    521.350    554.237    -32.887    553.309    554.093    553.309    553.453    553.309
 21.770    519.000    553.985    -34.985    553.026    553.840    553.026    553.171    553.026
 21.870    573.000    553.776     19.224    552.742    553.629    552.742    552.889    552.742
 21.970    592.000    553.541     38.459    552.457    553.392    552.457    552.606    552.457
 22.070    549.786    553.290     -3.504    552.170    553.140    552.170    552.321    552.170
 22.170    535.000    553.042    -18.042    551.883    552.890    551.883    552.036    551.883
 22.270    552.000    552.815     -0.815    551.595    552.660    551.595    551.749    551.595
 22.370    577.642    552.597     25.045    551.306    552.440    551.306    551.462    551.306
 22.470    546.000    552.359     -6.359    551.015    552.201    551.015    551.174    551.015
 22.570    517.000    552.125    -35.125    550.724    551.964    550.724    550.885    550.724
 22.670    570.517    551.896     18.621    550.433    551.733    550.433    550.596    550.433
 22.770    581.079    551.674     29.406    550.140    551.509    550.140    550.305    550.140
 22.870    496.000    551.460    -55.460    549.846    551.293    549.846    550.014    549.846
 22.970    532.000    551.257    -19.257    549.552    551.088    549.552    549.722    549.552
 23.070    572.000    551.068     20.932    549.257    550.896    549.257    549.430    549.257
 23.170    587.000    550.895     36.105    548.961    550.720    548.961    549.137    548.961
 23.270    511.000    550.744    -39.744    548.665    550.566    548.665    548.843    548.665
 23.370    516.723    550.618    -33.896    548.368    550.438    548.368    548.549    548.368
 23.470    512.203    550.531    -38.328    548.070    550.347    548.070    548.254    548.070
 23.570    580.043    550.486     29.557    547.772    550.299    547.772    547.959    547.772
 23.670    507.000    550.501    -43.501    547.473    550.312    547.473    547.663    547.473
 23.770    543.000    550.602     -7.602    547.173    550.410    547.173    547.367    547.173
 23.870    562.000    550.833     11.167    546.873    550.637    546.873    547.071    546.873
 23.970    580.000    551.253     28.747    546.572    551.054    546.572    546.774    546.572
 24.070    537.364    552.041    -14.677    546.271    551.839    546.271    546.477    546.271
 24.170    568.890    553.644     15.246    545.970    553.439    545.970    546.179    545.970
 24.270    601.458    557.074     44.383    545.668    556.868    545.668    545.882    545.668
 24.370    568.000    564.116      3.884    545.365    563.910    545.365    545.584    545.365
 24.470    578.000    576.838      1.162    545.063    576.636    545.063    545.286    545.063
 24.570    602.000    595.796      6.204    544.759    595.603    544.759    544.988    544.759
 24.670    627.000    617.172      9.828    544.456    616.990    544.456    544.690    544.456
 24.770    650.000    630.953     19.047    544.152    630.776    544.152    544.392    544.152
 24.870    692.000    627.561     64.439    543.848    627.376    543.848    544.093    543.848
 24.970    636.000    609.592     26.408    543.544    609.387    543.544    543.795    543.544
 25.070    619.000    587.888     31.112    543.239    587.662    543.239    543.497    543.239
 25.170    531.000    570.369    -39.369    542.934    570.122    542.934    543.200    542.934
 25.270    527.000    559.145    -32.145    542.629    558.882    542.629    542.902    542.629
 25.370    562.000    552.953      9.047    542.324    552.678    542.324    542.605    542.324
 25.470    535.393    549.754    -14.361    542.019    549.468    542.019    542.308    542.019
 25.570    526.000    547.992    -21.992    541.713    547.696    541.713    542.012    541.713
 25.670    574.000    546.854     27.146    541.408    546.547    541.408    541.716    541.408
 25.770    581.000    546.022     34.978    541.102    545.705    541.102    541.421    541.102
 25.870    580.591    545.369     35.221    540.796    545.040    540.796    541.127    540.796
 25.970    558.133    544.838     13.295    540.490    544.496    540.490    540.833    540.490
 26.070    513.821    544.403    -30.582    540.185    544.049    540.185    540.541    540.185
 26.170    589.000    544.052     44.948    539.879    543.683    539.879    540.249    539.879
 26.270    536.000    543.739     -7.739    539.573    543.354    539.573    539.959    539.573
 26.370    523.493    543.476    -19.983    539.267    543.075    539.267    539.670    539.267
 26.470    551.000    543.266      7.734    538.962    542.846    538.962    539.382    538.962
 26.570    513.966    543.108    -29.142    538.656    542.668    538.656    539.097    538.656
 26.670    568.651    543.003     25.649    538.351    542.540    538.351    538.813    538.351
 26.770    502.849    542.963    -40.114    538.046    542.477    538.046    538.532    538.046
 26.870    567.833    543.000     24.833    537.740    542.487    537.740    538.253    537.740
 26.970    549.000    543.122      5.878    537.436    542.580    537.436    537.977    537.436
 27.070    542.000    543.345     -1.345    537.131    542.770    537.131    537.705    537.131
 27.170    544.000    543.711      0.289    536.826    543.100    536.826    537.437    536.826
 27.270    611.000    544.270     66.730    536.522    543.618    536.522    537.173    536.522
 27.370    606.000    545.095     60.905    536.218    544.397    536.218    536.915    536.218
 27.470    541.000    546.311     -5.311    535.914    545.561    535.914    536.662    535.914
 27.570    503.626    548.290    -44.664    535.610    547.482    535.610    536.417    535.610
 27.670    583.000    552.375     30.625    535.307    551.498    535.307    536.181    535.307
 27.770    545.000    563.259    -18.259    535.004    562.302    535.004    535.955    535.004
 27.870    548.473    593.102    -44.629    534.702    592.046    534.702    535.741    534.702
 27.970    676.781    661.138     15.644    534.400    659.957    534.400    535.543    534.400
 28.070    818.970    776.058     42.911    534.098    774.724    534.098    535.363    534.098
 28.170    941.000    904.742     36.258    533.797    903.236    533.797    535.206    533.797
 28.270    980.000    967.962     12.038    533.496    966.286    533.496    535.078    533.496
 28.370    891.149    914.290    -23.141    533.195    912.437    533.195    534.990    533.195
 28.470    808.000    798.440      9.560    532.895    796.358    532.895    534.956    532.895
 28.570    762.000    708.915     53.085    532.596    706.506    532.596    534.996    532.596
 28.670    704.000    691.207     12.793    532.297    688.350    532.297    535.141    532.297
 28.770    716.916    739.210    -22.293    531.998    735.757    531.998    535.435    531.998
 28.870    835.000    810.532     24.468    531.700    806.287    531.700    535.935    531.700
 28.970    803.000    844.072    -41.072    531.403    838.770    531.403    536.711    531.403
 29.070    777.000    804.281    -27.281    531.106    797.564    531.106    537.838    531.106
 29.170    719.000    722.048     -3.048    530.809    713.492    530.809    539.381    530.809
 29.270    645.000    645.667     -0.667    530.514    634.829    530.514    541.361    530.514
 29.370    561.900    597.346    -35.446    530.219    583.868    530.219    543.700    530.219
 29.470    530.000    574.548    -44.548    529.924    558.361    529.924    546.111    529.924
 29.570    611.441    565.826     45.615    529.630    547.442    529.630    548.013    529.630
 29.670    571.000    562.044      8.956    529.337    542.704    529.337    548.675    529.337
 29.770    539.840    558.867    -19.027    529.045    540.208    529.045    547.702    529.045
 29.870    562.000    555.237      6.763    528.753    538.601    528.753    545.388    528.753
 29.970    567.000    551.457     15.543    528.462    537.476    528.462    542.441    528.462
 30.070    523.072    548.020    -24.948    528.172    536.707    528.172    539.482    528.172
 30.170    581.000    545.243     35.757    527.882    536.277    527.882    536.846    527.882
 30.270    560.800    543.354     17.446    527.593    536.303    527.593    534.642    527.593
 30.370    527.848    542.802    -14.954    527.305    537.243    527.305    532.860    527.305
 30.470    543.000    544.705     -1.705    527.018    540.274    527.018    531.442    527.018
 30.570    533.000    551.118    -18.118    526.731    547.524    526.731    530.314    526.731
 30.670    606.000    564.219     41.781    526.446    561.238    526.446    529.404    526.446
 30.770    608.000    583.744     24.256    526.161    581.215    526.161    528.653    526.161
 30.870    631.000    603.841     27.159    525.877    601.653    525.877    528.014    525.877
 30.970    623.000    612.946     10.054    525.594    611.029    525.594    527.456    525.594
 31.070    629.000    603.480     25.520    525.311    601.793    525.311    526.954    525.311
 31.170    572.000    582.464    -10.464    525.030    580.970    525.030    526.494    525.030
 31.270    541.000    561.452    -20.452    524.750    560.120    524.750    526.066    524.750
 31.370    572.070    546.547     25.523    524.470    545.346    524.470    525.663    524.470
 31.470    521.000    538.155    -17.155    524.191    537.062    524.191    525.280    524.191
 31.570    606.000    534.080     71.920    523.914    533.078    523.914    524.912    523.914
 31.670    513.934    532.146    -18.212    523.637    531.223    523.637    524.559    523.637
 31.770    555.366    531.110     24.256    523.361    530.253    523.361    524.216    523.361
 31.870    510.000    530.452    -20.452    523.086    529.654    523.086    523.883    523.086
 31.970    509.000    529.995    -20.995    522.813    529.248    522.813    523.558    522.813
 32.070    517.027    529.678    -12.651    522.540    528.977    522.540    523.241    522.540
 32.170    537.000    529.480      7.520    522.268    528.818    522.268    522.929    522.268
 32.270    545.942    529.393     16.550    521.997    528.766    521.997    522.623    521.997
 32.370    501.313    529.417    -28.104    521.728    528.821    521.728    522.322    521.728
 32.470    539.887    529.562     10.325    521.459    528.995    521.459    522.026    521.459
 32.570    553.797    529.846     23.951    521.191    529.303    521.191    521.733    521.191
 32.670    554.414    530.295     24.119    520.925    529.775    520.925    521.444    520.925
 32.770    543.000    530.949     12.051    520.659    530.449    520.659    521.158    520.659
 32.870    599.000    531.866     67.134    520.395    531.385    520.395    520.875    520.395
 32.970    490.000    533.132    -43.132    520.132    532.667    520.132    520.595    520.132
 33.070    551.827    534.883     16.944    519.870    534.433    519.870    520.318    519.870
 33.170    533.000    537.367     -4.367    519.609    536.931    519.609    520.044    519.609
 33.270    538.000    541.173     -3.173    519.349    540.749    519.349    519.771    519.349
 33.370    555.000    547.875      7.125    519.090    547.461    519.090    519.501    519.090
 33.470    527.326    561.473    -34.146    518.833    561.067    518.833    519.233    518.833
 33.570    608.000    590.287     17.713    518.577    589.885    518.577    518.967    518.577
 33.670    632.501    646.913    -14.411    518.322    646.511    518.322    518.704    518.322
 33.770    783.000    742.055     40.945    518.068    741.646    518.068    518.442    518.068
 33.870    910.000    870.985     39.015    517.815    870.569    517.815    518.182    517.815
 33.970   1014.088    998.802     15.286    517.563    998.385    517.563    517.924    517.563
 34.070   1047.466   1061.027    -13.562    517.313   1060.626    517.313    517.667    517.313
 34.170   1034.317   1014.308     20.009    517.064   1013.937    517.064    517.412    517.064
 34.270    907.177    892.569     14.608    516.816    892.226    516.816    517.160    516.816
 34.370    704.000    760.589    -56.589    516.570    760.260    516.570    516.908    516.570
 34.470    620.336    658.575    -38.239    516.324    658.251    516.324    516.659    516.324
 34.570    638.914    595.452     43.462    516.080    595.128    516.080    516.411    516.080
 34.670    526.000    562.183    -36.183    515.838    561.859    515.838    516.164    515.838
 34.770    555.000    546.018      8.982    515.596    545.695    515.596    515.920    515.596
 34.870    515.000    537.873    -22.873    515.356    537.552    515.356    515.677    515.356
 34.970    555.000    533.134     21.866    515.117    532.816    515.117    515.435    515.117
 35.070    493.048    529.910    -36.862    514.880    529.595    514.880    515.195    514.880
 35.170    516.152    527.492    -11.340    514.643    527.178    514.643    514.957    514.643
 35.270    489.000    525.586    -36.586    514.409    525.274    514.409    514.720    514.409
 35.370    523.000    524.040     -1.040    514.175    523.730    514.175    514.485    514.175
 35.470    553.000    522.760     30.240    513.943    522.452    513.943    514.251    513.943
 35.570    475.000    521.682    -46.682    513.712    521.375    513.712    514.019    513.712
 35.670    511.000    520.759     -9.759    513.483    520.453    513.483    513.788    513.483
 35.770    532.000    519.959     12.041    513.255    519.654    513.255    513.559    513.255
 35.870    495.000    519.254    -24.254    513.028    518.950    513.028    513.332    513.028
 35.970    489.000    518.629    -29.629    512.802    518.325    512.802    513.106    512.802
 36.070    552.000    518.073     33.927    512.579    517.770    512.579    512.881    512.579
 36.170    466.000    517.574    -51.574    512.356    517.271    512.356    512.659    512.356
 36.270    532.000    517.124     14.876    512.135    516.821    512.135    512.437    512.135
 36.370    539.000    516.718     22.282    511.915    516.415    511.915    512.217    511.915
 36.470    513.569    516.353     -2.784    511.697    516.050    511.697    511.999    511.697
 36.570    533.908    516.028     17.880    511.480    515.725    511.480    511.783    511.480
 36.670    549.495    515.745     33.750    511.265    515.442    511.265    511.567    511.265
 36.770    486.000    515.515    -29.515    511.051    515.211    511.051    511.354    511.051
 36.870    481.000    515.361    -34.361    510.838    515.058    510.838    511.142    510.838
 36.970    488.000    515.347    -27.347    510.627    515.043    510.627    510.931    510.627
 37.070    493.000    515.598    -22.598    510.417    515.293    510.417    510.722    510.417
 37.170    547.997    516.323     31.674    510.209    516.018    510.209    510.515    510.209
 37.270    489.000    517.781    -28.781    510.002    517.474    510.002    510.309    510.002
 37.370    548.000    520.139     27.861    509.797    519.833    509.797    510.105    509.797
 37.470    524.717    523.258      1.459    509.593    522.951    509.593    509.903    509.593
 37.570    523.400    526.440     -3.041    509.391    526.133    509.391    509.702    509.391
 37.670    521.000    528.419     -7.419    509.190    528.112    509.190    509.502    509.190
 37.770    511.625    528.149    -16.524    508.991    527.842    508.991    509.304    508.991
 37.870    518.000    525.880     -7.880    508.793    525.574    508.793    509.108    508.793
 37.970    564.440    522.730     41.710    508.597    522.424    508.597    508.913    508.597
 38.070    547.000    519.590     27.410    508.402    519.282    508.402    508.720    508.402
 38.170    541.000    516.864     24.136    508.209    516.554    508.209    508.529    508.209
 38.270    530.000    514.730     15.270    508.017    514.415    508.017    508.339    508.017
 38.370    476.449    513.199    -36.750    507.827    512.880    507.827    508.151    507.827
 38.470    516.076    512.159      3.917    507.638    511.836    507.638    507.964    507.638
 38.570    506.562    511.464     -4.902    507.451    511.137    507.451    507.779    507.451
 38.670    493.000    510.983    -17.983    507.265    510.654    507.265    507.596    507.265
 38.770    500.682    510.625     -9.943    507.081    510.293    507.081    507.414    507.081
 38.870    471.000    510.335    -39.335    506.899    510.000    506.899    507.234    506.899
 38.970    485.000    510.082    -25.082    506.718    509.744    506.718    507.056    506.718
 39.070    480.031    509.853    -29.823    506.538    509.513    506.538    506.879    506.538
 39.170    488.000    509.642    -21.642    506.360    509.299    506.360    506.704    506.360
 39.270    537.000    509.445     27.555    506.184    509.099    506.184    506.530    506.184
 39.370    557.000    509.260     47.740    506.009    508.911    506.009    506.359    506.009
 39.470    496.625    509.085    -12.460    505.836    508.733    505.836    506.188    505.836
 39.570    500.000    508.920     -8.920    505.664    508.565    505.664    506.020    505.664
 39.670    469.000    508.764    -39.764    505.494    508.406    505.494    505.853    505.494
 39.770    479.197    508.617    -29.419    505.326    508.255    505.326    505.688    505.326
 39.870    509.623    508.478      1.145    505.159    508.112    505.159    505.525    505.159
 39.970    488.000    508.348    -20.348    504.993    507.979    504.993    505.363    504.993
 40.070    540.344    508.227     32.118    504.830    507.854    504.830    505.203    504.830
 40.170    521.000    508.115     12.885    504.667    507.738    504.667    505.045    504.667
 40.270    548.868    508.013     40.856    504.507    507.632    504.507    504.888    504.507
 40.370    512.000    507.921      4.079    504.348    507.536    504.348    504.733    504.348
 40.470    496.000    507.842    -11.842    504.190    507.453    504.190    504.580    504.190
 40.570    523.000    507.776     15.224    504.034    507.383    504.034    504.429    504.034
 40.670    497.000    507.726    -10.726    503.880    507.328    503.880    504.279    503.880
 40.770    473.000    507.693    -34.693    503.728    507.290    503.728    504.131    503.728
 40.870    523.000    507.680     15.320    503.576    507.272    503.576    503.985    503.576
 40.970    465.000    507.692    -42.692    503.427    507.279    503.427    503.840    503.427
 41.070    500.000    507.733     -7.733    503.279    507.316    503.279    503.698    503.279
 41.170    528.437    507.811     20.626    503.133    507.388    503.133    503.557    503.133
 41.270    500.000    507.933     -7.933    502.988    507.505    502.988    503.417    502.988
 41.370    503.949    508.113     -4.164    502.845    507.679    502.845    503.280    502.845
 41.470    476.000    508.368    -32.368    502.704    507.928    502.704    503.145    502.704
 41.570    519.000    508.726     10.274    502.564    508.280    502.564    503.011    502.564
 41.670    455.000    509.240    -54.240    502.425    508.788    502.425    502.879    502.425
 41.770    524.000    510.026     13.974    502.289    509.568    502.289    502.749    502.289
 41.870    498.000    511.357    -13.357    502.154    510.894    502.154    502.620    502.154
 41.970    537.646    513.826     23.820    502.020    513.357    502.020    502.494    502.020
 42.070    527.000    518.542      8.458    501.888    518.067    501.888    502.369    501.888
 42.170    534.000    527.168      6.832    501.758    526.690    501.758    502.247    501.758
 42.270    539.000    541.478     -2.478    501.629    540.999    501.629    502.126    501.629
 42.370    561.000    562.223     -1.223    501.502    561.747    501.502    502.007    501.502
 42.470    526.000    587.559    -61.559    501.377    587.088    501.377    501.890    501.377
 42.570    563.335    611.684    -48.349    501.253    611.218    501.253    501.774    501.253
 42.670    617.000    625.375     -8.375    501.131    624.910    501.131    501.661    501.131
 42.770    638.376    621.654     16.721    501.010    621.181    501.010    501.550    501.010
 42.870    616.053    602.638     13.415    500.891    602.147    500.891    501.441    500.891
 42.970    562.774    577.058    -14.284    500.774    576.544    500.774    501.333    500.774
 43.070    587.486    552.990     34.496    500.658    552.451    500.658    501.228    500.658
 43.170    548.676    534.583     14.093    500.544    534.022    500.544    501.125    500.544
 43.270    483.879    522.495    -38.616    500.431    521.915    500.431    501.023    500.431
 43.370    480.000    515.427    -35.427    500.320    514.830    500.320    500.924    500.320
 43.470    534.000    511.572     22.428    500.211    510.960    500.211    500.827    500.211
 43.570    504.000    509.474     -5.474    500.103    508.848    500.103    500.732    500.103
 43.670    524.000    508.244     15.756    499.997    507.604    499.997    500.639    499.997
 43.770    512.000    507.435      4.565    499.892    506.781    499.892    500.549    499.892
 43.870    499.000    506.847     -7.847    499.789    506.177    499.789    500.460    499.789
 43.970    539.936    506.392     33.544    499.688    505.708    499.688    500.374    499.688
 44.070    468.260    506.031    -37.771    499.588    505.330    499.588    500.290    499.588
 44.170    463.377    505.740    -42.363    499.490    505.022    499.490    500.209    499.490
 44.270    460.792    505.504    -44.712    499.393    504.768    499.393    500.130    499.393
 44.370    487.022    505.313    -18.291    499.298    504.558    499.298    500.054    499.298
 44.470    489.477    505.158    -15.681    499.205    504.384    499.205    499.980    499.205
 44.570    539.881    505.034     34.847    499.113    504.240    499.113    499.908    499.113
 44.670    501.000    504.938     -3.938    499.023    504.121    499.023    499.840    499.023
 44.770    473.000    504.865    -31.865    498.934    504.025    498.934    499.774    498.934
 44.870    487.000    504.814    -17.814    498.847    503.950    498.847    499.711    498.847
 44.970    466.136    504.782    -38.647    498.761    503.893    498.761    499.651    498.761
 45.070    482.000    504.770    -22.770    498.677    503.854    498.677    499.594    498.677
 45.170    553.000    504.776     48.224    498.595    503.831    498.595    499.540    498.595
 45.270    524.436    504.800     19.636    498.514    503.824    498.514    499.490    498.514
 45.370    483.000    504.842    -21.842    498.435    503.833    498.435    499.443    498.435
 45.470    536.238    504.902     31.336    498.357    503.859    498.357    499.400    498.357
 45.570    447.000    504.981    -57.981    498.281    503.902    498.281    499.361    498.281
 45.670    515.711    505.081     10.630    498.207    503.962    498.207    499.325    498.207
 45.770    477.838    505.202    -27.364    498.134    504.040    498.134    499.295    498.134
 45.870    503.000    505.346     -2.346    498.062    504.140    498.062    499.269    498.062
 45.970    512.000    505.517      6.483    497.992    504.261    497.992    499.247    497.992
 46.070    509.000    505.717      3.283    497.924    504.408    497.924    499.232    497.924
 46.170    471.392    505.949    -34.557    497.857    504.584    497.857    499.221    497.857
 46.270    533.180    506.219     26.961    497.792    504.793    497.792    499.218    497.792
 46.370    489.000    506.534    -17.534    497.728    505.040    497.728    499.221    497.728
 46.470    511.000    506.901      4.099    497.666    505.335    497.666    499.231    497.666
 46.570    518.000    507.332     10.668    497.605    505.687    497.605    499.250    497.605
 46.670    501.134    507.846     -6.712    497.546    506.113    497.546    499.277    497.546
 46.770    520.476    508.474     12.002    497.488    506.646    497.488    499.315    497.488
 46.870    518.000    509.283      8.717    497.432    507.349    497.432    499.364    497.432
 46.970    498.435    510.414    -11.978    497.377    508.363    497.377    499.426    497.377
 47.070    495.000    512.156    -17.156    497.324    509.975    497.324    499.501    497.324
 47.170    483.715    515.032    -31.317    497.273    512.705    497.273    499.594    497.273
 47.270    497.000    519.831    -22.831    497.223    517.340    497.223    499.704    497.223
 47.370    532.164    527.472      4.692    497.174    524.795    497.174    499.837    497.174
 47.470    578.000    538.635     39.365    497.127    535.746    497.127    499.994    497.127
 47.570    564.418    553.095     11.323    497.081    549.963    497.081    500.181    497.081
 47.670    600.924    569.103     31.822    497.037    565.694    497.037    500.403    497.037
 47.770    543.951    583.008    -39.058    496.994    579.284    496.994    500.667    496.994
 47.870    569.000    590.007    -21.007    496.953    585.922    496.953    500.983    496.953
 47.970    573.000    587.279    -14.279    496.913    582.777    496.913    501.364    496.913
 48.070    587.065    576.753     10.312    496.875    571.755    496.875    501.831    496.875
 48.170    518.649    563.124    -44.475    496.838    557.519    496.838    502.412    496.838
 48.270    530.000    550.499    -20.499    496.803    544.131    496.803    503.151    496.803
 48.370    553.000    541.178     11.822    496.769    533.825    496.769    504.109    496.769
 48.470    539.000    535.837      3.163    496.737    527.188    496.737    505.376    496.737
 48.570    509.182    534.144    -24.962    496.706    523.773    496.706    507.071    496.706
 48.670    549.000    535.413     13.587    496.676    522.740    496.676    509.344    496.676
 48.770    526.000    539.058    -13.058    496.648    523.333    496.648    512.368    496.648
 48.870    535.000    544.777     -9.777    496.621    525.073    496.621    516.321    496.621
 48.970    581.000    552.546     28.454    496.596    527.789    496.596    521.348    496.596
 49.070    552.032    562.571    -10.539    496.572    531.625    496.572    527.513    496.572
 49.170    596.044    575.408     20.637    496.549    537.235    496.549    534.716    496.549
 49.270    591.000    592.516     -1.516    496.528    546.463    496.528    542.573    496.528
 49.370    605.000    617.709    -12.709    496.509    563.942    496.509    550.262    496.509
 49.470    711.000    659.842     51.158    496.490    599.850    496.490    556.457    496.490
 49.570    797.000    736.138     60.862    496.473    672.935    496.473    559.632    496.473
 49.670    898.000    873.057     24.943    496.458    810.608    496.458    558.830    496.458
 49.770   1154.000   1099.116     54.884    496.444   1041.128    496.444    554.315    496.444
 49.870   1449.246   1426.343     22.903    496.431   1375.254    496.431    547.369    496.431
 49.970   1855.900   1826.237     29.662    496.420   1783.003    496.420    539.494    496.420
 50.070   2232.000   2215.701     16.299    496.410   2180.168    496.410    531.823    496.410
 50.170   2519.000   2471.608     47.392    496.401   2442.994    496.401    524.990    496.401
 50.270   2541.659   2489.420     52.239    496.393   2466.651    496.393    519.257    496.393
 50.370   2226.000   2259.111    -33.111    496.387   2241.032    496.387    514.649    496.387
 50.470   1772.000   1874.850   -102.850    496.383   1860.379    496.383    511.065    496.383
 50.570   1444.000   1463.678    -19.678    496.379   1451.906    496.379    508.342    496.379
 50.670   1060.030   1118.917    -58.886    496.377   1109.137    496.377    506.303    496.377
 50.770    822.000    878.895    -56.895    496.376    870.591    496.376    504.781    496.376
 50.870    772.000    736.937     35.063    496.377    729.744    496.377    503.638    496.377
 50.970    664.906    664.070      0.836    496.379    657.731    496.379    502.767    496.379
 51.070    611.000    629.209    -18.209    496.382    623.541    496.382    502.089    496.382
 51.170    633.958    609.897     24.061    496.386    604.766    496.386    501.551    496.386
 51.270    572.800    594.672    -21.872    496.392    589.977    496.392    501.116    496.392
 51.370    621.388    580.216     41.172    496.399    575.881    496.399    500.758    496.399
 51.470    588.000    566.886     21.114    496.407    562.851    496.407    500.460    496.407
 51.570    615.000    555.682     59.318    496.417    551.901    496.417    500.211    496.417
 51.670    559.000    547.165     11.835    496.427    543.600    496.427    500.001    496.427
 51.770    588.534    541.320     47.213    496.439    537.941    496.439    499.825    496.439
 51.870    574.000    537.753     36.247    496.453    534.533    496.453    499.677    496.453
 51.970    553.265    535.941     17.323    496.467    532.858    496.467    499.554    496.467
 52.070    565.000    535.445     29.555    496.483    532.479    496.483    499.451    496.483
 52.170    591.000    536.007     54.993    496.500    533.141    496.500    499.368    496.500
 52.270    556.000    537.600     18.400    496.518    534.819    496.518    499.300    496.518
 52.370    589.000    540.497     48.503    496.537    537.789    496.537    499.247    496.537
 52.470    545.000    545.452     -0.452    496.557    542.803    496.557    499.207    496.557
 52.570    569.978    554.034     15.944    496.579    551.435    496.579    499.180    496.579
 52.670    590.000    569.080     20.920    496.602    566.520    496.602    499.163    496.602
 52.770    637.000    595.018     41.982    496.626    592.488    496.626    499.156    496.626
 52.870    702.000    637.599     64.401    496.651    635.092    496.651    499.158    496.651
 52.970    765.000    702.520     62.480    496.677    700.027    496.677    499.169    496.677
 53.070    852.000    792.727     59.273    496.705    790.243    496.705    499.189    496.705
 53.170    907.144    904.928      2.216    496.734    902.448    496.734    499.216    496.734
 53.270   1057.170   1026.334     30.836    496.763   1023.854    496.763    499.251    496.763
 53.370   1085.484   1133.099    -47.615    496.794   1130.617    496.794    499.293    496.794
 53.470   1152.229   1194.484    -42.255    496.826   1191.997    496.826    499.342    496.826
 53.570   1157.000   1188.087    -31.087    496.859   1185.588    496.859    499.399    496.859
 53.670   1116.000   1116.720     -0.720    496.893   1114.197    496.893    499.462    496.893
 53.770    946.437   1005.826    -59.389    496.929   1003.266    496.929    499.533    496.929
 53.870    841.942    885.449    -43.506    496.965    882.841    496.965    499.611    496.965
 53.970    747.301    777.397    -30.097    497.002    774.734    497.002    499.695    497.002
 54.070    653.000    692.523    -39.523    497.041    689.798    497.041    499.788    497.041
 54.170    619.000    632.719    -13.719    497.080    629.927    497.080    499.887    497.080
 54.270    554.832    594.305    -39.472    497.121    591.440    497.121    499.995    497.121
 54.370    612.901    571.433     41.468    497.163    568.490    497.163    500.111    497.163
 54.470    600.000    558.546     41.454    497.205    555.521    497.205    500.235    497.205
 54.570    547.887    551.521     -3.634    497.249    548.405    497.249    500.368    497.249
 54.670    533.320    547.779    -14.459    497.294    544.564    497.294    500.511    497.294
 54.770    600.000    545.912     54.088    497.339    542.590    497.339    500.663    497.339
 54.870    577.000    545.230     31.770    497.386    541.791    497.386    500.827    497.386
 54.970    526.000    545.423    -19.423    497.434    541.856    497.434    501.002    497.434
 55.070    538.432    546.369     -7.937    497.482    542.664    497.482    501.189    497.482
 55.170    545.000    548.044     -3.044    497.532    544.187    497.532    501.390    497.532
 55.270    565.000    550.482     14.518    497.583    546.460    497.583    501.606    497.583
 55.370    567.000    553.778     13.222    497.634    549.576    497.634    501.838    497.634
 55.470    515.850    558.114    -42.264    497.687    553.715    497.687    502.087    497.687
 55.570    594.000    563.852     30.148    497.740    559.238    497.740    502.355    497.740
 55.670    565.000    571.746     -6.746    497.794    566.896    497.794    502.645    497.794
 55.770    588.000    583.411      4.589    497.850    578.303    497.850    502.958    497.850
 55.870    603.000    602.168      0.832    497.906    596.774    497.906    503.298    497.906
 55.970    620.000    634.299    -14.299    497.963    628.590    497.963    503.668    497.963
 56.070    677.000    690.382    -13.382    498.021    684.322    498.021    504.071    498.021
 56.170    800.664    785.730     14.934    498.080    779.279    498.080    504.511    498.080
 56.270    957.566    938.427     19.139    498.140    931.542    498.140    504.994    498.140
 56.370   1141.000   1163.674    -22.674    498.200   1156.308    498.200    505.525    498.200
 56.470   1420.000   1464.691    -44.691    498.262   1456.794    498.262    506.112    498.262
 56.570   1774.666   1822.756    -48.090    498.324   1814.279    498.324    506.763    498.324
 56.670   2180.000   2190.267    -10.267    498.387   2181.160    498.387    507.489    498.387
 56.770   2465.000   2491.435    -26.435    498.451   2481.638    498.451    508.302    498.451
 56.870   2592.000   2640.663    -48.663    498.516   2630.096    498.516    509.219    498.516
 56.970   2616.000   2586.927     29.073    498.581   2575.465    498.581    510.259    498.581
 57.070   2341.000   2351.008    -10.008    498.648   2338.467    498.648    511.452    498.648
 57.170   2024.000   2008.379     15.621    498.715   1994.526    498.715    512.837    498.715
 57.270   1639.067   1642.543     -3.476    498.783   1627.094    498.783    514.471    498.783
 57.370   1285.000   1315.104    -30.104    498.852   1297.711    498.852    516.435    498.852
 57.470   1110.736   1058.088     52.648    498.921   1038.296    498.921    518.851    498.921
 57.570    858.000    877.878    -19.878    498.991    855.072    498.991    521.889    498.991
 57.670    787.000    764.339     22.661    499.062    737.671    499.062    525.786    499.062
 57.770    649.542    700.884    -51.342    499.134    669.193    499.134    530.856    499.134
 57.870    705.000    672.094     32.906    499.207    633.824    499.207    537.490    499.207
 57.970    702.000    667.518     34.482    499.280    620.656    499.280    546.143    499.280
 58.070    647.000    682.239    -35.239    499.354    624.284    499.354    557.301    499.354
 58.170    682.057    715.530    -33.472    499.428    643.527    499.428    571.411    499.428
 58.270    757.624    768.712    -11.088    499.503    679.379    499.503    588.805    499.503
 58.370    840.000    842.879     -2.879    499.579    732.841    499.579    609.575    499.579
 58.470    927.000    936.843     -9.843    499.656    803.032    499.656    633.418    499.656
 58.570    994.000   1045.575    -51.575    499.733    885.848    499.733    659.408    499.733
 58.670   1101.000   1159.611    -58.611    499.811    973.678    499.811    685.697    499.811
 58.770   1343.000   1266.428     76.572    499.890   1057.019    499.890    709.263    499.890
 58.870   1369.000   1353.428     15.572    499.969   1127.255    499.969    726.123    499.969
 58.970   1360.000   1409.888    -49.888    500.048   1177.404    500.048    732.535    500.048
 59.070   1495.000   1427.540     67.460    500.129   1200.821    500.129    726.870    500.129
 59.170   1484.000   1403.857     80.143    500.210   1193.481    500.210    710.621    500.210
 59.270   1404.000   1346.396     57.604    500.291   1159.253    500.291    687.472    500.291
 59.370   1320.856   1271.490     49.367    500.373   1110.469    500.373    661.420    500.373
 59.470   1244.000   1197.700     46.300    500.456   1062.615    500.456    635.542    500.456
 59.570   1227.000   1141.562     85.438    500.539   1030.325    500.539    611.741    500.539
 59.670   1174.000   1117.318     56.682    500.623   1026.880    500.623    590.982    500.623
 59.770   1082.708   1135.622    -52.914    500.707   1062.606    500.707    573.594    500.707
 59.870   1285.000   1199.061     85.939    500.792   1140.168    500.792    559.501    500.792
 59.970   1292.000   1297.957     -5.957    500.877   1250.217    500.877    548.384    500.877
 60.070   1384.360   1409.356    -24.996    500.963   1370.253    500.963    539.797    500.963
 60.170   1511.000   1499.868     11.132    501.050   1467.381    501.050    533.257    501.050
 60.270   1606.579   1534.602     71.978    501.137   1507.174    501.137    528.307    501.137
 60.370   1553.664   1493.443     60.221    501.224   1469.905    501.224    524.555    501.224
 60.470   1423.208   1383.066     40.143    501.312   1362.546    501.312    521.686    501.312
 60.570   1225.000   1230.653     -5.653    501.400   1212.502    501.400    519.462    501.400
 60.670   1115.905   1067.902     48.003    501.488   1051.631    501.488    517.713    501.488
 60.770    885.256    919.901    -34.645    501.578    905.138    501.578    516.321    501.578
 60.870    746.093    801.206    -55.113    501.667    787.658    501.667    515.208    501.667
 60.970    679.000    716.403    -37.403    501.757    703.837    501.757    514.320    501.757
 61.070    658.000    663.270     -5.270    501.847    651.490    501.847    513.622    501.847
 61.170    614.000    636.894    -22.894    501.938    625.733    501.938    513.088    501.938
 61.270    601.927    633.228    -31.301    502.029    622.542    502.029    512.695    502.029
 61.370    674.000    651.090     22.910    502.121    640.755    502.121    512.424    502.121
 61.470    704.615    692.342     12.273    502.212    682.258    502.212    512.247    502.212
 61.570    767.000    760.390      6.610    502.305    750.489    502.305    512.134    502.305
 61.670    844.000    857.412    -13.412    502.397    847.669    502.397    512.041    502.397
 61.770   1039.340    981.031     58.308    502.490    971.474    502.490    511.918    502.490
 61.870   1145.388   1121.476     23.912    502.583   1112.186    502.583    511.719    502.583
 61.970   1276.735   1260.226     16.509    502.677   1251.316    502.677    511.418    502.677
 62.070   1321.000   1371.286    -50.286    502.771   1362.869    502.771    511.021    502.771
 62.170   1363.000   1427.344    -64.344    502.865   1419.507    502.865    510.560    502.865
 62.270   1371.000   1411.933    -40.933    502.959   1404.714    502.959    510.075    502.959
 62.370   1288.000   1329.495    -41.495    503.054   1322.886    503.054    509.602    503.054
 62.470   1261.039   1202.251     58.788    503.148   1196.211    503.148    509.164    503.148
 62.570    945.000   1057.923   -112.923    503.244   1052.392    503.244    508.774    503.244
 62.670    884.000    919.844    -35.844    503.339    914.757    503.339    508.438    503.339
 62.770    783.000    802.923    -19.923    503.434    798.218    503.434    508.155    503.434
 62.870    677.923    713.405    -35.483    503.530    709.026    503.530    507.923    503.530
 62.970    608.942    650.700    -41.758    503.626    646.598    503.626    507.737    503.626
 63.070    605.544    610.181     -4.637    503.722    606.317    503.722    507.590    503.722
 63.170    605.000    585.904     19.096    503.819    582.246    503.819    507.478    503.819
 63.270    570.000    572.527     -2.527    503.915    569.048    503.915    507.392    503.915
 63.370    568.000    566.232      1.768    504.012    562.909    504.012    507.330    504.012
 63.470    593.010    564.918     28.092    504.109    561.734    504.109    507.286    504.109
 63.570    559.000    568.030     -9.030    504.206    564.968    504.206    507.258    504.206
 63.670    603.422    576.283     27.139    504.303    573.330    504.303    507.242    504.303
 63.770    609.000    591.357     17.643    504.400    588.500    504.400    507.237    504.400
 63.870    593.000    615.493    -22.493    504.498    612.720    504.498    507.241    504.498
 63.970    641.496    650.875     -9.379    504.595    648.174    504.595    507.252    504.595
 64.070    675.741    698.768    -23.027    504.693    696.130    504.693    507.271    504.693
 64.170    746.000    758.523    -12.523    504.790    755.938    504.790    507.296    504.790
 64.270    875.000    826.654     48.346    504.888    824.118    504.888    507.326    504.888
 64.370    920.000    896.260     23.740    504.986    893.770    504.986    507.362    504.986
 64.470    947.000    957.260    -10.260    505.084    954.819    505.084    507.402    505.084
 64.570   1063.000    998.510     64.490    505.181    996.124    505.181    507.447    505.181
 64.670   1007.000   1012.101     -5.101    505.279   1009.779    505.279    507.496    505.279
 64.770    978.000    996.859    -18.859    505.377    994.604    505.377    507.549    505.377
 64.870    947.000    957.904    -10.904    505.475    955.717    505.475    507.605    505.475
 64.970    884.984    903.890    -18.906    505.573    901.767    505.573    507.664    505.573
 65.070    881.000    844.191     36.809    505.671    842.126    505.671    507.727    505.671
 65.170    833.000    786.473     46.527    505.769    784.458    505.769    507.792    505.769
 65.270    715.181    735.322    -20.141    505.866    733.347    505.866    507.860    505.866
 65.370    695.391    692.390      3.001    505.964    690.447    505.964    507.931    505.964
 65.470    677.780    657.549     20.231    506.062    655.632    506.062    508.005    506.062
 65.570    639.000    629.996      9.004    506.160    628.098    506.160    508.080    506.160
 65.670    607.000    608.744     -1.744    506.257    606.860    506.257    508.159    506.257
 65.770    585.000    592.752     -7.752    506.355    590.881    506.355    508.239    506.355
 65.870    626.376    581.036     45.340    506.452    579.175    506.452    508.321    506.452
 65.970    588.000    572.762     15.238    506.549    570.910    506.549    508.406    506.549
 66.070    509.000    567.269    -58.269    506.646    565.426    506.646    508.492    506.646
 66.170    553.000    564.049    -11.049    506.743    562.212    506.743    508.581    506.743
 66.270    505.000    562.713    -57.713    506.840    560.883    506.840    508.671    506.840
 66.370    588.000    562.989     25.011    506.937    561.163    506.937    508.764    506.937
 66.470    546.000    564.748    -18.748    507.033    562.924    507.033    508.858    507.033
 66.570    529.000    568.081    -39.081    507.130    566.258    507.130    508.954    507.130
 66.670    553.221    573.426    -20.204    507.226    571.601    507.226    509.052    507.226
 66.770    537.000    581.787    -44.787    507.322    579.958    507.322    509.152    507.322
 66.870    614.000    595.077     18.923    507.418    593.242    507.418    509.254    507.418
 66.970    632.000    616.553     15.447    507.513    614.708    507.513    509.358    507.513
 67.070    636.000    651.243    -15.243    507.609    649.385    507.609    509.464    507.609
 67.170    697.000    706.137     -9.137    507.704    704.262    507.704    509.572    507.704
 67.270    784.000    789.779     -5.779    507.799    787.886    507.799    509.683    507.799
 67.370    928.000    910.936     17.064    507.893    909.023    507.893    509.795    507.893
 67.470   1155.000   1076.181     78.819    507.988   1074.250    507.988    509.910    507.988
 67.570   1283.000   1286.687     -3.687    508.082   1284.743    508.082    510.027    508.082
 67.670   1560.000   1534.945     25.055    508.175   1532.995    508.175    510.146    508.175
 67.770   1815.000   1802.351     12.649    508.269   1800.408    508.269    510.268    508.269
 67.870   2083.330   2058.529     24.801    508.362   2056.605    508.362    510.393    508.362
 67.970   2200.000   2263.730    -63.730    508.455   2261.834    508.455    510.521    508.455
 68.070   2416.930   2377.121     39.809    508.548   2375.256    508.548    510.652    508.548
 68.170   2395.000   2372.078     22.922    508.640   2370.230    508.640    510.787    508.640
 68.270   2163.275   2249.952    -86.678    508.732   2248.094    508.732    510.925    508.732
 68.370   2022.355   2039.249    -16.894    508.823   2037.344    508.823    511.067    508.823
 68.470   1771.916   1781.159     -9.243    508.914   1779.175    508.914    511.213    508.914
 68.570   1488.000   1514.812    -26.812    509.005   1512.726    509.005    511.364    509.005
 68.670   1321.451   1269.619     51.832    509.095   1267.416    509.095    511.519    509.095
 68.770   1018.000   1063.191    -45.191    509.185   1060.865    509.185    511.680    509.185
 68.870    908.191    902.197      5.994    509.275    899.747    509.275    511.847    509.275
 68.970    747.000    784.881    -37.881    509.364    782.309    509.364    512.021    509.364
 69.070    713.000    704.375      8.625    509.453    701.684    509.453    512.201    509.453
 69.170    618.409    651.858    -33.449    509.541    649.047    509.541    512.389    509.541
 69.270    630.000    618.878     11.122    509.629    615.945    509.629    512.586    509.629
 69.370    607.998    598.593      9.404    509.716    595.533    509.716    512.793    509.716
 69.470    587.005    586.115      0.891    509.803    582.919    509.803    513.010    509.803
 69.570    584.467    578.276      6.191    509.890    574.934    509.890    513.239    509.890
 69.670    614.343    573.190     41.153    509.976    569.690    509.976    513.482    509.976
 69.770    586.000    569.809     16.191    510.061    566.135    510.061    513.739    510.061
 69.870    554.000    567.580    -13.580    510.146    563.716    510.146    514.013    510.146
 69.970    528.977    566.225    -37.247    510.230    562.151    510.230    514.307    510.230
 70.070    611.000    565.616     45.384    510.314    561.311    510.314    514.621    510.314
 70.170    587.000    565.718     21.282    510.398    561.155    510.398    514.961    510.398
 70.270    562.000    566.568     -4.568    510.481    561.719    510.481    515.329    510.481
 70.370    527.747    568.303    -40.555    510.563    563.135    510.563    515.729    510.563
 70.470    599.000    571.214     27.786    510.645    565.688    510.645    516.167    510.645
 70.570    570.000    575.858     -5.858    510.726    569.927    510.726    516.651    510.726
 70.670    561.000    583.214    -22.214    510.806    576.824    510.806    517.188    510.806
 70.770    598.000    594.908      3.092    510.886    587.989    510.886    517.793    510.886
 70.870    582.000    613.433    -31.433    510.966    605.897    510.966    518.482    510.966
 70.970    639.000    642.320     -3.320    511.044    634.055    511.044    519.282    511.044
 71.070    709.000    686.098     22.902    511.122    676.949    511.122    520.230    511.122
 71.170    763.957    749.887     14.070    511.200    739.645    511.200    521.382    511.200
 71.270    829.000    838.519     -9.519    511.277    826.894    511.277    522.818    511.277
 71.370    956.000    955.171      0.829    511.353    941.765    511.353    524.649    511.353
 71.470   1101.753   1099.718      2.035    511.429   1083.984    511.429    527.024    511.429
 71.570   1286.000   1267.165     18.835    511.503   1248.367    511.503    530.136    511.503
 71.670   1509.398   1446.551     62.847    511.578   1423.723    511.578    534.220    511.578
 71.770   1630.538   1620.693      9.845    511.651   1592.609    511.651    539.541    511.651
 71.870   1762.742   1767.316     -4.574    511.724   1732.476    511.724    546.374    511.724
 71.970   1874.000   1862.819     11.181    511.796   1819.475    511.796    554.972    511.796
 72.070   1893.000   1889.569      3.431    511.868   1835.786    511.868    565.515    511.868
 72.170   1878.000   1843.881     34.119    511.938   1777.663    511.938    578.058    511.938
 72.270   1651.000   1738.027    -87.027    512.008   1657.507    512.008    592.466    512.008
 72.370   1557.705   1594.029    -36.323    512.077   1497.725    512.077    608.345    512.077
 72.470   1440.000   1435.046      4.954    512.146   1322.209    512.146    624.966    512.146
 72.570   1209.000   1279.863    -70.863    512.214   1150.885    512.214    641.186    512.214
 72.670   1149.266   1140.794      8.472    512.281    997.652    512.281    655.421    512.281
 72.770    925.000   1023.625    -98.625    512.347    870.166    512.347    665.804    512.347
 72.870    858.000    928.851    -70.851    512.412    770.628    512.412    670.633    512.412
 72.970    812.000    853.738    -41.738    512.477    697.198    512.477    669.013    512.477
 73.070    750.130    794.410    -44.280    512.541    645.667    512.541    661.278    512.541
 73.170    736.000    747.204    -11.204    512.604    610.984    512.604    648.818    512.604
 73.270    702.735    709.189     -6.455    512.666    588.363    512.666    633.486    512.666
 73.370    642.000    678.203    -36.203    512.727    573.895    512.727    617.031    512.727
 73.470    616.142    652.748    -36.606    512.787    564.724    512.787    600.809    512.787
 73.570    618.000    631.860    -13.860    512.847    558.961    512.847    585.745    512.847
 73.670    582.046    614.939    -32.892    512.906    555.459    512.906    572.387    512.906
 73.770    654.000    601.593     52.407    512.964    553.574    512.964    560.988    512.964
 73.870    567.000    591.503    -24.503    513.021    552.954    513.021    551.579    513.021
 73.970    579.000    584.328     -5.328    513.077    553.385    513.077    544.033    513.077
 74.070    563.000    579.655    -16.655    513.132    554.679    513.132    538.127    513.132
 74.170    593.000    576.986     16.014    513.187    556.605    513.187    533.593    513.187
 74.270    536.960    575.735    -38.775    513.240    558.849    513.240    530.157    513.240
 74.370    620.000    575.248     44.752    513.293    561.010    513.293    527.567    513.293
 74.470    562.814    574.848    -12.034    513.345    562.623    513.345    525.611    513.345
 74.570    525.690    573.923    -48.232    513.395    563.244    513.395    524.118    513.395
 74.670    543.592    572.067    -28.475    513.445    562.598    513.445    522.958    513.445
 74.770    627.000    569.201     57.799    513.494    560.699    513.494    522.038    513.494
 74.870    543.347    565.563    -22.216    513.542    557.852    513.542    521.291    513.542
 74.970    591.000    561.590     29.410    513.589    554.540    513.589    520.671    513.589
 75.070    536.986    557.782    -20.796    513.635    551.296    513.635    520.147    513.635
 75.170    571.000    554.635     16.365    513.680    548.637    513.680    519.698    513.680
 75.270    567.000    552.629     14.371    513.724    547.059    513.724    519.307    513.724
 75.370    552.146    552.240     -0.093    513.767    547.049    513.767    518.966    513.767
 75.470    562.876    553.957      8.919    513.809    549.103    513.809    518.665    513.809
 75.570    609.000    558.280     50.720    513.850    553.728    513.850    518.399    513.850
 75.670    588.217    565.688     22.529    513.890    561.406    513.890    518.162    513.890
 75.770    605.000    576.556     28.444    513.929    572.517    513.929    517.951    513.929
 75.870    608.000    591.032     16.968    513.967    587.212    513.967    517.763    513.967
 75.970    633.000    608.895     24.105    514.004    605.272    514.004    517.594    514.004
 76.070    675.668    629.414     46.254    514.040    625.971    514.040    517.443    514.040
 76.170    640.642    651.269    -10.627    514.075    647.989    514.075    517.306    514.075
 76.270    677.000    672.519      4.481    514.109    669.389    514.109    517.183    514.109
 76.370    672.766    690.700    -17.935    514.141    687.710    514.141    517.072    514.141
 76.470    694.145    703.130     -8.985    514.173    700.271    514.173    516.971    514.173
 76.570    706.000    707.569     -1.569    514.204    704.834    514.204    516.879    514.204
 76.670    726.655    703.084     23.571    514.233    700.468    514.233    516.796    514.233
 76.770    716.018    690.494     25.524    514.262    687.990    514.262    516.720    514.262
 76.870    653.000    671.968    -18.968    514.289    669.569    514.289    516.650    514.289
 76.970    692.661    650.163     42.498    514.315    647.863    514.315    516.587    514.315
 77.070    632.000    627.547      4.453    514.340    625.338    514.340    516.528    514.340
 77.170    568.345    606.064    -37.719    514.364    603.939    514.364    516.474    514.364
 77.270    615.046    587.031     28.015    514.387    584.982    514.387    516.425    514.387
 77.370    539.000    571.146    -32.146    514.409    569.169    514.409    516.379    514.409
 77.470    518.000    558.580    -40.580    514.429    556.668    514.429    516.337    514.429
 77.570    508.000    549.106    -41.106    514.449    547.255    514.449    516.297    514.449
 77.670    564.787    542.261     22.526    514.467    540.466    514.467    516.260    514.467
 77.770    534.626    537.490     -2.864    514.484    535.747    514.484    516.226    514.484
 77.870    504.000    534.253    -30.253    514.500    532.560    514.500    516.192    514.500
 77.970    510.894    532.092    -21.198    514.515    530.444    514.515    516.162    514.515
 78.070    503.000    530.651    -27.651    514.529    529.046    514.529    516.133    514.529
 78.170    497.884    529.664    -31.780    514.541    528.098    514.541    516.105    514.541
 78.270    509.000    528.975    -19.975    514.552    527.447    514.552    516.080    514.552
 78.370    540.000    528.515     11.485    514.562    527.021    514.562    516.055    514.562
 78.470    568.830    528.204     40.626    514.571    526.743    514.571    516.032    514.571
 78.570    551.000    528.013     22.987    514.579    526.582    514.579    516.009    514.579
 78.670    536.000    527.934      8.066    514.585    526.531    514.585    515.988    514.585
 78.770    544.000    527.973     16.027    514.591    526.595    514.591    515.968    514.591
 78.870    527.000    528.146     -1.146    514.595    526.790    514.595    515.950    514.595
 78.970    502.000    528.473    -26.473    514.597    527.136    514.597    515.932    514.597
 79.070    498.000    528.979    -30.979    514.599    527.660    514.599    515.917    514.599
 79.170    566.090    529.693     36.397    514.599    528.387    514.599    515.904    514.599
 79.270    553.004    530.640     22.364    514.598    529.344    514.598    515.892    514.598
 79.370    510.717    531.849    -21.132    514.596    530.559    514.596    515.884    514.596
 79.470    533.590    533.350      0.239    514.593    532.061    514.593    515.878    514.593
 79.570    547.000    535.188     11.812    514.588    533.895    514.588    515.876    514.588
 79.670    532.000    537.426     -5.426    514.582    536.126    514.582    515.878    514.582
 79.770    514.000    540.172    -26.172    514.575    538.858    514.575    515.883    514.575
 79.870    526.015    543.582    -17.567    514.566    542.252    514.566    515.892    514.566
 79.970    546.000    547.902     -1.902    514.556    546.549    514.556    515.904    514.556
 80.070    538.000    553.463    -15.463    514.545    552.086    514.545    515.919    514.545
 80.170    523.000    560.689    -37.689    514.533    559.285    514.533    515.935    514.533
 80.270    521.000    570.043    -49.043    514.519    568.613    514.519    515.950    514.519
 80.370    571.000    581.933    -10.933    514.504    580.478    514.504    515.962    514.504
 80.470    627.723    596.601     31.122    514.488    595.127    514.488    515.968    514.488
 80.570    636.000    614.019     21.981    514.471    612.536    514.471    515.964    514.471
 80.670    665.856    633.816     32.040    514.452    632.335    514.452    515.948    514.452
 80.770    591.000    655.239    -64.239    514.431    653.774    514.431    515.918    514.431
 80.870    680.000    677.181      2.819    514.410    675.746    514.410    515.873    514.410
 80.970    708.000    698.302      9.698    514.387    696.909    514.387    515.815    514.387
 81.070    703.203    717.216    -14.013    514.363    715.873    514.363    515.748    514.363
 81.170    730.000    732.672     -2.672    514.337    731.384    514.337    515.674    514.337
 81.270    745.457    743.669      1.788    514.311    742.438    514.311    515.597    514.311
 81.370    719.000    749.537    -30.537    514.282    748.362    514.282    515.519    514.282
 81.470    750.000    750.004     -0.004    514.253    748.881    514.253    515.442    514.253
 81.570    735.000    745.205    -10.205    514.222    744.129    514.222    515.366    514.222
 81.670    716.000    735.637    -19.637    514.190    734.604    514.190    515.294    514.190
 81.770    727.000    722.135      4.865    514.156    721.138    514.156    515.224    514.156
 81.870    726.000    705.831     20.169    514.121    704.865    514.121    515.158    514.121
 81.970    732.000    688.004     43.996    514.085    687.062    514.085    515.094    514.085
 82.070    719.168    669.817     49.350    514.047    668.895    514.047    515.033    514.047
 82.170    652.834    652.116      0.718    514.008    651.210    514.008    514.975    514.008
 82.270    664.000    635.380     28.620    513.968    634.486    513.968    514.918    513.968
 82.370    630.000    619.824     10.176    513.926    618.939    513.926    514.862    513.926
 82.470    640.030    605.555     34.476    513.883    604.676    513.883    514.807    513.883
 82.570    574.000    592.696    -18.696    513.839    591.821    513.839    514.753    513.839
 82.670    605.000    581.408     23.592    513.793    580.534    513.793    514.699    513.793
 82.770    597.000    571.862     25.138    513.745    570.988    513.745    514.645    513.745
 82.870    526.000    564.204    -38.204    513.697    563.329    513.697    514.590    513.697
 82.970    508.000    558.542    -50.542    513.647    557.665    513.647    514.535    513.647
 83.070    533.000    554.927    -21.927    513.595    554.047    513.595    514.480    513.595
 83.170    536.964    553.343    -16.379    513.542    552.459    513.542    514.423    513.542
 83.270    525.693    553.680    -27.987    513.488    552.792    513.488    514.366    513.488
 83.370    558.000    555.725      2.275    513.432    554.831    513.432    514.308    513.432
 83.470    570.644    559.145     11.500    513.375    558.247    513.375    514.249    513.375
 83.570    542.000    563.495    -21.495    513.317    562.592    513.317    514.189    513.317
 83.670    582.000    568.226     13.774    513.257    567.319    513.257    514.127    513.257
 83.770    555.000    572.717    -17.717    513.196    571.806    513.196    514.065    513.196
 83.870    614.765    576.319     38.446    513.133    575.406    513.133    514.002    513.133
 83.970    542.697    578.444    -35.747    513.069    577.530    513.069    513.938    513.069
 84.070    564.000    578.679    -14.679    513.003    577.765    513.003    513.873    513.003
 84.170    570.491    576.897     -6.406    512.936    575.985    512.936    513.806    512.936
 84.270    573.000    573.286     -0.286    512.868    572.378    512.868    513.739    512.868
 84.370    536.000    568.273    -32.273    512.798    567.367    512.798    513.670    512.798
 84.470    535.000    562.389    -27.389    512.727    561.488    512.727    513.601    512.727
 84.570    530.000    556.166    -26.166    512.655    555.267    512.655    513.530    512.655
 84.670    543.000    550.061     -7.061    512.581    549.165    512.581    513.458    512.581
 84.770    527.000    544.426    -17.426    512.505    543.531    512.505    513.385    512.505
 84.870    539.000    539.494     -0.494    512.428    538.599    512.428    513.311    512.428
 84.970    564.557    535.384     29.173    512.350    534.489    512.350    513.236    512.350
 85.070    488.613    532.119    -43.506    512.270    531.223    512.270    513.160    512.270
 85.170    530.000    529.649      0.351    512.189    528.751    512.189    513.082    512.189
 85.270    539.803    527.883     11.920    512.107    526.981    512.107    513.004    512.107
 85.370    511.000    526.712    -15.712    512.023    525.806    512.023    512.924    512.023
 85.470    564.000    526.037     37.963    511.937    525.126    511.937    512.843    511.937
 85.570    571.000    525.780     45.220    511.851    524.864    511.851    512.762    511.851
 85.670    567.000    525.898     41.102    511.762    524.976    511.762    512.679    511.762
 85.770    495.000    526.387    -31.387    511.673    525.458    511.673    512.595    511.673
 85.870    519.333    527.284     -7.951    511.582    526.348    511.582    512.510    511.582
 85.970    572.758    528.671     44.087    511.489    527.727    511.489    512.424    511.489
 86.070    520.000    530.668    -10.668    511.395    529.713    511.395    512.337    511.395
 86.170    513.264    533.423    -20.158    511.300    532.457    511.300    512.249    511.300
 86.270    486.000    537.104    -51.104    511.203    536.126    511.203    512.160    511.203
 86.370    516.860    541.878    -25.018    511.105    540.886    511.105    512.070    511.105
 86.470    555.000    547.883      7.117    511.005    546.875    511.005    511.978    511.005
 86.570    568.817    555.197     13.621    510.904    554.171    510.904    511.886    510.904
 86.670    540.319    563.799    -23.480    510.802    562.755    510.802    511.793    510.802
 86.770    592.309    573.541     18.767    510.698    572.476    510.698    511.699    510.698
 86.870    585.000    584.115      0.885    510.593    583.028    510.593    511.604    510.593
 86.970    559.338    595.045    -35.707    510.486    593.935    510.486    511.508    510.486
 87.070    623.336    605.686     17.651    510.378    604.555    510.378    511.412    510.378
 87.170    632.000    615.254     16.746    510.268    614.102    510.268    511.314    510.268
 87.270    669.024    622.897     46.128    510.157    621.727    510.157    511.216    510.157
 87.370    649.028    627.825     21.203    510.045    626.641    510.045    511.117    510.045
 87.470    653.000    629.497     23.503    509.931    628.302    509.931    511.017    509.931
 87.570    655.000    627.779     27.221    509.816    626.576    509.816    510.916    509.816
 87.670    662.000    622.986     39.014    509.700    621.777    509.700    510.815    509.700
 87.770    593.000    615.785    -22.785    509.582    614.572    509.582    510.713    509.582
 87.870    611.000    607.035      3.965    509.462    605.818    509.462    510.610    509.462
 87.970    620.656    597.644     23.012    509.341    596.423    509.341    510.507    509.341
 88.070    609.000    588.468     20.532    509.219    587.241    509.219    510.403    509.219
 88.170    576.000    580.252     -4.252    509.096    579.016    509.096    510.299    509.096
 88.270    576.000    573.585      2.415    508.971    572.340    508.971    510.195    508.971
 88.370    575.000    568.880      6.120    508.844    567.623    508.844    510.090    508.844
 88.470    571.000    566.360      4.640    508.717    565.089    508.717    509.985    508.717
 88.570    557.000    566.062     -9.062    508.588    564.776    508.588    509.880    508.588
 88.670    563.000    567.834     -4.834    508.457    566.530    508.457    509.775    508.457
 88.770    589.000    571.391     17.609    508.325    570.069    508.325    509.670    508.325
 88.870    600.000    576.298     23.702    508.192    574.954    508.192    509.565    508.192
 88.970    585.698    581.985      3.713    508.057    580.620    508.057    509.460    508.057
 89.070    604.000    587.806     16.194    507.921    586.416    507.921    509.356    507.921
 89.170    562.000    593.062    -31.062    507.784    591.645    507.784    509.252    507.784
 89.270    612.163    597.066     15.097    507.645    595.619    507.645    509.149    507.645
 89.370    569.867    599.230    -29.363    507.505    597.750    507.505    509.046    507.505
 89.470    616.000    599.177     16.823    507.364    597.659    507.364    508.945    507.364
 89.570    599.000    596.822      2.178    507.221    595.262    507.221    508.845    507.221
 89.670    566.403    592.384    -25.981    507.077    590.776    507.077    508.747    507.077
 89.770    556.000    586.307    -30.307    506.932    584.646    506.932    508.651    506.932
 89.870    518.000    579.144    -61.144    506.785    577.425    506.785    508.557    506.785
 89.970    525.000    571.455    -46.455    506.637    569.673    506.637    508.465    506.637
 90.070    575.920    563.741     12.178    506.487    561.892    506.487    508.376    506.487
 90.170    542.000    556.414    -14.414    506.337    554.492    506.337    508.292    506.337
 90.270    510.963    549.772    -38.809    506.185    547.772    506.185    508.211    506.185
 90.370    523.000    544.007    -21.007    506.031    541.923    506.031    508.136    506.031
 90.470    533.000    539.208     -6.208    505.877    537.033    505.877    508.068    505.877
 90.570    507.698    535.378    -27.680    505.721    533.103    505.721    508.007    505.721
 90.670    501.000    532.461    -31.461    505.563    530.076    505.563    507.957    505.563
 90.770    550.506    530.363     20.143    505.405    527.854    505.405    507.920    505.405
 90.870    535.629    528.975      6.653    505.245    526.325    505.245    507.898    505.245
 90.970    489.388    528.197    -38.810    505.084    525.386    505.084    507.897    505.084
 91.070    513.000    527.948    -14.948    504.921    524.949    504.921    507.921    504.921
 91.170    523.678    528.181     -4.502    504.758    524.961    504.758    507.977    504.758
 91.270    526.000    528.885     -2.885    504.593    525.404    504.593    508.073    504.593
 91.370    543.000    530.095     12.905    504.427    526.302    504.427    508.217    504.427
 91.470    565.000    531.888     33.112    504.259    527.722    504.259    508.422    504.259
 91.570    542.000    534.384      7.616    504.091    529.772    504.091    508.697    504.091
 91.670    511.712    537.745    -26.034    503.921    532.600    503.921    509.058    503.921
 91.770    543.000    542.171      0.829    503.750    536.392    503.750    509.518    503.750
 91.870    536.000    547.871    -11.871    503.577    541.345    503.577    510.090    503.577
 91.970    548.144    555.033     -6.889    503.404    547.631    503.404    510.788    503.404
 92.070    598.000    563.934     34.066    503.229    555.518    503.229    511.623    503.229
 92.170    597.000    574.736     22.264    503.053    565.158    503.053    512.605    503.053
 92.270    573.776    587.527    -13.751    502.876    576.633    502.876    513.737    502.876
 92.370    634.065    602.320     31.746    502.698    589.959    502.698    515.019    502.698
 92.470    599.000    619.012    -20.012    502.518    605.041    502.518    516.444    502.518
 92.570    631.000    637.370     -6.370    502.337    621.659    502.337    517.996    502.337
 92.670    638.000    657.013    -19.013    502.156    639.460    502.156    519.649    502.156
 92.770    698.000    677.415     20.585    501.973    657.955    501.973    521.367    501.973
 92.870    692.000    697.921     -5.921    501.788    676.542    501.788    523.097    501.788
 92.970    671.384    717.804    -46.420    501.603    694.561    501.603    524.771    501.603
 93.070    773.000    736.357     36.643    501.417    711.389    501.417    526.308    501.417
 93.170    789.000    753.017     35.983    501.229    726.559    501.229    527.609    501.229
 93.270    797.000    767.475     29.525    501.041    739.863    501.041    528.576    501.041
 93.370    838.000    779.704     58.296    500.851    751.363    500.851    529.116    500.851
 93.470    851.000    789.884     61.116    500.660    761.301    500.660    529.169    500.660
 93.570    804.000    798.331      5.669    500.468    770.015    500.468    528.712    500.468
 93.670    843.696    805.423     38.273    500.275    777.855    500.275    527.774    500.275
 93.770    895.000    811.594     83.406    500.081    785.187    500.081    526.421    500.081
 93.870    837.000    817.351     19.649    499.886    792.425    499.886    524.748    499.886
 93.970    860.000    823.269     36.731    499.690    800.043    499.690    522.855    499.690
 94.070    839.735    829.914      9.821    499.493    808.511    499.493    520.836    499.493
 94.170    888.000    837.688     50.312    499.294    818.151    499.294    518.774    499.294
 94.270    830.983    846.672    -15.689    499.095    828.980    499.095    516.733    499.095
 94.370    854.000    856.524     -2.524    498.895    840.603    498.895    514.763    498.895
 94.470    856.237    866.456    -10.220    498.694    852.201    498.694    512.900    498.694
 94.570    857.076    875.302    -18.226    498.491    862.581    498.491    511.169    498.491
 94.670    883.000    881.644      1.356    498.288    870.312    498.288    509.583    498.288
 94.770    918.000    884.025     33.975    498.084    873.930    498.084    508.149    498.084
 94.870    927.000    881.222     45.778    497.879    872.212    497.879    506.866    497.879
 94.970    871.000    872.530     -1.530    497.673    864.458    497.673    505.731    497.673
 95.070    832.000    857.956    -25.956    497.466    850.683    497.466    504.733    497.466
 95.170    812.692    838.239    -25.547    497.258    831.636    497.258    503.861    497.258
 95.270    819.000    814.697      4.303    497.049    808.650    497.049    503.102    497.049
 95.370    801.000    789.009     11.991    496.839    783.416    496.839    502.442    496.839
 95.470    785.000    763.001     21.999    496.628    757.774    496.628    501.868    496.628
 95.570    753.000    738.504     14.496    496.417    733.567    496.417    501.366    496.417
 95.670    761.000    717.252     43.748    496.204    712.540    496.204    500.925    496.204
 95.770    681.000    700.824    -19.824    495.991    696.286    495.991    500.535    495.991
 95.870    761.000    690.613     70.387    495.777    686.203    495.777    500.187    495.777
 95.970    670.000    687.795    -17.795    495.562    683.477    495.562    499.873    495.562
 96.070    727.974    693.384     34.590    495.346    689.128    495.346    499.588    495.346
 96.170    702.000    708.142     -6.142    495.130    703.921    495.130    499.327    495.130
 96.270    748.995    732.598     16.397    494.912    728.391    494.912    499.085    494.912
 96.370    769.000    767.011      1.989    494.694    762.799    494.694    498.862    494.694
 96.470    845.490    811.301     34.189    494.475    807.068    494.475    498.653    494.475
 96.570    867.000    864.968      2.032    494.256    860.700    494.256    498.459    494.256
 96.670    871.275    927.011    -55.736    494.035    922.695    494.035    498.277    494.035
 96.770   1040.435    995.850     44.585    493.814    991.474    493.814    498.107    493.814
 96.870   1074.000   1069.286      4.714    493.593   1064.840    493.593    497.949    493.593
 96.970   1046.000   1144.486    -98.486    493.370   1139.961    493.370    497.803    493.370
 97.070   1252.000   1218.028     33.972    493.147   1213.414    493.147    497.669    493.147
 97.170   1260.116   1286.007    -25.891    492.923   1281.295    492.923    497.548    492.923
 97.270   1360.000   1344.269     15.731    492.698   1339.451    492.698    497.440    492.698
 97.370   1368.265   1388.802    -20.537    492.473   1383.867    492.473    497.346    492.473
 97.470   1348.272   1416.290    -68.018    492.248   1411.225    492.248    497.267    492.248
 97.570   1385.000   1424.711    -39.711    492.021   1419.501    492.021    497.205    492.021
 97.670   1386.000   1413.741    -27.741    491.794   1408.368    491.794    497.162    491.794
 97.770   1380.743   1384.773     -4.030    491.567   1379.213    491.567    497.141    491.567
 97.870   1307.000   1340.559    -33.559    491.338   1334.783    491.338    497.145    491.338
 97.970   1286.000   1284.678      1.322    491.110   1278.653    491.110    497.179    491.110
 98.070   1238.000   1221.046     16.954    490.880   1214.732    490.880    497.248    490.880
 98.170   1199.703   1153.562     46.140    490.651   1146.912    490.651    497.360    490.651
 98.270   1151.164   1085.884     65.281    490.420   1078.841    490.420    497.524    490.420
 98.370   1021.000   1021.290     -0.290    490.190   1013.787    490.190    497.751    490.190
 98.470   1004.000    962.613     41.387    489.958    954.568    489.958    498.057    489.958
 98.570    858.000    912.214    -54.214    489.727    903.528    489.727    498.460    489.727
 98.670    837.529    871.995    -34.466    489.495    862.547    489.495    498.981    489.495
 98.770    789.000    843.420    -54.420    489.262    833.065    489.262    499.647    489.262
 98.870    866.381    827.579     38.802    489.029    816.141    489.029    500.487    489.029
 98.970    823.000    825.242     -2.242    488.796    812.513    488.796    501.535    488.796
 99.070    856.000    836.909     19.091    488.562    822.643    488.562    502.830    488.562
 99.170    874.000    862.837     11.163    488.328    846.747    488.328    504.412    488.328
 99.270    897.795    903.036     -5.241    488.093    884.793    488.093    506.325    488.093
 99.370    991.000    957.237     33.763    487.859    936.467    487.859    508.613    487.859
 99.470   1077.000   1024.831     52.169    487.624   1001.121    487.624    511.316    487.624
 99.570   1134.464   1104.798     29.666    487.388   1077.697    487.388    514.474    487.388
 99.670   1203.000   1195.626      7.374    487.153   1164.651    487.153    518.116    487.153
 99.770   1296.000   1295.229      0.771    486.917   1259.881    486.917    522.262    486.917
 99.870   1363.415   1400.953    -37.539    486.681   1360.724    486.681    526.919    486.681
 99.970   1531.000   1509.520     21.480    486.444   1463.913    486.444    532.076    486.444
100.070   1555.777   1617.122    -61.344    486.208   1565.671    486.208    537.703    486.208
100.170   1770.000   1719.625     50.375    485.971   1661.921    485.971    543.743    485.971
100.270   1822.000   1812.871      9.129    485.734   1748.585    485.734    550.113    485.734
100.370   1877.000   1893.036    -16.036    485.497   1821.955    485.497    556.697    485.497
100.470   1951.000   1956.935     -5.935    485.260   1878.997    485.260    563.343    485.260
100.570   2057.687   2002.160     55.526    485.023   1917.493    485.023    569.860    485.023
100.670   2065.000   2027.071     37.929    484.786   1936.032    484.786    576.014    484.786
100.770   1985.991   2030.756    -44.765    484.548   1933.972    484.548    581.539    484.548
100.870   2049.417   2013.130     36.287    484.311   1911.515    484.311    586.146    484.311
100.970   1996.000   1975.151     20.849    484.073   1869.902    484.073    589.550    484.073
101.070   1989.000   1919.030     69.970    483.836   1811.586    483.836    591.510    483.836
101.170   1839.000   1848.211     -9.211    483.599   1740.167    483.599    591.869    483.599
101.270   1709.712   1767.051    -57.339    483.361   1660.050    483.361    590.581    483.361
101.370   1708.000   1680.301     27.699    483.124   1575.907    483.124    587.725    483.124
101.470   1619.150   1592.564     26.586    482.887   1492.155    482.887    583.489    482.887
101.570   1578.872   1507.868     71.005    482.650   1412.565    482.650    578.129    482.650
101.670   1398.640   1429.406    -30.766    482.413   1340.043    482.413    571.935    482.413
101.770   1337.000   1359.412    -22.412    482.176   1276.539    482.176    565.193    482.176
101.870   1330.567   1299.132     31.435    481.939   1223.040    481.939    558.161    481.939
101.970   1227.000   1248.865    -21.865    481.702   1179.625    481.702    551.059    481.702
102.070   1251.463   1208.048     43.414    481.466   1145.552    481.466    544.069    481.466
102.170   1151.000   1175.380    -24.380    481.230   1119.378    481.230    537.330    481.230
102.270   1096.049   1148.977    -52.928    480.994   1099.116    480.994    530.950    480.994
102.370   1097.042   1126.582    -29.540    480.759   1082.429    480.759    525.002    480.759
102.470   1149.243   1105.806     43.436    480.523   1066.884    480.523    519.536    480.523
102.570   1066.000   1084.423    -18.423    480.289   1050.226    480.289    514.575    480.289
102.670   1030.318   1060.652    -30.335    480.054   1030.671    480.054    510.126    480.054
102.770    990.000   1033.376    -43.376    479.820   1007.110    479.820    506.177    479.820
102.870   1000.000   1002.209     -2.209    479.586    979.180    479.586    502.705    479.586
102.970   1015.262    967.420     47.843    479.353    947.183    479.353    499.678    479.353
103.070    920.398    929.751     -9.353    479.120    911.901    479.120    497.055    479.120
103.170    874.000    890.215    -16.215    478.887    874.389    478.887    494.795    478.887
103.270    845.000    849.925     -4.925    478.655    835.802    478.655    492.854    478.655
103.370    764.000    809.968    -45.968    478.423    797.272    478.423    491.189    478.423
103.470    759.000    771.329    -12.329    478.192    759.826    478.192    489.760    478.192
103.570    738.000    734.842      3.158    477.962    724.332    477.962    488.529    477.962
103.670    708.000    701.154      6.846    477.732    691.472    477.732    487.464    477.732
103.770    679.869    670.716      9.153    477.503    661.725    477.503    486.536    477.503
103.870    619.000    643.780    -24.780    477.274    635.369    477.274    485.721    477.274
103.970    571.683    620.418    -48.736    477.046    612.498    477.046    484.997    477.046
104.070    632.000    600.547     31.453    476.819    593.042    476.819    484.348    476.819
104.170    559.408    583.960    -24.552    476.592    576.812    476.592    483.760    476.592
104.270    613.213    570.367     42.846    476.367    563.528    476.367    483.222    476.367
104.370    565.489    559.430      6.059    476.142    552.858    476.142    482.725    476.142
104.470    531.589    550.792    -19.203    475.917    544.456    475.917    482.262    475.917
104.570    573.709    544.107     29.602    475.694    537.979    475.694    481.828    475.694
104.670    574.711    539.057     35.654    475.471    533.114    475.471    481.418    475.471
104.770    554.000    535.369     18.631    475.249    529.590    475.249    481.030    475.249
104.870    574.000    532.820     41.180    475.029    527.189    475.029    480.660    475.029
104.970    511.000    531.236    -20.236    474.809    525.737    474.809    480.307    474.809
105.070    535.239    530.497      4.742    474.590    525.115    474.590    479.969    474.590
105.170    534.000    530.530      3.470    474.371    525.252    474.371    479.645    474.371
105.270    511.000    531.305    -20.305    474.154    526.121    474.154    479.333    474.154
105.370    525.000    532.827     -7.827    473.938    527.725    473.938    479.032    473.938
105.470    512.608    535.151    -22.544    473.723    530.123    473.723    478.743    473.723
105.570    518.000    538.343    -20.343    473.510    533.378    473.510    478.464    473.510
105.670    564.000    542.483     21.517    473.297    537.572    473.297    478.194    473.297
105.770    541.341    547.654     -6.312    473.085    542.791    473.085    477.932    473.085
105.870    589.766    553.934     35.832    472.875    549.110    472.875    477.680    472.875
105.970    520.735    561.374    -40.639    472.665    556.581    472.665    477.437    472.665
106.070    539.000    569.986    -30.986    472.457    565.217    472.457    477.202    472.457
106.170    597.395    579.736     17.659    472.251    574.983    472.251    476.975    472.251
106.270    615.357    590.532     24.825    472.045    585.790    472.045    476.756    472.045
106.370    641.108    602.221     38.887    471.841    597.483    471.841    476.545    471.841
106.470    643.000    614.587     28.413    471.638    609.848    471.638    476.340    471.638
106.570    651.000    627.354     23.646    471.437    622.607    471.437    476.143    471.437
106.670    648.445    640.189      8.256    471.237    635.430    471.237    475.954    471.237
106.770    606.613    652.717    -46.104    471.038    647.941    471.038    475.771    471.038
106.870    640.000    664.534    -24.534    470.841    659.736    470.841    475.595    470.841
106.970    647.000    675.233    -28.233    470.645    670.407    470.645    475.427    470.645
107.070    640.861    684.438    -43.577    470.451    679.581    470.451    475.266    470.451
107.170    689.000    691.852     -2.852    470.259    686.959    470.259    475.111    470.259
107.270    699.000    697.303      1.697    470.068    692.369    470.068    474.964    470.068
107.370    682.000    700.782    -18.782    469.878    695.802    469.878    474.825    469.878
107.470    719.000    702.449     16.551    469.691    697.417    469.691    474.692    469.691
107.570    660.092    702.606    -42.514    469.505    697.517    469.505    474.567    469.505
107.670    669.000    701.651    -32.651    469.320    696.500    469.320    474.450    469.320
107.770    697.000    700.014     -3.014    469.138    694.794    469.138    474.341    469.138
107.870    671.000    698.102    -27.102    468.957    692.807    468.957    474.239    468.957
107.970    649.000    696.258    -47.258    468.778    690.882    468.778    474.146    468.778
108.070    735.552    694.734     40.817    468.601    689.270    468.601    474.061    468.601
108.170    714.000    693.673     20.327    468.426    688.113    468.426    473.985    468.426
108.270    668.000    693.101    -25.101    468.252    687.439    468.252    473.918    468.252
108.370    716.740    692.928     23.812    468.081    687.155    468.081    473.860    468.081
108.470    730.000    692.952     37.048    467.912    687.062    467.912    473.812    467.912
108.570    708.493    692.881     15.612    467.744    686.864    467.744    473.774    467.744
108.670    661.000    692.357    -31.357    467.579    686.205    467.579    473.747    467.579
108.770    685.000    690.999     -5.999    467.416    684.703    467.416    473.730    467.416
108.870    678.973    688.456     -9.483    467.255    682.007    467.255    473.726    467.255
108.970    703.000    684.460     18.540    467.096    677.846    467.096    473.733    467.096
109.070    649.000    678.870    -29.870    466.939    672.081    466.939    473.753    466.939
109.170    627.392    671.688    -44.296    466.785    664.712    466.785    473.786    466.785
109.270    659.000    663.053     -4.053    466.632    655.876    466.632    473.834    466.632
109.370    674.123    653.206     20.917    466.482    645.816    466.482    473.897    466.482
109.470    691.080    642.454     48.626    466.335    634.837    466.335    473.976    466.335
109.570    603.984    631.130    -27.146    466.189    623.270    466.189    474.073    466.189
109.670    574.862    619.567    -44.706    466.046    611.448    466.046    474.188    466.046
109.770    633.000    608.076     24.924    465.906    599.679    465.906    474.323    465.906
109.870    607.000    596.934     10.066    465.768    588.240    465.768    474.480    465.768
109.970    561.952    586.380    -24.428    465.633    577.367    465.633    474.662    465.633
110.070    588.000    576.606     11.394    465.500    567.249    465.500    474.870    465.500
110.170    540.972    567.755    -26.784    465.369    558.028    465.369    475.108    465.369
110.270    578.000    559.928     18.072    465.242    549.799    465.242    475.380    465.242
110.370    579.000    553.176     25.824    465.117    542.610    465.117    475.689    465.117
110.470    516.000    547.514    -31.514    464.994    536.471    464.994    476.043    464.994
110.570    567.000    542.922     24.078    464.875    531.354    464.875    476.446    464.875
110.670    550.000    539.352     10.648    464.758    527.204    464.758    476.908    464.758
110.770    502.372    536.716    -34.344    464.644    523.923    464.644    477.437    464.644
110.870    528.000    534.967     -6.967    464.533    521.453    464.533    478.046    464.533
110.970    590.000    534.044     55.956    464.424    519.719    464.424    478.748    464.424
111.070    581.000    533.848     47.152    464.319    518.605    464.319    479.559    464.319
111.170    502.569    534.302    -31.734    464.217    518.016    464.217    480.498    464.217
111.270    563.476    535.343     28.133    464.117    517.866    464.117    481.588    464.117
111.370    562.000    536.918     25.082    464.021    518.078    464.021    482.855    464.021
111.470    553.000    538.988     14.012    463.928    518.581    463.928    484.327    463.928
111.570    583.497    541.527     41.970    463.837    519.319    463.837    486.038    463.837
111.670    551.622    544.524      7.098    463.751    520.243    463.751    488.024    463.751
111.770    586.142    547.982     38.160    463.667    521.315    463.667    490.325    463.667
111.870    558.000    551.917      6.083    463.586    522.509    463.586    492.985    463.586
111.970    570.000    556.361     13.639    463.509    523.810    463.509    496.050    463.509
112.070    545.000    561.356    -16.356    463.435    525.213    463.435    499.568    463.435
112.170    597.000    566.955     30.045    463.365    526.722    463.365    503.587    463.365
112.270    524.000    573.223    -49.223    463.298    528.354    463.298    508.156    463.298
112.370    562.296    580.229    -17.933    463.234    530.132    463.234    513.320    463.234
112.470    641.000    588.048     52.952    463.174    532.089    463.174    519.122    463.174
112.570    616.233    596.760     19.473    463.117    534.268    463.117    525.598    463.117
112.670    538.000    606.448    -68.448    463.064    536.724    463.064    532.777    463.064
112.770    604.000    617.201    -13.201    463.015    539.527    463.015    540.675    463.015
112.870    610.000    629.114    -19.114    462.969    542.769    462.969    549.300    462.969
112.970    629.861    642.297    -12.436    462.927    546.568    462.927    558.641    462.927
113.070    600.000    656.877    -56.877    462.889    551.079    462.889    568.671    462.889
113.170    597.000    673.010    -76.010    462.854    556.504    462.854    579.342    462.854
113.270    664.000    690.891    -26.891    462.824    563.108    462.824    590.587    462.824
113.370    732.000    710.770     21.230    462.797    571.233    462.797    602.311    462.797
113.470    733.000    732.967      0.033    462.774    581.321    462.774    614.394    462.774
113.570    730.000    757.894    -27.894    462.755    593.935    462.755    626.685    462.755
113.670    758.000    786.076    -28.076    462.741    609.781    462.741    639.001    462.741
113.770    827.000    818.173      8.827    462.730    629.736    462.730    651.127    462.730
113.870    833.000    855.007    -22.007    462.723    654.870    462.723    662.812    462.723
113.970    856.044    897.580    -41.537    462.721    686.468    462.721    673.774    462.721
114.070    990.749    947.105     43.644    462.722    726.047    462.722    683.710    462.722
114.170    976.000   1005.018    -29.018    462.728    775.360    462.728    692.301    462.728
114.270   1052.000   1072.996    -20.996    462.739    836.390    462.739    699.241    462.739
114.370   1193.000   1152.956     40.044    462.753    911.330    462.753    704.255    462.753
114.470   1228.000   1247.043    -19.043    462.772   1002.539    462.772    707.128    462.772
114.570   1339.487   1357.590    -18.102    462.796   1112.476    462.796    707.733    462.796
114.670   1499.000   1487.038     11.962    462.824   1243.611    462.824    706.041    462.824
114.770   1707.000   1637.831     69.169    462.856   1398.309    462.856    702.132    462.856
114.870   1873.000   1812.263     60.737    462.893   1578.691    462.893    696.179    462.893
114.970   2018.877   2012.299      6.578    462.934   1786.476    462.934    688.428    462.934
115.070   2372.000   2239.377    132.623    462.981   2022.806    462.981    679.176    462.981
115.170   2564.000   2494.205     69.795    463.032   2288.078    463.032    668.736    463.032
115.270   2981.000   2776.571    204.429    463.087   2581.766    463.087    657.423    463.087
115.370   3173.000   3085.178     87.822    463.148   2902.279    463.148    645.531    463.148
115.470   3602.000   3417.511    184.489    463.213   3246.840    463.213    633.327    463.213
115.570   3810.000   3769.759     40.241    463.284   3611.405    463.284    621.044    463.284
115.670   4165.642   4136.787     28.855    463.359   3990.641    463.359    608.883    463.359
115.770   4564.000   4512.160     51.840    463.439   4377.948    463.439    597.008    463.439
115.870   4759.805   4888.233   -128.427    463.525   4765.550    463.525    585.557    463.525
115.970   5375.000   5256.305    118.695    463.615   5144.638    463.615    574.636    463.615
116.070   5569.812   5606.834    -37.022    463.711   5505.591    463.711    564.327    463.711
116.170   5872.301   5929.733    -57.432    463.812   5838.267    463.812    554.687    463.812
116.270   6305.000   6214.764     90.236    463.918   6132.388    463.918    545.753    463.918
116.370   6546.087   6452.038     94.049    464.029   6378.048    464.029    537.544    464.029
116.470   6608.962   6632.635    -23.674    464.146   6566.325    464.146    530.062    464.146
116.570   6626.907   6749.302   -122.395    464.268   6689.974    464.268    523.294    464.268
116.670   6839.227   6797.121     42.106    464.396   6744.097    464.396    517.218    464.396
116.770   6883.000   6774.031    108.969    464.529   6726.661    464.529    511.800    464.529
116.870   6520.850   6681.052   -160.202    464.667   6638.720    464.667    507.003    464.667
116.970   6512.926   6522.151     -9.225    464.812   6484.284    464.812    502.781    464.812
117.070   6123.000   6303.801   -180.801    464.962   6269.866    464.962    499.087    464.962
117.170   5998.845   6034.333    -35.488    465.117   6003.845    465.117    495.872    465.117
117.270   5611.000   5723.241   -112.241    465.279   5695.760    465.279    493.089    465.279
117.370   5376.521   5380.540     -4.018    465.446   5355.676    465.446    490.686    465.446
117.470   4866.000   5016.242   -150.242    465.620   4993.645    465.620    488.627    465.620
117.570   4504.000   4639.930   -135.930    465.799   4619.291    465.799    486.865    465.799
117.670   4256.576   4260.444     -3.868    465.984   4241.498    465.984    485.364    465.984
117.770   3891.000   3885.660      5.340    466.175   3868.176    466.175    484.087    466.175
117.870   3618.000   3522.322     95.678    466.372   3506.103    466.372    483.004    466.372
117.970   3138.000   3175.949    -37.949    466.576   3160.827    466.576    482.087    466.576
118.070   2945.000   2850.820     94.180    466.785   2836.652    466.785    481.312    466.785
118.170   2524.842   2550.030    -25.189    467.001   2536.696    467.001    480.660    467.001
118.270   2321.289   2275.475     45.814    467.224   2262.875    467.224    480.113    467.224
118.370   2018.000   2028.034    -10.034    467.452   2016.084    467.452    479.654    467.452
118.470   1735.000   1807.693    -72.693    467.687   1796.323    467.687    479.273    467.687
118.570   1687.287   1613.694     73.593    467.929   1602.846    467.929    478.959    467.929
118.670   1352.000   1444.692    -92.692    468.177   1434.316    468.177    478.703    468.177
118.770   1337.000   1298.910     38.090    468.432   1288.966    468.432    478.498    468.432
118.870   1116.000   1174.286    -58.286    468.693   1164.745    468.693    478.331    468.693
118.970    997.000   1068.625    -71.625    468.961   1059.451    468.961    478.211    468.961
119.070    980.168    979.682      0.486    469.236    970.847    469.236    478.129    469.236
119.170    939.268    905.273     33.995    469.517    896.753    469.517    478.080    469.517
119.270    818.000    843.340    -25.340    469.806    835.114    469.806    478.063    469.806
119.370    825.000    792.000     33.000    470.101    784.049    470.101    478.074    470.101
119.470    737.082    749.567    -12.485    470.404    741.873    470.404    478.113    470.404
119.570    709.322    714.567     -5.245    470.714    707.113    470.714    478.178    470.714
119.670    730.959    685.734     45.224    471.030    678.502    471.030    478.269    471.030
119.770    626.000    661.997    -35.997    471.354    654.971    471.354    478.384    471.354
119.870    645.000    642.463      2.537    471.685    635.629    471.685    478.523    471.685
119.970    618.077    626.400     -8.324    472.024    619.741    472.024    478.685    472.024
120.070    595.000    613.213    -18.213    472.369    606.714    472.369    478.870    472.369
120.170    580.000    602.419    -22.419    472.722    596.065    472.722    479.079    472.722
120.270    617.000    593.638     23.362    473.083    587.413    473.083    479.310    473.083
120.370    611.000    586.563     24.437    473.451    580.452    473.451    479.565    473.451
120.470    551.000    580.954    -29.954    473.827    574.942    473.827    479.843    473.827
120.570    598.034    576.623     21.412    474.211    570.694    474.211    480.143    474.211
120.670    538.309    573.419    -35.110    474.602    567.558    474.602    480.467    474.602
120.770    556.000    571.226    -15.226    475.001    565.417    475.001    480.815    475.001
120.870    547.000    569.948    -22.948    475.408    564.176    475.408    481.186    475.408
120.970    517.000    569.509    -52.509    475.822    563.758    475.822    481.580    475.822
121.070    528.659    569.845    -41.186    476.245    564.099    476.245    481.999    476.245
121.170    592.000    570.897     21.103    476.676    565.142    476.676    482.440    476.676
121.270    571.181    572.613     -1.432    477.114    566.834    477.114    482.905    477.114
121.370    589.000    574.940     14.060    477.561    569.122    477.561    483.393    477.561
121.470    560.000    577.822    -17.822    478.017    571.951    478.017    483.903    478.017
121.570    623.988    581.201     42.787    478.480    575.263    478.480    484.435    478.480
121.670    535.000    585.010    -50.010    478.952    578.994    478.952    484.987    478.952
121.770    570.662    589.179    -18.517    479.432    583.073    479.432    485.560    479.432
121.870    627.000    593.628     33.372    479.921    587.422    479.921    486.151    479.921
121.970    621.000    598.269     22.731    480.418    591.955    480.418    486.759    480.418
122.070    671.000    603.008     67.992    480.924    596.580    480.924    487.382    480.924
122.170    624.000    607.745     16.255    481.439    601.197    481.439    488.018    481.439
122.270    595.000    612.372    -17.372    481.962    605.703    481.962    488.665    481.962
122.370    652.227    616.781     35.446    482.494    609.992    482.494    489.320    482.494
122.470    613.000    620.864     -7.864    483.035    613.959    483.035    489.980    483.035
122.570    664.485    624.515     39.970    483.585    617.501    483.585    490.641    483.585
122.670    590.089    627.639    -37.550    484.144    620.527    484.144    491.300    484.144
122.770    630.000    630.156     -0.156    484.712    622.959    484.712    491.954    484.712
122.870    637.000    632.003      4.997    485.289    624.741    485.289    492.598    485.289
122.970    678.000    633.142     44.858    485.875    625.836    485.875    493.229    485.875
123.070    650.000    633.562     16.438    486.471    626.237    486.471    493.844    486.471
123.170    606.760    633.275    -26.515    487.076    625.957    487.076    494.441    487.076
123.270    656.000    632.315     23.685    487.690    625.034    487.690    495.018    487.690
123.370    658.000    630.737     27.263    488.314    623.522    488.314    495.574    488.314
123.470    643.884    628.607     15.277    488.947    621.489    488.947    496.110    488.947
123.570    675.000    626.003     48.997    489.590    619.008    489.590    496.627    489.590
123.670    589.000    623.004    -34.004    490.243    616.158    490.243    497.129    490.243
123.770    580.000    619.691    -39.691    490.905    613.018    490.905    497.616    490.905
123.870    571.712    616.144    -44.432    491.577    609.663    491.577    498.094    491.577
123.970    637.862    612.438     25.424    492.260    606.164    492.260    498.565    492.260
124.070    620.000    608.640     11.360    492.952    602.586    492.952    499.033    492.952
124.170    613.905    604.808      9.097    493.654    598.985    493.654    499.502    493.654
124.270    626.000    600.993     25.007    494.366    595.406    494.366    499.976    494.366
124.370    600.000    597.234      2.766    495.088    591.886    495.088    500.456    495.088
124.470    591.560    593.560     -2.000    495.821    588.451    495.821    500.947    495.821
124.570    549.000    589.991    -40.991    496.564    585.120    496.564    501.450    496.564
124.670    595.945    586.539      9.406    497.317    581.902    497.317    501.967    497.317
124.770    569.000    583.208    -14.208    498.081    578.800    498.081    502.500    498.081
124.870    585.000    579.999      5.001    498.855    575.812    498.855    503.051    498.855
124.970    558.000    576.909    -18.909    499.640    572.935    499.640    503.621    499.640
