neutron_powder_diffraction_0155
R_wp: 3.920
Temperature (K): 1074.000
Counts: 83458.00
Wavelength (Ã…): 2.52098
COMMENTS
Test file for demonstrating the .xyy file format in Reel1.0
END OF HEADER
   tth       Y_obs     Y_calc      Y_res    Background    Phase_1_Nuc    Phase_1_Mag    Phase_2_Nuc    Phase_2_Mag
  9.970    600.000    568.819     31.181    568.067    568.741    568.067    568.144    568.067
 10.070    590.000    568.933     21.067    568.119    568.855    568.119    568.197    568.119
 10.170    543.112    569.048    -25.935    568.166    568.969    568.166    568.244    568.166
 10.270    575.000    569.167      5.833    568.207    569.089    568.207    568.285    568.207
 10.370    526.571    569.294    -42.724    568.243    569.215    568.243    568.322    568.243
 10.470    574.695    569.431      5.264    568.275    569.352    568.275    568.353    568.275
 10.570    566.000    569.583     -3.583    568.301    569.503    568.301    568.380    568.301
 10.670    547.000    569.754    -22.754    568.322    569.673    568.322    568.401    568.322
 10.770    525.933    569.950    -44.017    568.338    569.870    568.338    568.417    568.338
 10.870    589.672    570.182     19.490    568.349    570.101    568.349    568.429    568.349
 10.970    613.048    570.462     42.586    568.355    570.380    568.355    568.435    568.355
 11.070    595.000    570.808     24.192    568.356    570.726    568.356    568.437    568.356
 11.170    577.000    571.246      5.754    568.352    571.164    568.352    568.434    568.352
 11.270    617.989    571.820     46.169    568.344    571.737    568.344    568.426    568.344
 11.370    571.000    572.599     -1.599    568.331    572.514    568.331    568.413    568.331
 11.470    611.000    573.739     37.261    568.314    573.654    568.314    568.396    568.314
 11.570    672.000    575.673     96.327    568.291    575.586    568.291    568.374    568.291
 11.670    626.543    579.593     46.950    568.264    579.504    568.264    568.347    568.264
 11.770    633.000    588.185     44.815    568.233    588.091    568.233    568.316    568.233
 11.870    634.208    605.651     28.558    568.197    605.546    568.197    568.281    568.197
 11.970    686.000    635.103     50.897    568.157    634.981    568.157    568.241    568.157
 12.070    726.000    672.647     53.353    568.112    672.503    568.112    568.197    568.112
 12.170    663.000    702.027    -39.027    568.063    701.865    568.063    568.148    568.063
 12.270    747.825    702.932     44.893    568.010    702.770    568.010    568.095    568.010
 12.370    702.121    674.506     27.615    567.953    674.360    567.953    568.038    567.953
 12.470    605.947    636.702    -30.755    567.891    636.577    567.891    567.977    567.891
 12.570    577.000    606.495    -29.495    567.825    606.387    567.825    567.912    567.825
 12.670    621.321    588.341     32.979    567.755    588.243    567.755    567.842    567.755
 12.770    590.000    579.306     10.694    567.681    579.213    567.681    567.769    567.681
 12.870    589.514    575.134     14.380    567.603    575.042    567.603    567.691    567.603
 12.970    537.000    573.040    -36.040    567.521    572.949    567.521    567.609    567.521
 13.070    530.000    571.774    -41.774    567.435    571.683    567.435    567.524    567.435
 13.170    544.000    570.882    -26.882    567.346    570.792    567.346    567.435    567.346
 13.270    545.000    570.202    -25.202    567.252    570.111    567.252    567.341    567.252
 13.370    608.000    569.659     38.341    567.155    569.568    567.155    567.244    567.155
 13.470    527.000    569.212    -42.212    567.053    569.121    567.053    567.144    567.053
 13.570    543.000    568.833    -25.833    566.949    568.741    566.949    567.039    566.949
 13.670    581.000    568.504     12.496    566.840    568.412    566.840    566.931    566.840
 13.770    554.000    568.212    -14.212    566.728    568.120    566.728    566.819    566.728
 13.870    544.000    567.948    -23.948    566.612    567.855    566.612    566.704    566.612
 13.970    593.000    567.705     25.295    566.493    567.612    566.493    566.585    566.493
 14.070    589.330    567.478     21.853    566.370    567.384    566.370    566.463    566.370
 14.170    581.149    567.263     13.887    566.244    567.169    566.244    566.337    566.244
 14.270    596.000    567.057     28.943    566.114    566.963    566.114    566.208    566.114
 14.370    589.000    566.859     22.141    565.981    566.764    565.981    566.075    565.981
 14.470    583.000    566.666     16.334    565.845    566.571    565.845    565.939    565.845
 14.570    544.000    566.477    -22.477    565.705    566.382    565.705    565.800    565.705
 14.670    576.774    566.294     10.480    565.562    566.198    565.562    565.658    565.562
 14.770    608.044    566.112     41.932    565.416    566.015    565.416    565.512    565.416
 14.870    545.000    565.931    -20.931    565.267    565.832    565.267    565.366    565.267
 14.970    548.000    565.750    -17.750    565.114    565.649    565.114    565.215    565.114
 15.070    576.493    565.568     10.925    564.959    565.467    564.959    565.060    564.959
 15.170    572.079    565.386      6.693    564.800    565.284    564.800    564.902    564.800
 15.270    546.000    565.203    -19.203    564.639    565.101    564.639    564.741    564.639
 15.370    586.611    565.020     21.591    564.474    564.917    564.474    564.577    564.474
 15.470    572.000    564.836      7.164    564.307    564.733    564.307    564.410    564.307
 15.570    580.000    564.650     15.350    564.136    564.547    564.136    564.240    564.136
 15.670    563.000    564.464     -1.464    563.963    564.359    563.963    564.067    563.963
 15.770    558.000    564.276     -6.276    563.787    564.171    563.787    563.892    563.787
 15.870    597.477    564.086     33.391    563.608    563.980    563.608    563.714    563.608
 15.970    556.000    563.895     -7.895    563.427    563.788    563.427    563.533    563.427
 16.070    529.000    563.702    -34.702    563.242    563.595    563.242    563.349    563.242
 16.170    607.837    563.507     44.330    563.056    563.399    563.056    563.163    563.056
 16.270    556.000    563.311     -7.311    562.866    563.203    562.866    562.974    562.866
 16.370    557.998    563.115     -5.117    562.674    563.006    562.674    562.782    562.674
 16.470    600.434    562.915     37.519    562.479    562.806    562.479    562.588    562.479
 16.570    560.000    562.713     -2.713    562.282    562.603    562.282    562.392    562.282
 16.670    559.009    562.509     -3.500    562.082    562.399    562.082    562.193    562.082
 16.770    543.000    562.303    -19.303    561.880    562.192    561.880    561.991    561.880
 16.870    543.000    562.096    -19.096    561.676    561.984    561.676    561.788    561.676
 16.970    605.666    561.886     43.780    561.469    561.773    561.469    561.581    561.469
 17.070    580.869    561.675     19.195    561.260    561.561    561.260    561.373    561.260
 17.170    522.854    561.461    -38.608    561.048    561.347    561.048    561.162    561.048
 17.270    556.000    561.246     -5.246    560.834    561.131    560.834    560.949    560.834
 17.370    538.000    561.029    -23.029    560.619    560.914    560.619    560.734    560.619
 17.470    600.990    560.813     40.177    560.400    560.696    560.400    560.516    560.400
 17.570    593.385    560.593     32.792    560.180    560.476    560.180    560.297    560.180
 17.670    564.000    560.370      3.630    559.958    560.253    559.958    560.075    559.958
 17.770    541.000    560.146    -19.146    559.733    560.028    559.733    559.851    559.733
 17.870    586.144    559.920     26.224    559.506    559.801    559.506    559.626    559.506
 17.970    550.000    559.693     -9.693    559.278    559.572    559.278    559.398    559.278
 18.070    598.978    559.463     39.515    559.047    559.342    559.047    559.168    559.047
 18.170    565.000    559.233      5.767    558.815    559.111    558.815    558.936    558.815
 18.270    550.000    559.001     -9.001    558.580    558.878    558.580    558.703    558.580
 18.370    565.000    558.767      6.233    558.344    558.643    558.344    558.467    558.344
 18.470    569.000    558.531     10.469    558.106    558.407    558.106    558.230    558.106
 18.570    565.000    558.294      6.706    557.866    558.169    557.866    557.991    557.866
 18.670    589.428    558.055     31.372    557.624    557.929    557.624    557.750    557.624
 18.770    538.000    557.815    -19.815    557.380    557.688    557.380    557.507    557.380
 18.870    556.000    557.573     -1.573    557.135    557.445    557.135    557.263    557.135
 18.970    582.000    557.330     24.670    556.888    557.201    556.888    557.017    556.888
 19.070    504.000    557.086    -53.086    556.639    556.956    556.639    556.769    556.639
 19.170    533.000    556.841    -23.841    556.389    556.710    556.389    556.520    556.389
 19.270    551.000    556.596     -5.596    556.137    556.463    556.137    556.269    556.137
 19.370    600.333    556.347     43.986    555.884    556.214    555.884    556.017    555.884
 19.470    542.000    556.098    -14.098    555.629    555.964    555.629    555.763    555.629
 19.570    511.766    555.848    -44.082    555.373    555.712    555.373    555.508    555.373
 19.670    541.000    555.596    -14.596    555.115    555.460    555.115    555.251    555.115
 19.770    566.000    555.343     10.657    554.855    555.206    554.855    554.993    554.855
 19.870    510.217    555.090    -44.873    554.595    554.951    554.595    554.733    554.595
 19.970    518.000    554.835    -36.835    554.333    554.695    554.333    554.473    554.333
 20.070    524.000    554.581    -30.581    554.069    554.440    554.069    554.210    554.069
 20.170    528.000    554.338    -26.338    553.804    554.196    553.804    553.947    553.804
 20.270    519.000    554.092    -35.092    553.538    553.948    553.538    553.682    553.538
 20.370    592.104    553.835     38.269    553.271    553.690    553.271    553.416    553.271
 20.470    579.140    553.576     25.563    553.003    553.430    553.003    553.149    553.003
 20.570    576.237    553.317     22.919    552.733    553.170    552.733    552.881    552.733
 20.670    534.991    553.058    -18.066    552.462    552.909    552.462    552.611    552.462
 20.770    612.000    552.798     59.202    552.190    552.647    552.190    552.341    552.190
 20.870    552.000    552.538     -0.538    551.917    552.386    551.917    552.069    551.917
 20.970    489.000    552.277    -63.277    551.643    552.124    551.643    551.796    551.643
 21.070    565.000    552.024     12.976    551.367    551.869    551.367    551.522    551.367
 21.170    516.744    551.845    -35.101    551.091    551.689    551.091    551.248    551.091
 21.270    565.000    551.606     13.394    550.814    551.448    550.814    550.972    550.814
 21.370    545.430    551.347     -5.917    550.535    551.187    550.535    550.696    550.535
 21.470    538.000    551.087    -13.087    550.256    550.925    550.256    550.418    550.256
 21.570    574.330    550.827     23.503    549.976    550.664    549.976    550.140    549.976
 21.670    509.166    550.568    -41.402    549.695    550.403    549.695    549.861    549.695
 21.770    554.000    550.310      3.690    549.413    550.143    549.413    549.581    549.413
 21.870    589.000    550.053     38.947    549.130    549.884    549.130    549.300    549.130
 21.970    585.699    549.798     35.901    548.847    549.626    548.847    549.019    548.847
 22.070    577.000    549.544     27.456    548.563    549.370    548.563    548.736    548.563
 22.170    575.000    549.292     25.708    548.278    549.116    548.278    548.453    548.278
 22.270    571.000    549.044     21.956    547.992    548.866    547.992    548.170    547.992
 22.370    543.000    548.817     -5.817    547.705    548.637    547.705    547.886    547.705
 22.470    549.000    548.604      0.396    547.418    548.422    547.418    547.601    547.418
 22.570    542.000    548.413     -6.413    547.130    548.228    547.130    547.316    547.130
 22.670    550.000    548.200      1.800    546.842    548.013    546.842    547.030    546.842
 22.770    536.000    547.979    -11.979    546.553    547.789    546.553    546.743    546.553
 22.870    524.000    547.760    -23.760    546.263    547.567    546.263    546.457    546.263
 22.970    528.593    547.550    -18.957    545.973    547.354    545.973    546.169    545.973
 23.070    543.107    547.352     -4.245    545.683    547.153    545.683    545.882    545.683
 23.170    537.000    547.168    -10.168    545.391    546.966    545.391    545.594    545.391
 23.270    524.000    547.002    -23.002    545.100    546.797    545.100    545.305    545.100
 23.370    577.000    546.859     30.141    544.808    546.650    544.808    545.016    544.808
 23.470    537.000    546.745     -9.745    544.515    546.534    544.515    544.727    544.515
 23.570    545.000    546.672     -1.672    544.222    546.457    544.222    544.438    544.222
 23.670    563.077    546.654     16.423    543.929    546.436    543.929    544.149    543.929
 23.770    575.000    546.707     28.293    543.635    546.484    543.635    543.859    543.635
 23.870    551.000    546.863      4.137    543.341    546.637    543.341    543.569    543.341
 23.970    568.293    547.181     21.112    543.047    546.951    543.047    543.279    543.047
 24.070    555.465    547.798      7.667    542.752    547.564    542.752    542.989    542.752
 24.170    505.517    549.095    -43.577    542.458    548.857    542.458    542.699    542.458
 24.270    558.000    552.063      5.937    542.163    551.822    542.163    542.409    542.163
 24.370    578.000    558.728     19.272    541.867    558.487    541.867    542.119    541.867
 24.470    553.000    571.829    -18.829    541.572    571.592    541.572    541.829    541.572
 24.570    599.813    592.646      7.166    541.276    592.418    541.276    541.539    541.276
 24.670    649.000    617.106     31.894    540.980    616.890    540.980    541.249    540.980
 24.770    638.000    633.265      4.735    540.684    633.054    540.684    540.960    540.684
 24.870    601.498    629.316    -27.818    540.388    629.096    540.388    540.671    540.388
 24.970    619.000    608.461     10.539    540.092    608.219    540.092    540.382    540.092
 25.070    565.000    583.972    -18.972    539.796    583.705    539.796    540.093    539.796
 25.170    541.000    565.147    -24.147    539.500    564.858    539.500    539.805    539.500
 25.270    578.960    553.892     25.067    539.203    553.587    539.203    539.518    539.203
 25.370    540.000    548.162     -8.162    538.907    547.844    538.907    539.231    538.907
 25.470    505.380    545.372    -39.992    538.611    545.042    538.611    538.944    538.611
 25.570    579.128    543.860     35.268    538.315    543.518    538.315    538.659    538.315
 25.670    535.000    542.881     -7.881    538.019    542.528    538.019    538.374    538.019
 25.770    529.000    542.156    -13.156    537.723    541.789    537.723    538.090    537.723
 25.870    532.000    541.577     -9.577    537.427    541.198    537.427    537.807    537.427
 25.970    563.075    541.103     21.972    537.131    540.709    537.131    537.525    537.131
 26.070    567.000    540.709     26.291    536.835    540.300    536.835    537.245    536.835
 26.170    534.000    540.382     -6.382    536.540    539.956    536.540    536.966    536.540
 26.270    535.000    540.132     -5.132    536.244    539.688    536.244    536.688    536.244
 26.370    554.152    539.931     14.221    535.949    539.468    535.949    536.412    535.949
 26.470    541.000    539.759      1.241    535.654    539.275    535.654    536.138    535.654
 26.570    538.000    539.628     -1.628    535.359    539.121    535.359    535.867    535.359
 26.670    528.876    539.549    -10.673    535.065    539.017    535.065    535.597    535.065
 26.770    557.864    539.531     18.333    534.771    538.971    534.771    535.331    534.771
 26.870    567.000    539.583     27.417    534.477    538.992    534.477    535.067    534.477
 26.970    552.043    539.723     12.320    534.184    539.099    534.184    534.808    534.184
 27.070    560.422    539.989     20.432    533.890    539.327    533.890    534.552    533.890
 27.170    565.000    540.418     24.582    533.597    539.714    533.597    534.301    533.597
 27.270    592.000    541.004     50.996    533.305    540.253    533.305    534.055    533.305
 27.370    550.000    541.853      8.147    533.013    541.049    533.013    533.815    533.013
 27.470    582.932    543.107     39.825    532.721    542.243    532.721    533.583    532.721
 27.570    533.592    545.127    -11.535    532.430    544.196    532.430    533.359    532.430
 27.670    537.000    549.230    -12.230    532.139    548.220    532.139    533.146    532.139
 27.770    586.000    560.009     25.991    531.849    558.906    531.849    532.944    531.849
 27.870    588.000    589.373     -1.373    531.559    588.159    531.559    532.756    531.559
 27.970    631.569    656.227    -24.658    531.269    654.871    531.269    532.586    531.269
 28.070    784.000    769.267     14.733    530.981    767.738    530.981    532.438    530.981
 28.170    849.357    896.145    -46.789    530.692    894.421    530.692    532.316    530.692
 28.270    968.288    958.614      9.674    530.404    956.692    530.404    532.228    530.404
 28.370    944.798    905.472     39.325    530.117    903.341    530.117    532.186    530.117
 28.470    750.486    791.047    -40.561    529.830    788.647    529.830    532.205    529.830
 28.570    703.000    702.810      0.190    529.544    700.032    529.544    532.311    529.544
 28.670    698.000    685.699     12.301    529.259    682.405    529.259    532.538    529.259
 28.770    691.010    734.056    -43.046    528.974    730.070    528.974    532.939    528.974
 28.870    761.975    805.958    -43.983    528.689    801.051    528.689    533.582    528.689
 28.970    834.066    839.975     -5.910    528.406    833.831    528.406    534.551    528.406
 29.070    784.000    800.121    -16.121    528.123    792.318    528.123    535.937    528.123
 29.170    724.431    717.900      6.531    527.841    707.934    527.841    537.818    527.841
 29.270    654.000    642.205     11.795    527.559    629.544    527.559    540.226    527.559
 29.370    596.000    595.082      0.918    527.278    579.293    527.278    543.070    527.278
 29.470    586.000    573.475     12.525    526.998    554.461    526.998    546.011    526.998
 29.570    606.000    565.589     40.411    526.719    543.950    526.719    548.355    526.719
 29.670    597.000    562.185     34.815    526.440    539.402    526.440    549.220    526.440
 29.770    577.000    558.958     18.042    526.162    536.990    526.162    548.127    526.162
 29.870    547.000    554.976     -7.976    525.885    535.426    525.885    545.432    525.885
 29.970    578.000    550.715     27.285    525.609    534.329    525.609    541.992    525.609
 30.070    527.797    546.795    -18.998    525.333    533.577    525.333    538.549    525.333
 30.170    545.000    543.592      1.408    525.058    533.149    525.058    535.499    525.058
 30.270    600.000    541.343     58.657    524.785    533.156    524.785    532.969    524.785
 30.370    572.963    540.472     32.491    524.512    534.035    524.512    530.945    524.512
 30.470    553.921    542.079     11.842    524.240    536.959    524.240    529.353    524.240
 30.570    604.000    548.283     55.717    523.968    544.136    523.968    528.103    523.968
 30.670    599.000    561.443     37.557    523.698    558.009    523.698    527.109    523.698
 30.770    588.000    581.449      6.551    523.429    578.538    523.429    526.301    523.429
 30.870    585.801    602.266    -16.465    523.160    599.750    523.160    525.624    523.160
 30.970    620.000    611.745      8.255    522.892    609.543    522.892    525.039    522.892
 31.070    600.000    601.884     -1.884    522.626    599.945    522.626    524.519    522.626
 31.170    594.000    580.094     13.906    522.360    578.377    522.360    524.048    522.360
 31.270    564.000    558.515      5.485    522.095    556.982    522.095    523.613    522.095
 31.370    533.000    543.435    -10.435    521.832    542.052    521.832    523.206    521.832
 31.470    551.000    535.114     15.886    521.569    533.856    521.569    522.823    521.569
 31.570    546.000    531.156     14.844    521.307    530.002    521.307    522.457    521.307
 31.670    529.706    529.299      0.407    521.046    528.235    521.046    522.108    521.046
 31.770    483.283    528.299    -45.016    520.786    527.313    520.786    521.771    520.786
 31.870    543.000    527.660     15.340    520.528    526.741    520.528    521.445    520.528
 31.970    564.937    527.211     37.726    520.270    526.351    520.270    521.129    520.270
 32.070    482.912    526.894    -43.983    520.013    526.086    520.013    520.821    520.013
 32.170    513.612    526.691    -13.079    519.758    525.928    519.758    520.519    519.758
 32.270    568.000    526.593     41.407    519.504    525.871    519.504    520.224    519.504
 32.370    523.000    526.601     -3.601    519.250    525.915    519.250    519.935    519.250
 32.470    528.649    526.724      1.925    518.998    526.070    518.998    519.650    518.998
 32.570    518.000    526.977     -8.977    518.747    526.352    518.747    519.370    518.747
 32.670    555.351    527.386     27.966    518.497    526.787    518.497    519.094    518.497
 32.770    500.000    527.987    -27.987    518.248    527.412    518.248    518.822    518.248
 32.870    578.000    528.835     49.165    518.000    528.281    518.000    518.553    518.000
 32.970    536.993    530.011      6.983    517.753    529.475    517.753    518.287    517.753
 33.070    528.000    531.638     -3.638    517.508    531.120    517.508    518.024    517.508
 33.170    546.000    533.942     12.058    517.264    533.440    517.264    517.764    517.264
 33.270    532.000    537.449     -5.449    517.021    536.960    517.021    517.507    517.021
 33.370    611.000    543.600     67.400    516.779    543.123    516.779    517.252    516.779
 33.470    582.325    556.230     26.095    516.538    555.763    516.538    516.999    516.538
 33.570    583.107    583.728     -0.621    516.298    583.267    516.298    516.748    516.298
 33.670    658.000    639.465     18.535    516.060    639.003    516.060    516.500    516.060
 33.770    750.000    735.641     14.359    515.823    735.172    515.823    516.254    515.823
 33.870    935.000    868.482     66.518    515.587    868.002    515.587    516.010    515.587
 33.970    997.664   1001.708     -4.044    515.353   1001.226    515.353    515.767    515.353
 34.070   1115.000   1066.953     48.047    515.119   1066.486    515.119    515.527    515.119
 34.170   1070.653   1017.967     52.686    514.887   1017.535    514.887    515.288    514.887
 34.270    969.000    890.971     78.029    514.656    890.570    514.656    515.052    514.656
 34.370    765.000    754.736     10.264    514.427    754.353    514.427    514.817    514.427
 34.470    621.000    651.281    -30.281    514.199    650.904    514.199    514.584    514.199
 34.570    603.000    588.851     14.149    513.972    588.476    513.972    514.352    513.972
 34.670    551.659    556.915     -5.257    513.746    556.541    513.746    514.122    513.746
 34.770    552.000    541.817     10.183    513.522    541.444    513.522    513.894    513.522
 34.870    563.000    534.314     28.686    513.298    533.945    513.298    513.668    513.298
 34.970    526.000    529.940     -3.940    513.077    529.573    513.077    513.443    513.077
 35.070    555.615    526.944     28.671    512.856    526.580    512.856    513.220    512.856
 35.170    541.000    524.688     16.312    512.637    524.327    512.637    512.998    512.637
 35.270    523.411    522.909      0.503    512.420    522.549    512.420    512.778    512.420
 35.370    514.000    521.466     -7.466    512.203    521.109    512.203    512.560    512.203
 35.470    480.558    520.272    -39.714    511.988    519.917    511.988    512.343    511.988
 35.570    488.000    519.267    -31.267    511.774    518.913    511.774    512.128    511.774
 35.670    492.000    518.406    -26.406    511.562    518.054    511.562    511.914    511.562
 35.770    526.000    517.661      8.339    511.351    517.309    511.351    511.702    511.351
 35.870    471.723    517.006    -45.283    511.142    516.656    511.142    511.492    511.142
 35.970    483.859    516.426    -32.567    510.934    516.077    510.934    511.283    510.934
 36.070    555.000    515.908     39.092    510.727    515.559    510.727    511.076    510.727
 36.170    541.673    515.443     26.231    510.521    515.094    510.521    510.870    510.521
 36.270    506.000    515.022     -9.022    510.318    514.674    510.318    510.666    510.318
 36.370    521.319    514.643      6.677    510.115    514.294    510.115    510.463    510.115
 36.470    517.000    514.300      2.700    509.914    513.952    509.914    510.262    509.914
 36.570    517.314    513.994      3.320    509.714    513.646    509.714    510.063    509.714
 36.670    487.366    513.726    -26.360    509.516    513.377    509.516    509.865    509.516
 36.770    511.000    513.501     -2.501    509.319    513.152    509.319    509.668    509.319
 36.870    515.000    513.340      1.660    509.124    512.990    509.124    509.474    509.124
 36.970    551.712    513.294     38.418    508.930    512.943    508.930    509.280    508.930
 37.070    502.000    513.486    -11.486    508.737    513.135    508.737    509.089    508.737
 37.170    478.654    514.155    -35.501    508.546    513.803    508.546    508.899    508.546
 37.270    504.000    515.641    -11.641    508.357    515.288    508.357    508.710    508.357
 37.370    546.639    518.225     28.414    508.168    517.871    508.168    508.523    508.168
 37.470    501.849    521.818    -19.969    507.982    521.464    507.982    508.338    507.982
 37.570    526.000    525.601      0.399    507.797    525.246    507.797    508.154    507.797
 37.670    534.000    527.984      6.016    507.613    527.629    507.613    507.972    507.613
 37.770    572.000    527.631     44.369    507.431    527.276    507.431    507.791    507.431
 37.870    516.177    524.885     -8.708    507.250    524.531    507.250    507.612    507.250
 37.970    549.000    521.204     27.796    507.071    520.850    507.071    507.435    507.071
 38.070    548.000    517.720     30.280    506.893    517.364    506.893    507.259    506.893
 38.170    494.425    514.881    -20.456    506.716    514.522    506.716    507.085    506.716
 38.270    520.788    512.784      8.005    506.542    512.420    506.542    506.912    506.542
 38.370    520.357    511.345      9.012    506.368    510.977    506.368    506.741    506.368
 38.470    491.000    510.396    -19.396    506.197    510.023    506.197    506.572    506.197
 38.570    502.000    509.772     -7.772    506.026    509.396    506.026    506.404    506.026
 38.670    510.000    509.346      0.654    505.857    508.966    505.857    506.238    505.857
 38.770    497.000    509.029    -12.029    505.690    508.646    505.690    506.074    505.690
 38.870    496.000    508.772    -12.772    505.524    508.386    505.524    505.911    505.524
 38.970    531.930    508.547     23.383    505.360    508.158    505.360    505.749    505.360
 39.070    527.000    508.343     18.657    505.198    507.951    505.198    505.590    505.198
 39.170    468.000    508.155    -40.155    505.036    507.760    505.036    505.432    505.036
 39.270    542.389    507.979     34.410    504.877    507.581    504.877    505.275    504.877
 39.370    504.000    507.814     -3.814    504.719    507.412    504.719    505.121    504.719
 39.470    502.000    507.659     -5.659    504.562    507.253    504.562    504.968    504.562
 39.570    554.000    507.511     46.489    504.407    507.102    504.407    504.816    504.407
 39.670    533.232    507.373     25.859    504.253    506.959    504.253    504.667    504.253
 39.770    516.000    507.242      8.758    504.101    506.824    504.101    504.519    504.101
 39.870    478.000    507.118    -29.118    503.951    506.697    503.951    504.372    503.951
 39.970    538.564    507.003     31.561    503.802    506.578    503.802    504.228    503.802
 40.070    476.000    506.896    -30.896    503.655    506.466    503.655    504.085    503.655
 40.170    510.000    506.797      3.203    503.509    506.363    503.509    503.943    503.509
 40.270    488.000    506.708    -18.708    503.365    506.269    503.365    503.804    503.365
 40.370    525.000    506.628     18.372    503.222    506.184    503.222    503.666    503.222
 40.470    516.167    506.559      9.608    503.081    506.111    503.081    503.529    503.081
 40.570    495.000    506.503    -11.503    502.941    506.049    502.941    503.395    502.941
 40.670    515.000    506.460      8.540    502.803    506.001    502.803    503.262    502.803
 40.770    475.000    506.433    -31.433    502.667    505.969    502.667    503.131    502.667
 40.870    500.000    506.425     -6.425    502.532    505.955    502.532    503.002    502.532
 40.970    489.000    506.439    -17.439    502.398    505.964    502.398    502.874    502.398
 41.070    483.000    506.480    -23.480    502.266    505.999    502.266    502.748    502.266
 41.170    486.000    506.554    -20.554    502.136    506.067    502.136    502.624    502.136
 41.270    529.548    506.669     22.880    502.007    506.175    502.007    502.502    502.007
 41.370    507.312    506.835      0.477    501.880    506.335    501.880    502.381    501.880
 41.470    489.000    507.070    -18.070    501.755    506.563    501.755    502.262    501.755
 41.570    540.299    507.396     32.903    501.630    506.883    501.630    502.145    501.630
 41.670    463.903    507.860    -43.957    501.508    507.340    501.508    502.030    501.508
 41.770    524.899    508.560     16.339    501.387    508.032    501.387    501.917    501.387
 41.870    529.000    509.737     19.263    501.268    509.202    501.268    501.805    501.268
 41.970    469.000    511.948    -42.948    501.150    511.406    501.150    501.695    501.150
 42.070    546.742    516.313     30.429    501.033    515.765    501.033    501.587    501.033
 42.170    504.000    524.626    -20.626    500.919    524.073    500.919    501.481    500.919
 42.270    537.000    538.949     -1.949    500.806    538.394    500.806    501.377    500.806
 42.370    505.000    560.365    -55.365    500.694    559.810    500.694    501.275    500.694
 42.470    564.000    587.104    -23.104    500.584    586.553    500.584    501.174    500.584
 42.570    600.000    612.926    -12.926    500.475    612.380    500.475    501.075    500.475
 42.670    653.000    627.700     25.300    500.368    627.154    500.368    500.979    500.368
 42.770    645.088    623.698     21.390    500.263    623.142    500.263    500.884    500.263
 42.870    585.000    603.272    -18.272    500.159    602.696    500.159    500.791    500.159
 42.970    589.995    576.064     13.931    500.057    575.463    500.057    500.701    500.057
 43.070    596.222    550.897     45.325    499.956    550.271    499.956    500.612    499.956
 43.170    506.266    532.138    -25.873    499.857    531.488    499.857    500.525    499.857
 43.270    540.000    520.232     19.768    499.759    519.561    499.759    500.441    499.759
 43.370    527.405    513.542     13.862    499.663    512.854    499.663    500.358    499.663
 43.470    545.711    510.036     35.676    499.569    509.330    499.569    500.278    499.569
 43.570    543.669    508.182     35.487    499.476    507.461    499.476    500.200    499.476
 43.670    502.000    507.107     -5.107    499.384    506.369    499.384    500.123    499.384
 43.770    521.000    506.398     14.602    499.294    505.644    499.294    500.050    499.294
 43.870    511.167    505.881      5.286    499.206    505.110    499.206    499.978    499.206
 43.970    516.726    505.484     11.243    499.119    504.695    499.119    499.909    499.119
 44.070    520.000    505.170     14.830    499.034    504.362    499.034    499.842    499.034
 44.170    468.000    504.920    -36.920    498.950    504.093    498.950    499.778    498.950
 44.270    528.000    504.720     23.280    498.868    503.872    498.868    499.716    498.868
 44.370    527.000    504.561     22.439    498.787    503.692    498.787    499.656    498.787
 44.470    511.000    504.435      6.565    498.708    503.543    498.708    499.599    498.708
 44.570    489.455    504.338    -14.883    498.630    503.423    498.630    499.545    498.630
 44.670    444.000    504.266    -60.266    498.554    503.326    498.554    499.494    498.554
 44.770    511.000    504.216      6.784    498.479    503.250    498.479    499.446    498.479
 44.870    480.000    504.186    -24.186    498.406    503.192    498.406    499.400    498.406
 44.970    511.000    504.175      6.825    498.334    503.151    498.334    499.358    498.334
 45.070    462.000    504.182    -42.182    498.264    503.127    498.264    499.319    498.264
 45.170    514.000    504.206      9.794    498.196    503.118    498.196    499.284    498.196
 45.270    560.000    504.246     55.754    498.128    503.123    498.128    499.251    498.128
 45.370    485.000    504.304    -19.304    498.063    503.144    498.063    499.223    498.063
 45.470    534.000    504.380     29.620    497.999    503.179    497.999    499.199    497.999
 45.570    501.000    504.473     -3.473    497.936    503.231    497.936    499.179    497.936
 45.670    496.000    504.586     -8.586    497.875    503.298    497.875    499.163    497.875
 45.770    514.188    504.720      9.468    497.815    503.383    497.815    499.152    497.815
 45.870    482.000    504.876    -22.876    497.757    503.487    497.757    499.146    497.757
 45.970    539.511    505.057     34.454    497.701    503.612    497.701    499.145    497.701
 46.070    500.000    505.266     -5.266    497.645    503.760    497.645    499.151    497.645
 46.170    524.442    505.506     18.936    497.592    503.935    497.592    499.162    497.592
 46.270    448.000    505.782    -57.782    497.539    504.140    497.539    499.181    497.539
 46.370    479.002    506.100    -27.098    497.489    504.381    497.489    499.207    497.489
 46.470    547.000    506.467     40.533    497.439    504.664    497.439    499.241    497.439
 46.570    476.000    506.895    -30.895    497.391    505.001    497.391    499.285    497.391
 46.670    473.147    507.398    -34.252    497.345    505.404    497.345    499.338    497.345
 46.770    494.000    508.005    -14.005    497.300    505.900    497.300    499.403    497.300
 46.870    494.000    508.769    -14.769    497.257    506.543    497.257    499.480    497.257
 46.970    513.701    509.814      3.887    497.215    507.454    497.215    499.572    497.215
 47.070    526.000    511.409     14.591    497.174    508.899    497.174    499.680    497.174
 47.170    487.339    514.075    -26.736    497.135    511.398    497.135    499.806    497.135
 47.270    532.000    518.664     13.336    497.097    515.798    497.097    499.954    497.097
 47.370    546.000    526.251     19.749    497.061    523.172    497.061    500.126    497.061
 47.470    525.000    537.705    -12.705    497.026    534.381    497.026    500.327    497.026
 47.570    507.000    552.962    -45.962    496.992    549.360    496.992    500.561    496.992
 47.670    594.103    570.185     23.918    496.960    566.264    496.960    500.835    496.960
 47.770    596.000    585.324     10.676    496.929    581.040    496.929    501.158    496.929
 47.870    634.000    592.973     41.027    496.900    588.274    496.900    501.540    496.900
 47.970    551.000    589.934    -38.934    496.872    584.754    496.872    501.998    496.872
 48.070    591.620    578.396     13.225    496.846    572.645    496.846    502.553    496.846
 48.170    559.000    563.648     -4.648    496.821    557.198    496.821    503.239    496.821
 48.270    555.000    550.266      4.734    496.797    542.936    496.797    504.106    496.797
 48.370    531.543    540.722     -9.179    496.775    532.257    496.775    505.226    496.775
 48.470    559.030    535.608     23.422    496.754    525.648    496.754    506.705    496.754
 48.570    531.000    534.408     -3.408    496.734    522.454    496.734    508.682    496.734
 48.670    516.002    536.293    -20.291    496.716    521.668    496.716    511.336    496.716
 48.770    572.000    540.633     31.367    496.699    522.452    496.699    514.875    496.699
 48.870    521.000    547.151    -26.151    496.683    524.317    496.683    519.513    496.683
 48.970    514.282    555.870    -41.589    496.669    527.106    496.669    525.428    496.669
 49.070    561.000    567.022     -6.022    496.656    530.972    496.656    532.700    496.656
 49.170    567.000    581.123    -14.123    496.645    536.541    496.645    541.218    496.645
 49.270    605.000    599.476      5.524    496.634    545.569    496.634    550.531    496.634
 49.370    624.498    625.555     -1.057    496.626    562.500    496.626    559.664    496.626
 49.470    676.000    667.688      8.312    496.618    597.239    496.618    567.040    496.618
 49.570    737.251    742.581     -5.329    496.612    668.313    496.612    570.831    496.612
 49.670    925.000    876.641     48.359    496.607    803.277    496.607    569.889    496.607
 49.770   1127.650   1099.220     28.430    496.603   1031.167    496.603    564.532    496.603
 49.870   1440.000   1423.913     16.087    496.601   1364.052    496.601    556.296    496.601
 49.970   1807.000   1823.532    -16.532    496.600   1772.975    496.600    546.976    496.600
 50.070   2188.000   2214.829    -26.829    496.600   2173.366    496.600    537.918    496.600
 50.170   2516.000   2472.553     43.447    496.601   2439.230    496.601    529.871    496.601
 50.270   2397.000   2489.462    -92.462    496.604   2462.993    496.604    523.140    496.604
 50.370   2249.247   2255.220     -5.973    496.608   2234.236    496.608    517.750    496.608
 50.470   1832.450   1866.584    -34.134    496.613   1849.813    496.613    513.575    496.613
 50.570   1364.000   1453.244    -89.244    496.620   1439.621    496.620    510.418    496.620
 50.670   1043.000   1109.363    -66.363    496.628   1098.062    496.628    508.064    496.628
 50.770    866.403    872.513     -6.111    496.637    862.928    496.637    506.315    496.637
 50.870    721.000    734.592    -13.592    496.647    726.295    496.647    505.007    496.647
 50.970    640.000    665.319    -25.319    496.658    658.011    496.658    504.013    496.658
 51.070    598.000    632.711    -34.711    496.671    626.178    496.671    503.243    496.671
 51.170    649.245    613.917     35.328    496.685    608.004    496.685    502.632    496.685
 51.270    600.000    597.737      2.263    496.700    592.327    496.700    502.139    496.700
 51.370    606.000    581.622     24.378    496.716    576.625    496.716    501.735    496.716
 51.470    540.295    566.682    -26.387    496.733    562.032    496.733    501.400    496.733
 51.570    559.000    554.360      4.640    496.752    550.003    496.752    501.120    496.752
 51.670    533.000    545.299    -12.299    496.772    541.192    496.772    500.886    496.772
 51.770    568.000    539.332     28.668    496.793    535.439    496.793    500.691    496.793
 51.870    582.000    535.826     46.174    496.815    532.117    496.815    500.527    496.815
 51.970    565.000    534.076     30.924    496.838    530.525    496.838    500.391    496.838
 52.070    508.733    533.544    -24.810    496.862    530.129    496.862    500.280    496.862
 52.170    542.000    533.940      8.060    496.888    530.640    496.888    500.189    496.888
 52.270    553.884    535.215     18.669    496.915    532.014    496.915    500.117    496.915
 52.370    510.000    537.590    -27.590    496.942    534.472    496.942    500.062    496.942
 52.470    529.000    541.709    -12.709    496.971    538.659    496.971    500.021    496.971
 52.570    570.641    549.001     21.640    497.001    546.008    497.001    499.994    497.001
 52.670    603.000    562.246     40.754    497.033    559.298    497.033    499.980    497.033
 52.770    601.000    586.119     14.881    497.065    583.205    497.065    499.976    497.065
 52.870    660.000    627.175     32.825    497.098    624.285    497.098    499.983    497.098
 52.970    723.000    692.511     30.489    497.132    689.637    497.132    500.000    497.132
 53.070    801.000    786.633     14.367    497.168    783.766    497.168    500.026    497.168
 53.170    872.056    907.021    -34.965    497.204    904.155    497.204    500.061    497.204
 53.270   1017.399   1039.893    -22.494    497.242   1037.025    497.242    500.105    497.242
 53.370   1159.000   1158.264      0.736    497.280   1155.391    497.280    500.156    497.280
 53.470   1244.454   1226.803     17.651    497.320   1223.921    497.320    500.216    497.320
 53.570   1146.000   1219.578    -73.578    497.361   1216.682    497.361    500.284    497.361
 53.670   1146.000   1139.857      6.143    497.402   1136.935    497.402    500.359    497.402
 53.770    953.000   1017.059    -64.059    497.445   1014.098    497.445    500.442    497.445
 53.870    900.963    885.649     15.315    497.489    882.635    497.489    500.534    497.489
 53.970    805.082    770.177     34.904    497.534    767.102    497.534    500.633    497.534
 54.070    661.000    682.106    -21.106    497.579    678.962    497.579    500.740    497.579
 54.170    658.171    622.329     35.842    497.626    619.110    497.626    500.856    497.626
 54.270    544.386    585.585    -41.200    497.674    582.284    497.674    500.981    497.674
 54.370    565.000    564.726      0.274    497.722    561.337    497.722    501.115    497.722
 54.470    555.000    553.510      1.490    497.772    550.025    497.772    501.258    497.772
 54.570    535.000    547.638    -12.638    497.822    544.050    497.822    501.412    497.822
 54.670    555.000    544.621     10.379    497.874    540.920    497.874    501.576    497.874
 54.770    541.655    543.195     -1.540    497.926    539.370    497.926    501.752    497.926
 54.870    544.356    542.782      1.575    497.979    538.822    497.979    501.939    497.979
 54.970    595.000    543.139     51.861    498.034    539.033    498.034    502.140    498.034
 55.070    589.258    544.180     45.078    498.089    539.914    498.089    502.355    498.089
 55.170    578.000    545.891     32.109    498.145    541.451    498.145    502.585    498.145
 55.270    556.476    548.312      8.164    498.202    543.682    498.202    502.832    498.202
 55.370    510.281    551.533    -41.252    498.259    546.695    498.259    503.097    498.259
 55.470    533.000    555.721    -22.721    498.318    550.657    498.318    503.382    498.318
 55.570    595.000    561.202     33.798    498.378    555.890    498.378    503.689    498.378
 55.670    549.000    568.655    -19.655    498.438    563.072    498.438    504.021    498.438
 55.770    565.000    579.558    -14.558    498.499    573.677    498.499    504.379    498.499
 55.870    585.966    597.029    -11.063    498.561    590.819    498.561    504.768    498.561
 55.970    644.000    627.153     16.847    498.624    620.580    498.624    505.190    498.624
 56.070    651.000    680.497    -29.497    498.688    673.521    498.688    505.651    498.688
 56.170    779.095    772.843      6.252    498.752    765.416    498.752    506.155    498.752
 56.270    919.000    923.467     -4.467    498.818    915.538    498.818    506.707    498.818
 56.370   1130.000   1149.364    -19.364    498.884   1140.877    498.884    507.315    498.884
 56.470   1385.733   1455.439    -69.706    498.951   1446.335    498.951    507.988    498.951
 56.570   1761.308   1823.416    -62.109    499.019   1813.636    499.019    508.734    499.019
 56.670   2206.670   2203.978      2.691    499.087   2193.460    499.087    509.565    499.087
 56.770   2443.000   2517.407    -74.407    499.156   2506.080    499.156    510.497    499.156
 56.870   2770.609   2673.155     97.455    499.226   2660.929    499.226    511.548    499.226
 56.970   2560.000   2617.096    -57.096    499.297   2603.831    499.297    512.741    499.297
 57.070   2393.000   2371.301     21.699    499.368   2356.795    499.368    514.110    499.368
 57.170   1981.000   2015.729    -34.729    499.440   1999.718    499.440    515.699    499.440
 57.270   1689.000   1638.497     50.503    499.513   1620.660    499.513    517.572    499.513
 57.370   1265.000   1304.020    -39.020    499.587   1283.958    499.587    519.826    499.587
 57.470   1029.000   1044.830    -15.830    499.661   1022.021    499.661    522.598    499.661
 57.570    864.000    866.086     -2.086    499.736    839.818    499.736    526.086    499.736
 57.670    770.000    755.824     14.176    499.811    725.115    499.811    530.570    499.811
 57.770    743.000    695.980     47.020    499.888    659.476    499.888    536.416    499.888
 57.870    619.265    670.380    -51.115    499.965    626.264    499.965    544.090    499.965
 57.970    642.000    668.443    -26.443    500.042    614.347    500.042    554.136    500.042
 58.070    656.685    685.454    -28.769    500.120    618.428    500.120    567.133    500.120
 58.170    738.621    720.986     17.635    500.199    637.532    500.199    583.629    500.199
 58.270    803.380    776.612     26.768    500.278    672.829    500.278    604.026    500.278
 58.370    812.334    853.618    -41.284    500.358    725.480    500.358    628.449    500.358
 58.470    907.709    950.838    -43.129    500.439    794.671    500.439    656.549    500.439
 58.570   1093.229   1063.110     30.119    500.520    876.327    500.520    687.242    500.520
 58.670   1206.864   1180.664     26.199    500.602    962.864    500.602    718.343    500.602
 58.770   1277.000   1290.527    -13.527    500.684   1044.897    500.684    746.266    500.684
 58.870   1387.000   1379.668      7.332    500.767   1114.133    500.767    766.268    500.767
 58.970   1419.655   1437.048    -17.392    500.851   1164.010    500.851    773.874    500.851
 59.070   1451.396   1454.377     -2.981    500.935   1188.184    500.935    767.132    500.935
 59.170   1443.000   1429.381     13.619    501.019   1182.586    501.019    747.833    501.019
 59.270   1329.703   1369.991    -40.288    501.104   1150.738    501.104    720.379    501.104
 59.370   1373.000   1292.714     80.286    501.190   1104.380    501.190    689.534    501.190
 59.470   1301.000   1215.888     85.112    501.276   1058.200    501.276    658.950    501.276
 59.570   1099.544   1155.733    -56.189    501.363   1026.173    501.363    630.875    501.363
 59.670   1147.000   1126.733     20.267    501.450   1021.651    501.450    606.442    501.450
 59.770   1201.000   1140.551     60.449    501.537   1055.918    501.537    586.029    501.537
 59.870   1304.000   1200.983    103.017    501.625   1132.880    501.625    569.533    501.625
 59.970   1338.000   1299.059     38.941    501.714   1243.964    501.714    556.561    501.714
 60.070   1466.000   1411.620     54.380    501.802   1366.563    501.802    546.573    501.802
 60.170   1600.000   1504.133     95.867    501.892   1466.737    501.892    538.990    501.892
 60.270   1530.000   1540.066    -10.066    501.982   1508.507    501.982    533.266    501.982
 60.370   1568.103   1498.145     69.958    502.072   1471.059    502.072    528.934    502.072
 60.470   1419.398   1385.169     34.229    502.162   1361.548    502.162    525.625    502.162
 60.570   1265.186   1229.425     35.761    502.253   1208.520    502.253    523.060    502.253
 60.670   1044.684   1063.809    -19.125    502.344   1045.058    502.344    521.043    502.344
 60.770    927.000    914.143     12.857    502.436    897.118    502.436    519.437    502.436
 60.870    746.264    795.080    -48.816    502.528    779.446    502.528    518.152    502.528
 60.970    661.215    710.804    -49.589    502.621    696.290    502.621    517.129    502.621
 61.070    667.004    658.486      8.517    502.713    644.865    502.713    516.327    502.713
 61.170    582.998    632.690    -49.692    502.806    619.767    502.806    515.717    502.806
 61.270    594.000    629.086    -35.086    502.900    616.692    502.900    515.273    502.900
 61.370    635.000    646.498    -11.498    502.994    634.488    502.994    514.971    502.994
 61.470    714.000    687.077     26.923    503.088    675.333    503.088    514.781    503.088
 61.570    788.000    754.732     33.268    503.182    743.175    503.182    514.665    503.182
 61.670    809.951    852.227    -42.276    503.277    840.829    503.277    514.569    503.277
 61.770    972.000    977.622     -5.622    503.371    966.423    503.371    514.434    503.371
 61.870   1096.000   1121.163    -25.163    503.467   1110.264    503.467    514.200    503.467
 61.970   1267.000   1263.772      3.228    503.562   1253.312    503.562    513.837    503.562
 62.070   1412.000   1378.356     33.644    503.658   1368.477    503.658    513.353    503.658
 62.170   1452.750   1436.299     16.451    503.753   1427.105    503.753    512.788    503.753
 62.270   1321.000   1420.299    -99.299    503.850   1411.837    503.850    512.192    503.850
 62.370   1316.389   1335.040    -18.651    503.946   1327.303    503.946    511.609    503.946
 62.470   1223.000   1203.868     19.132    504.042   1196.808    504.042    511.069    504.042
 62.570   1118.872   1055.795     63.077    504.139   1049.340    504.139    510.586    504.139
 62.670    866.999    915.067    -48.069    504.236    909.141    504.236    510.169    504.236
 62.770    811.392    796.929     14.462    504.333    791.458    504.333    509.817    504.333
 62.870    701.000    707.438     -6.438    504.430    702.353    504.430    509.526    504.430
 62.970    695.302    645.520     49.781    504.528    640.765    504.528    509.290    504.528
 63.070    651.755    606.040     45.715    504.625    601.565    504.625    509.102    504.625
 63.170    601.000    582.688     18.312    504.723    578.455    504.723    508.955    504.723
 63.270    575.000    569.937      5.063    504.821    565.914    504.821    508.840    504.821
 63.370    574.000    563.925     10.075    504.918    560.086    504.918    508.753    504.918
 63.470    578.000    562.571     15.429    505.016    558.893    505.016    508.687    505.016
 63.570    575.415    565.360     10.056    505.115    561.825    505.115    508.639    505.115
 63.670    574.000    573.073      0.927    505.213    569.665    505.213    508.606    505.213
 63.770    541.188    587.505    -46.317    505.311    584.209    505.311    508.586    505.311
 63.870    645.432    611.096     34.336    505.409    607.898    505.409    508.575    505.409
 63.970    703.000    646.300     56.700    505.508    643.188    505.508    508.574    505.508
 64.070    683.041    694.672    -11.630    505.606    691.633    505.606    508.581    505.606
 64.170    782.000    755.748     26.252    505.704    752.772    505.704    508.596    505.704
 64.270    847.000    826.020     20.980    505.803    823.101    505.803    508.616    505.803
 64.370    917.000    898.287     18.713    505.901    895.422    505.901    508.643    505.901
 64.470    953.000    961.923     -8.923    506.000    959.114    506.000    508.675    506.000
 64.570    983.000   1005.133    -22.133    506.098   1002.387    506.098    508.712    506.098
 64.670   1053.000   1019.550     33.450    506.197   1016.875    506.197    508.754    506.197
 64.770    979.861   1003.978    -24.117    506.295   1001.379    506.295    508.800    506.295
 64.870   1030.000    963.901     66.099    506.393    961.378    506.393    508.850    506.393
 64.970    927.000    908.509     18.491    506.492    906.060    506.492    508.904    506.492
 65.070    864.000    847.671     16.329    506.590    845.286    506.590    508.962    506.590
 65.170    769.000    789.279    -20.279    506.688    786.951    506.688    509.023    506.688
 65.270    676.000    737.798    -61.798    506.786    735.517    506.786    509.087    506.786
 65.370    693.020    694.552     -1.532    506.884    692.307    506.884    509.154    506.884
 65.470    658.000    659.138     -1.138    506.982    656.922    506.982    509.224    506.982
 65.570    618.000    630.718    -12.718    507.080    628.524    507.080    509.296    507.080
 65.670    652.848    608.455     44.393    507.178    606.278    507.178    509.372    507.178
 65.770    614.896    591.504     23.392    507.275    589.342    507.275    509.449    507.275
 65.870    588.558    579.041      9.517    507.373    576.891    507.373    509.530    507.373
 65.970    584.606    570.304     14.302    507.470    568.165    507.470    509.612    507.470
 66.070    574.000    564.617      9.383    507.567    562.487    507.567    509.697    507.567
 66.170    522.000    561.389    -39.389    507.664    559.268    507.664    509.785    507.664
 66.270    519.705    560.129    -40.424    507.761    558.015    507.761    509.874    507.761
 66.370    603.836    560.474     43.362    507.858    558.365    507.858    509.966    507.858
 66.470    577.000    562.227     14.773    507.954    560.121    507.954    510.060    507.954
 66.570    567.917    565.426      2.491    508.050    563.321    508.050    510.156    508.050
 66.670    529.006    570.453    -41.447    508.146    568.345    508.146    510.254    508.146
 66.770    541.405    578.240    -36.835    508.242    576.128    508.242    510.355    508.242
 66.870    593.673    590.613      3.060    508.337    588.493    508.337    510.457    508.337
 66.970    615.000    610.759      4.241    508.433    608.628    508.433    510.562    508.433
 67.070    621.000    643.726    -22.726    508.528    641.579    508.528    510.670    508.528
 67.170    675.000    696.710    -21.710    508.622    694.543    508.622    510.780    508.622
 67.270    742.000    778.747    -36.747    508.717    776.557    508.717    510.892    508.717
 67.370    901.319    899.398      1.921    508.811    897.182    508.811    511.006    508.811
 67.470   1109.000   1066.209     42.791    508.905   1063.968    508.905    511.124    508.905
 67.570   1254.000   1281.195    -27.195    508.999   1278.932    508.999    511.244    508.999
 67.670   1500.474   1537.140    -36.665    509.092   1534.862    509.092    511.367    509.092
 67.770   1862.632   1814.830     47.801    509.185   1812.550    509.185    511.493    509.185
 67.870   2121.341   2082.260     39.080    509.277   2079.990    509.277    511.623    509.277
 67.970   2285.000   2297.237    -12.237    509.370   2294.989    509.370    511.756    509.370
 68.070   2415.000   2416.278     -1.278    509.461   2414.055    509.461    511.892    509.461
 68.170   2373.000   2410.972    -37.972    509.553   2408.764    509.553    512.033    509.553
 68.270   2218.000   2282.768    -64.768    509.644   2280.545    509.644    512.177    509.644
 68.370   2070.000   2062.073      7.927    509.735   2059.800    509.735    512.327    509.735
 68.470   1767.427   1792.743    -25.316    509.825   1790.385    509.825    512.481    509.825
 68.570   1482.000   1516.300    -34.300    509.915   1513.832    509.915    512.640    509.915
 68.670   1268.000   1263.698      4.302    510.005   1261.106    510.005    512.805    510.005
 68.770   1008.000   1053.073    -45.073    510.094   1050.349    510.094    512.977    510.094
 68.870    940.258    890.739     49.519    510.183    887.881    510.183    513.155    510.183
 68.970    757.000    774.075    -17.075    510.271    771.083    510.271    513.341    510.271
 69.070    783.000    695.246     87.754    510.359    692.121    510.359    513.535    510.359
 69.170    617.282    644.662    -27.380    510.446    641.403    510.446    513.738    510.446
 69.270    643.000    613.408     29.592    510.533    610.011    510.533    513.951    510.533
 69.370    610.000    594.460     15.540    510.619    590.918    510.619    514.176    510.619
 69.470    613.000    582.925     30.075    510.705    579.227    510.705    514.412    510.705
 69.570    543.523    575.715    -32.192    510.791    571.850    510.791    514.663    510.791
 69.670    564.000    571.040     -7.040    510.876    566.991    510.876    514.929    510.876
 69.770    537.785    567.927    -30.142    510.960    563.678    510.960    515.213    510.960
 69.870    586.000    565.876     20.124    511.044    561.407    511.044    515.516    511.044
 69.970    538.032    564.639    -26.607    511.127    559.927    511.127    515.841    511.127
 70.070    600.367    564.103     36.265    511.210    559.122    511.210    516.191    511.210
 70.170    580.000    564.233     15.767    511.292    558.955    511.292    516.570    511.292
 70.270    563.000    565.063     -2.063    511.374    559.455    511.374    516.981    511.374
 70.370    559.000    566.713     -7.713    511.455    560.736    511.455    517.430    511.455
 70.470    612.000    569.446     42.554    511.536    563.054    511.536    517.924    511.536
 70.570    567.000    573.771     -6.771    511.616    566.911    511.616    518.470    511.616
 70.670    547.843    580.615    -32.772    511.695    573.224    511.695    519.078    511.695
 70.770    564.000    591.548    -27.548    511.774    583.546    511.774    519.763    511.774
 70.870    574.000    609.055    -35.055    511.852    600.341    511.852    520.547    511.852
 70.970    613.000    636.741    -23.741    511.930    627.184    511.930    521.457    511.930
 71.070    686.000    679.350      6.650    512.006    668.773    512.006    522.540    512.006
 71.170    742.000    742.406     -0.406    512.083    730.567    512.083    523.858    512.083
 71.270    804.000    831.307    -27.307    512.158    817.872    512.158    525.504    512.158
 71.370    947.601    949.858     -2.258    512.233    934.364    512.233    527.609    512.233
 71.470   1103.000   1098.432      4.568    512.307   1080.240    512.307    530.349    512.307
 71.570   1236.000   1272.166    -36.166    512.381   1250.414    512.381    533.951    512.381
 71.670   1475.351   1459.692     15.659    512.454   1433.245    512.454    538.693    512.454
 71.770   1603.000   1642.836    -39.836    512.526   1610.247    512.526    544.894    512.526
 71.870   1806.000   1797.874      8.126    512.598   1757.370    512.598    552.883    512.598
 71.970   1932.000   1899.591     32.409    512.668   1849.097    512.668    562.965    512.668
 72.070   1957.172   1929.122     28.050    512.739   1866.337    512.739    575.360    512.739
 72.170   1815.566   1882.530    -66.964    512.808   1805.076    512.808    590.139    512.808
 72.270   1792.000   1772.962     19.038    512.876   1678.607    512.876    607.146    512.876
 72.370   1589.807   1623.949    -34.142    512.944   1510.920    512.944    625.919    512.944
 72.470   1513.000   1460.148     52.852    513.011   1327.536    513.011    645.591    513.011
 72.570   1335.061   1301.394     33.667    513.078   1149.647    513.078    664.806    513.078
 72.670   1131.000   1160.411    -29.411    513.143    991.860    513.143    681.681    513.143
 72.770   1106.513   1042.748     63.765    513.208    861.952    513.208    693.994    513.208
 72.870    953.739    948.234      5.505    513.272    761.781    513.272    699.715    513.272
 72.970    830.951    873.386    -42.435    513.335    688.933    513.335    697.778    513.335
 73.070    736.000    813.795    -77.795    513.398    638.602    513.398    688.580    513.398
 73.170    766.683    765.600      1.082    513.459    605.270    513.459    673.779    513.459
 73.270    668.000    725.938    -57.938    513.520    583.865    513.520    655.583    513.520
 73.370    671.000    692.853    -21.853    513.580    570.355    513.580    636.070    513.580
 73.470    617.240    665.095    -47.855    513.639    561.873    513.639    616.855    513.639
 73.570    570.000    641.917    -71.917    513.697    556.578    513.697    599.034    513.697
 73.670    593.683    622.884    -29.202    513.755    553.385    513.755    583.254    513.755
 73.770    635.000    607.711     27.289    513.811    551.713    513.811    569.812    513.811
 73.870    590.124    596.126     -6.002    513.867    551.261    513.867    558.739    513.867
 73.970    584.000    587.798     -3.798    513.922    551.853    513.922    549.879    513.922
 74.070    589.000    582.290      6.710    513.976    553.322    513.976    542.961    513.976
 74.170    612.000    579.055     32.945    514.029    555.444    514.029    537.663    514.029
 74.270    558.933    577.446    -18.512    514.081    557.900    514.081    533.656    514.081
 74.370    611.988    576.742     35.246    514.132    560.267    514.132    530.642    514.132
 74.470    672.000    576.197     95.803    514.182    562.053    514.182    528.367    514.182
 74.570    645.000    575.142     69.858    514.232    562.786    514.232    526.631    514.232
 74.670    578.000    573.127      4.873    514.280    562.169    514.280    525.282    514.280
 74.770    623.000    570.056     52.944    514.328    560.216    514.328    524.210    514.328
 74.870    534.281    566.174    -31.893    514.374    557.248    514.374    523.338    514.374
 74.970    536.390    561.934    -25.543    514.420    553.773    514.420    522.613    514.420
 75.070    601.000    557.852     43.148    514.465    550.344    514.465    521.998    514.465
 75.170    566.000    554.436     11.564    514.508    547.493    514.508    521.470    514.508
 75.270    591.000    552.167     38.833    514.551    545.721    514.551    521.010    514.551
 75.370    553.000    551.521      1.479    514.593    545.514    514.593    520.607    514.593
 75.470    510.000    552.988    -42.988    514.634    547.373    514.634    520.250    514.634
 75.570    519.949    557.086    -37.137    514.673    551.820    514.673    519.934    514.673
 75.670    609.623    564.327     45.296    514.712    559.375    514.712    519.653    514.712
 75.770    600.429    575.142     25.287    514.750    570.472    514.750    519.402    514.750
 75.870    586.517    589.738     -3.221    514.787    585.323    514.787    519.176    514.787
 75.970    599.000    607.942     -8.942    514.822    603.756    514.822    518.974    514.822
 76.070    667.587    629.035     38.552    514.857    625.058    514.857    518.791    514.857
 76.170    646.000    651.651     -5.651    514.891    647.863    514.891    518.627    514.891
 76.270    655.000    673.751    -18.751    514.923    670.137    514.923    518.478    514.923
 76.370    678.000    692.727    -14.727    514.955    689.275    514.955    518.342    514.955
 76.470    750.953    705.734     45.219    514.985    702.433    514.985    518.220    514.985
 76.570    719.000    710.392      8.608    515.015    707.235    515.015    518.108    515.015
 76.670    696.000    705.708     -9.708    515.043    702.687    515.043    518.005    515.043
 76.770    692.000    692.556     -0.556    515.070    689.664    515.070    517.912    515.070
 76.870    671.000    673.240     -2.240    515.097    670.470    515.097    517.826    515.097
 76.970    618.000    650.585    -32.585    515.122    647.928    515.122    517.747    515.122
 77.070    589.000    627.203    -38.203    515.146    624.651    515.146    517.675    515.146
 77.170    646.533    605.144     41.389    515.169    602.689    515.169    517.608    515.169
 77.270    594.573    585.773      8.800    515.191    583.407    515.191    517.546    515.191
 77.370    569.000    569.782     -0.782    515.211    567.499    515.211    517.487    515.211
 77.470    527.000    557.293    -30.293    515.231    555.086    515.231    517.433    515.231
 77.570    547.000    548.014     -1.014    515.249    545.877    515.249    517.383    515.249
 77.670    513.799    541.415    -27.616    515.267    539.342    515.267    517.337    515.267
 77.770    574.150    536.890     37.260    515.283    534.878    515.283    517.293    515.283
 77.870    530.033    533.868     -3.835    515.298    531.912    515.298    517.253    515.298
 77.970    534.265    531.876      2.389    515.312    529.973    515.312    517.214    515.312
 78.070    539.000    530.543      8.457    515.325    528.689    515.325    517.178    515.325
 78.170    514.000    529.637    -15.637    515.336    527.829    515.336    517.143    515.336
 78.270    524.000    529.030     -5.030    515.347    527.265    515.347    517.111    515.347
 78.370    524.693    528.604     -3.911    515.356    526.879    515.356    517.080    515.356
 78.470    499.000    528.311    -29.311    515.364    526.623    515.364    517.051    515.364
 78.570    508.000    528.125    -20.125    515.371    526.472    515.371    517.023    515.371
 78.670    524.000    528.042     -4.042    515.377    526.421    515.377    516.997    515.377
 78.770    491.498    528.070    -36.573    515.381    526.479    515.381    516.972    515.381
 78.870    509.263    528.228    -18.966    515.385    526.663    515.385    516.949    515.385
 78.970    506.000    528.543    -22.543    515.387    527.000    515.387    516.928    515.387
 79.070    488.000    529.045    -41.045    515.388    527.523    515.388    516.909    515.388
 79.170    565.952    529.770     36.182    515.388    528.263    515.388    516.893    515.388
 79.270    526.000    530.748     -4.748    515.386    529.253    515.386    516.879    515.386
 79.370    531.000    532.011     -1.011    515.383    530.522    515.383    516.869    515.383
 79.470    516.000    533.584    -17.584    515.379    532.097    515.379    516.863    515.379
 79.570    508.000    535.499    -27.499    515.374    534.008    515.374    516.860    515.374
 79.670    571.000    537.802     33.198    515.368    536.302    515.368    516.863    515.368
 79.770    517.788    540.572    -22.784    515.360    539.057    515.360    516.869    515.360
 79.870    519.000    543.939    -24.939    515.351    542.403    515.351    516.881    515.351
 79.970    561.801    548.115     13.686    515.341    546.554    515.341    516.896    515.341
 80.070    493.000    553.417    -60.417    515.330    551.828    515.330    516.914    515.330
 80.170    558.553    560.271     -1.718    515.317    558.650    515.317    516.935    515.317
 80.270    566.000    569.158     -3.158    515.303    567.506    515.303    516.954    515.303
 80.370    566.000    580.523    -14.523    515.288    578.842    515.288    516.971    515.288
 80.470    571.000    594.650    -23.650    515.272    592.946    515.272    516.980    515.272
 80.570    627.186    611.560     15.626    515.254    609.844    515.254    516.979    515.254
 80.670    608.000    630.925    -22.925    515.235    629.210    515.235    516.964    515.235
 80.770    611.000    652.031    -41.031    515.215    650.334    515.215    516.931    515.215
 80.870    700.290    673.802     26.488    515.193    672.138    515.193    516.883    515.193
 80.970    697.000    694.913      2.087    515.171    693.296    515.171    516.819    515.171
 81.070    687.000    713.979    -26.979    515.146    712.418    515.146    516.745    515.146
 81.170    671.000    729.734    -58.734    515.121    728.236    515.121    516.663    515.121
 81.270    714.000    741.146    -27.146    515.094    739.714    515.094    516.578    515.094
 81.370    735.058    747.496    -12.437    515.066    746.127    515.066    516.492    515.066
 81.470    788.000    748.448     39.552    515.037    747.139    515.037    516.408    515.037
 81.570    715.000    744.074    -29.074    515.006    742.820    515.006    516.325    515.006
 81.670    738.973    734.814      4.159    514.974    733.609    514.974    516.247    514.974
 81.770    769.376    721.468     47.908    514.941    720.305    514.941    516.172    514.941
 81.870    727.000    705.172     21.828    514.907    704.044    514.907    516.101    514.907
 81.970    712.517    687.239     25.278    514.871    686.140    514.871    516.034    514.871
 82.070    705.000    668.884     36.116    514.834    667.809    514.834    515.970    514.834
 82.170    639.000    650.999    -11.999    514.795    649.944    514.795    515.909    514.795
 82.270    687.000    634.101     52.899    514.755    633.060    514.755    515.850    514.755
 82.370    604.000    618.423    -14.423    514.714    617.394    514.714    515.793    514.714
 82.470    636.000    604.083     31.917    514.671    603.061    514.671    515.737    514.671
 82.570    584.000    591.198     -7.198    514.628    590.182    514.628    515.682    514.628
 82.670    593.000    579.921     13.079    514.582    578.908    514.582    515.628    514.582
 82.770    540.707    570.407    -29.700    514.536    569.394    514.536    515.573    514.536
 82.870    558.000    562.787     -4.787    514.488    561.775    514.488    515.519    514.488
 82.970    597.749    557.157     40.592    514.439    556.143    514.439    515.464    514.439
 83.070    536.000    553.561    -17.561    514.388    552.544    514.388    515.408    514.388
 83.170    562.000    551.980     10.020    514.336    550.960    514.336    515.352    514.336
 83.270    518.896    552.309    -33.413    514.283    551.286    514.283    515.295    514.283
 83.370    551.186    554.339     -3.153    514.228    553.311    514.228    515.238    514.228
 83.470    532.142    557.742    -25.601    514.172    556.710    514.172    515.179    514.172
 83.570    541.252    562.078    -20.825    514.115    561.041    514.115    515.120    514.115
 83.670    604.002    566.801     37.201    514.056    565.760    514.056    515.060    514.056
 83.770    555.000    571.291    -16.291    513.996    570.247    513.996    514.999    513.996
 83.870    535.000    574.901    -39.901    513.935    573.854    513.935    514.937    513.935
 83.970    574.000    577.040     -3.040    513.872    575.992    513.872    514.874    513.872
 84.070    605.838    577.295     28.542    513.808    576.248    513.808    514.810    513.808
 84.170    603.097    575.541     27.556    513.742    574.495    513.742    514.745    513.742
 84.270    577.000    571.969      5.031    513.675    570.926    513.675    514.679    513.675
 84.370    575.000    567.009      7.991    513.607    565.970    513.607    514.612    513.607
 84.470    582.000    561.200     20.800    513.538    560.164    513.538    514.545    513.538
 84.570    562.000    555.073      6.927    513.467    554.040    513.467    514.476    513.467
 84.670    507.841    549.085    -41.244    513.394    548.055    513.394    514.406    513.394
 84.770    533.000    543.584    -10.584    513.320    542.555    513.320    514.335    513.320
 84.870    532.000    538.796     -6.796    513.245    537.767    513.245    514.263    513.245
 84.970    550.000    534.832     15.168    513.169    533.802    513.169    514.190    513.169
 85.070    518.000    531.704    -13.704    513.091    530.672    513.091    514.116    513.091
 85.170    569.000    529.354     39.646    513.012    528.319    513.012    514.041    513.012
 85.270    574.000    527.684     46.316    512.931    526.645    512.931    513.965    512.931
 85.370    556.000    526.583     29.417    512.849    525.539    512.849    513.888    512.849
 85.470    549.000    525.947     23.053    512.766    524.898    512.766    513.811    512.766
 85.570    517.000    525.700     -8.700    512.681    524.645    512.681    513.732    512.681
 85.670    480.000    525.799    -45.799    512.595    524.737    512.595    513.652    512.595
 85.770    531.000    526.241      4.759    512.508    525.171    512.508    513.571    512.508
 85.870    542.000    527.068     14.932    512.419    525.990    512.419    513.489    512.419
 85.970    517.000    528.366    -11.366    512.329    527.279    512.329    513.407    512.329
 86.070    531.000    530.264      0.736    512.237    529.166    512.237    513.323    512.237
 86.170    563.000    532.927     30.073    512.145    531.817    512.145    513.238    512.145
 86.270    524.000    536.547    -12.547    512.050    535.423    512.050    513.153    512.050
 86.370    550.050    541.317      8.733    511.955    540.178    511.955    513.066    511.955
 86.470    537.442    547.407     -9.965    511.858    546.251    511.858    512.979    511.858
 86.570    560.000    554.924      5.076    511.759    553.749    511.759    512.891    511.759
 86.670    589.000    563.872     25.128    511.660    562.675    511.660    512.802    511.660
 86.770    534.122    574.107    -39.985    511.558    572.887    511.558    512.712    511.558
 86.870    600.000    585.298     14.702    511.456    584.054    511.456    512.622    511.456
 86.970    579.000    596.949    -17.949    511.352    595.680    511.352    512.531    511.352
 87.070    618.000    608.363      9.637    511.247    607.069    511.247    512.439    511.247
 87.170    624.034    618.670      5.364    511.141    617.354    511.141    512.346    511.141
 87.270    588.854    626.930    -38.076    511.033    625.594    511.033    512.252    511.033
 87.370    643.135    632.269     10.866    510.923    630.916    510.923    512.158    510.923
 87.470    681.000    634.083     46.917    510.813    632.716    510.813    512.064    510.813
 87.570    655.000    632.212     22.788    510.701    630.836    510.701    511.968    510.701
 87.670    667.888    626.994     40.895    510.588    625.610    510.588    511.873    510.588
 87.770    645.154    619.150     26.004    510.473    617.761    510.473    511.776    510.473
 87.870    665.000    609.614     55.386    510.357    608.219    510.357    511.680    510.357
 87.970    635.000    599.372     35.628    510.240    597.971    510.240    511.583    510.240
 88.070    568.637    589.359    -20.722    510.121    587.950    510.121    511.486    510.121
 88.170    546.000    580.380    -34.380    510.001    578.960    510.001    511.388    510.001
 88.270    597.000    573.070     23.930    509.880    571.638    509.880    511.290    509.880
 88.370    592.000    567.866     24.134    509.757    566.419    509.757    511.193    509.757
 88.470    580.273    564.995     15.277    509.634    563.531    509.634    511.095    509.634
 88.570    542.000    564.487    -22.487    509.508    563.004    509.508    510.997    509.508
 88.670    560.000    566.184     -6.184    509.382    564.678    509.382    510.900    509.382
 88.770    603.000    569.759     33.241    509.254    568.231    509.254    510.803    509.254
 88.870    552.886    574.745    -21.860    509.125    573.192    509.125    510.706    509.125
 88.970    580.564    580.558      0.006    508.994    578.978    508.994    510.610    508.994
 89.070    578.000    586.524     -8.524    508.862    584.915    508.862    510.514    508.862
 89.170    606.000    591.926     14.074    508.729    590.286    508.729    510.420    508.729
 89.270    593.375    596.058     -2.684    508.595    594.382    508.595    510.326    508.595
 89.370    592.000    598.318     -6.318    508.459    596.603    508.459    510.234    508.459
 89.470    634.000    598.321     35.679    508.322    596.561    508.322    510.144    508.322
 89.570    548.000    595.983    -47.983    508.184    594.175    508.184    510.055    508.184
 89.670    594.000    591.534      2.466    508.044    589.671    508.044    509.968    508.044
 89.770    600.000    585.429     14.571    507.904    583.506    507.904    509.883    507.904
 89.870    561.000    578.238    -17.238    507.761    576.249    507.761    509.802    507.761
 89.970    539.000    570.534    -31.534    507.618    568.473    507.618    509.723    507.618
 90.070    556.090    562.830     -6.740    507.474    560.693    507.474    509.649    507.474
 90.170    558.811    555.541      3.271    507.328    553.321    507.328    509.579    507.328
 90.270    512.162    548.969    -36.807    507.181    546.661    507.181    509.514    507.181
 90.370    519.920    543.300    -23.380    507.032    540.896    507.032    509.456    507.032
 90.470    547.471    538.614      8.856    506.883    536.106    506.883    509.405    506.883
 90.570    566.720    534.907     31.813    506.732    532.285    506.732    509.364    506.732
 90.670    528.000    532.111     -4.111    506.580    529.363    506.580    509.335    506.580
 90.770    537.000    530.123      6.877    506.426    527.233    506.426    509.321    506.426
 90.870    519.024    528.829     -9.805    506.272    525.779    506.272    509.325    506.272
 90.970    522.000    528.124     -6.124    506.116    524.888    506.116    509.353    506.116
 91.070    513.428    527.924    -14.497    505.959    524.473    505.959    509.410    505.959
 91.170    566.000    528.177     37.823    505.801    524.472    505.801    509.505    505.801
 91.270    510.000    528.837    -18.837    505.642    524.832    505.642    509.645    505.642
 91.370    522.549    530.004     -7.455    505.481    525.640    505.481    509.843    505.481
 91.470    506.000    531.748    -25.748    505.320    526.953    505.320    510.110    505.320
 91.570    484.000    534.182    -50.182    505.157    528.871    505.157    510.461    505.157
 91.670    537.000    537.467     -0.467    504.993    531.540    504.993    510.912    504.993
 91.770    525.000    541.805    -16.805    504.828    535.143    504.828    511.478    504.828
 91.870    584.000    547.423     36.577    504.661    539.892    504.661    512.178    504.661
 91.970    544.000    554.557    -10.557    504.494    546.007    504.494    513.026    504.494
 92.070    571.000    563.432      7.568    504.325    553.699    504.325    514.036    504.325
 92.170    577.697    574.236      3.461    504.155    563.145    504.155    515.219    504.155
 92.270    536.000    587.092    -51.092    503.984    574.462    503.984    516.581    503.984
 92.370    580.000    602.029    -22.029    503.812    587.680    503.812    518.121    503.812
 92.470    581.300    618.962    -37.662    503.639    602.722    503.639    519.831    503.639
 92.570    590.000    637.664    -47.664    503.465    619.381    503.465    521.693    503.465
 92.670    654.258    657.759     -3.501    503.290    637.310    503.290    523.676    503.290
 92.770    657.654    678.715    -21.061    503.113    656.022    503.113    525.737    503.113
 92.870    764.000    699.859     64.141    502.936    674.906    502.936    527.814    502.936
 92.970    704.000    720.442    -16.442    502.757    693.292    502.757    529.828    502.757
 93.070    704.150    739.723    -35.573    502.578    710.538    502.578    531.680    502.578
 93.170    750.000    757.091     -7.091    502.397    726.148    502.397    533.256    502.397
 93.270    756.000    772.182    -16.182    502.215    739.876    502.215    534.438    502.215
 93.370    777.000    784.914     -7.914    502.033    751.747    502.033    535.117    502.033
 93.470    758.115    795.429    -37.314    501.849    761.977    501.849    535.220    501.849
 93.570    848.000    804.011     43.989    501.664    770.875    501.664    534.722    501.664
 93.670    810.230    811.024     -0.794    501.478    778.772    501.478    533.655    501.478
 93.770    802.902    816.902    -14.000    501.291    786.021    501.291    532.100    501.291
 93.870    848.000    822.179     25.821    501.104    793.046    501.104    530.166    501.104
 93.970    828.374    827.485      0.889    500.915    800.358    500.915    527.975    500.915
 94.070    847.000    833.457     13.543    500.725    808.480    500.725    525.637    500.725
 94.170    836.400    840.573     -4.173    500.534    817.795    500.534    523.249    500.534
 94.270    798.908    848.979    -50.071    500.343    828.372    500.343    520.889    500.343
 94.370    886.000    858.374     27.626    500.150    839.852    500.150    518.614    500.150
 94.470    814.354    867.985    -53.631    499.956    851.420    499.956    516.467    499.956
 94.570    898.000    876.628     21.372    499.762    861.864    499.762    514.476    499.762
 94.670    952.000    882.844     69.156    499.567    869.709    499.567    512.658    499.567
 94.770    958.000    885.114     72.886    499.370    873.427    499.370    511.021    499.370
 94.870    904.000    882.147     21.853    499.173    871.728    499.173    509.564    499.173
 94.970    942.000    873.184     68.816    498.975    863.859    498.975    508.281    498.975
 95.070    816.376    858.204    -41.829    498.776    849.810    498.776    507.160    498.776
 95.170    830.215    837.948     -7.733    498.576    830.333    498.576    506.188    498.576
 95.270    882.000    813.758     68.242    498.376    806.788    498.376    505.349    498.376
 95.370    782.815    787.349     -4.534    498.174    780.904    498.174    504.625    498.174
 95.470    808.434    760.582     47.852    497.972    754.560    497.972    504.002    497.972
 95.570    794.000    735.306     58.694    497.769    729.619    497.769    503.464    497.769
 95.670    677.000    713.309    -36.309    497.565    707.884    497.565    502.997    497.565
 95.770    645.950    696.186    -50.236    497.360    690.960    497.360    502.589    497.360
 95.870    688.000    685.342      2.658    497.155    680.265    497.155    502.229    497.155
 95.970    720.000    681.989     38.011    496.949    677.018    496.949    501.910    496.949
 96.070    717.000    687.140     29.860    496.742    682.241    496.742    501.623    496.742
 96.170    722.749    701.607     21.143    496.534    696.749    496.534    501.365    496.534
 96.270    729.558    725.979      3.578    496.325    721.138    496.325    501.129    496.325
 96.370    795.000    760.583     34.417    496.116    755.736    496.116    500.914    496.116
 96.470    815.000    805.408      9.592    495.906    800.537    495.906    500.716    495.906
 96.570    841.000    860.019    -19.019    495.696    855.107    495.696    500.535    495.696
 96.670    926.000    923.446      2.554    495.485    918.478    495.485    500.368    495.485
 96.770    994.061    994.106     -0.045    495.273    989.069    495.273    500.215    495.273
 96.870   1036.085   1069.746    -33.661    495.060   1064.627    495.060    500.077    495.060
 96.970   1196.000   1147.432     48.568    494.847   1142.220    494.847    499.952    494.847
 97.070   1252.000   1223.589     28.411    494.633   1218.274    494.633    499.841    494.633
 97.170   1292.116   1294.127     -2.011    494.419   1288.697    494.419    499.745    494.419
 97.270   1332.000   1354.680    -22.680    494.204   1349.124    494.204    499.664    494.204
 97.370   1344.000   1401.024    -57.024    493.988   1395.331    493.988    499.599    493.988
 97.470   1450.000   1429.662     20.338    493.772   1423.817    493.772    499.552    493.772
 97.570   1447.000   1438.457      8.543    493.555   1432.444    493.555    499.525    493.555
 97.670   1445.396   1427.060     18.336    493.338   1420.856    493.338    499.519    493.338
 97.770   1430.000   1396.925     33.075    493.120   1390.504    493.120    499.539    493.120
 97.870   1283.000   1350.936    -67.936    492.902   1344.267    492.902    499.588    492.902
 97.970   1271.000   1292.841    -21.841    492.683   1285.885    492.683    499.670    492.683
 98.070   1256.668   1226.730     29.937    492.464   1219.442    492.464    499.794    492.464
 98.170   1187.000   1156.667     30.333    492.244   1148.994    492.244    499.965    492.244
 98.270   1055.000   1086.448    -31.448    492.024   1078.325    492.024    500.198    492.024
 98.370   1054.000   1019.458     34.542    491.804   1010.807    491.804    500.504    491.804
 98.470    936.308    958.602    -22.294    491.583    949.329    491.583    500.901    491.583
 98.570    886.000    906.274    -20.274    491.361    896.265    491.361    501.410    491.361
 98.670    855.000    864.383     -9.383    491.139    853.498    491.139    502.056    491.139
 98.770    759.000    834.390    -75.390    490.917    822.460    490.917    502.869    490.917
 98.870    786.000    817.372    -31.372    490.695    804.196    490.695    503.885    490.695
 98.970    833.000    814.100     18.900    490.472    799.432    490.472    505.143    490.472
 99.070    776.000    825.088    -49.088    490.249    808.642    490.249    506.689    490.249
 99.170    884.042    850.633     33.409    490.025    832.072    490.025    508.572    490.025
 99.270    857.000    890.801    -33.801    489.802    869.739    489.802    510.843    489.802
 99.370    972.000    945.435     26.565    489.578    921.433    489.578    513.553    489.578
 99.470   1060.000   1014.031     45.969    489.353    986.602    489.353    516.754    489.353
 99.570   1060.000   1095.668    -35.668    489.129   1064.278    489.129    520.489    489.129
 99.670   1168.000   1188.927    -20.927    488.904   1153.007    488.904    524.796    488.904
 99.770   1283.452   1291.796     -8.344    488.679   1250.754    488.679    529.700    488.679
 99.870   1426.738   1401.615     25.124    488.454   1354.848    488.454    535.210    488.454
 99.970   1563.000   1515.056     47.944    488.229   1461.975    488.229    541.313    488.229
100.070   1667.000   1628.196     38.804    488.004   1568.248    488.004    547.973    488.004
100.170   1654.514   1736.704    -82.189    487.778   1669.399    487.778    555.125    487.778
100.270   1941.000   1836.154    104.846    487.553   1761.102    487.553    562.671    487.553
100.370   1928.436   1922.412      6.024    487.327   1839.357    487.327    570.474    487.327
100.470   2010.706   1991.963     18.743    487.101   1900.827    487.101    578.355    487.101
100.570   2041.000   2042.076     -1.076    486.875   1943.007    486.875    586.087    486.875
100.670   2110.887   2070.804     40.083    486.649   1964.220    486.649    593.397    486.649
100.770   2046.093   2076.964    -30.871    486.424   1963.603    486.424    599.967    486.424
100.870   2119.000   2060.264     58.736    486.198   1941.202    486.198    605.455    486.198
100.970   2087.000   2021.560     65.440    485.972   1898.210    485.972    609.526    485.972
101.070   2030.482   1963.108     67.374    485.746   1837.167    485.746    611.894    485.746
101.170   1818.084   1888.549    -70.465    485.520   1761.903    485.520    612.372    485.520
101.270   1872.832   1802.567     70.265    485.295   1677.155    485.295    610.906    485.295
101.370   1713.000   1710.314      2.686    485.069   1587.982    485.069    607.590    485.069
101.470   1565.000   1616.815    -51.815    484.844   1499.188    484.844    602.646    484.844
101.570   1541.616   1526.497     15.119    484.619   1414.898    484.619    596.377    484.619
101.670   1390.000   1442.896    -52.896    484.394   1338.305    484.394    589.128    484.394
101.770   1350.000   1368.504    -18.504    484.169   1271.566    484.169    581.235    484.169
101.870   1337.190   1304.730     32.460    483.944   1215.784    483.944    573.003    483.944
101.970   1226.000   1251.931    -25.931    483.720   1171.057    483.720    564.695    483.720
102.070   1254.604   1209.506     45.097    483.495   1136.571    483.495    556.521    483.495
102.170   1142.000   1176.037    -34.037    483.272   1110.742    483.272    548.650    483.272
102.270   1153.000   1149.466      3.534    483.048   1091.387    483.048    541.205    483.048
102.370   1158.000   1127.329     30.671    482.825   1075.955    482.825    534.275    482.825
102.470   1107.031   1107.026      0.005    482.602   1061.786    482.602    527.917    482.602
102.570   1106.000   1086.135     19.865    482.379   1046.433    482.379    522.158    482.379
102.670   1027.000   1062.727    -35.727    482.157   1027.957    482.157    517.004    482.157
102.770    985.000   1035.584    -50.584    481.935   1005.155    481.935    512.443    481.935
102.870    973.000   1004.281    -31.281    481.714    977.631    481.714    508.444    481.714
102.970    973.627    969.099      4.529    481.493    945.702    481.493    504.968    481.493
103.070    912.560    930.827    -18.267    481.272    910.207    481.272    501.969    481.272
103.170    885.000    890.549     -5.549    481.052    872.279    481.052    499.395    481.052
103.270    831.000    849.453    -18.453    480.833    833.160    480.833    497.195    480.833
103.370    781.000    808.706    -27.706    480.614    794.066    480.614    495.317    480.614
103.470    788.000    769.358     18.642    480.396    756.097    480.396    493.715    480.396
103.570    757.000    732.295     24.705    480.178    720.180    480.178    492.343    480.178
103.670    707.000    698.195      8.805    479.961    687.035    479.961    491.165    479.961
103.770    666.647    667.521     -0.874    479.744    657.159    479.744    490.144    479.744
103.870    635.000    640.520     -5.520    479.529    630.827    479.529    489.254    479.529
103.970    626.000    617.244      8.756    479.313    608.115    479.313    488.469    479.313
104.070    584.877    597.582    -12.704    479.099    588.931    479.099    487.770    479.099
104.170    625.000    581.296     43.704    478.885    573.056    478.885    487.142    478.885
104.270    581.000    568.062     12.938    478.672    560.176    478.672    486.570    478.672
104.370    608.000    557.503     50.497    478.460    549.926    478.460    486.046    478.460
104.470    541.000    549.251     -8.251    478.249    541.945    478.249    485.561    478.249
104.570    586.818    542.936     43.882    478.039    535.870    478.039    485.109    478.039
104.670    508.021    538.225    -30.204    477.829    531.372    477.829    484.684    477.829
104.770    504.287    534.833    -30.546    477.620    528.170    477.620    484.284    477.620
104.870    565.000    532.531     32.469    477.413    526.036    477.413    483.906    477.413
104.970    546.000    531.141     14.859    477.206    524.798    477.206    483.546    477.206
105.070    524.000    530.542     -6.542    477.000    524.334    477.000    483.203    477.000
105.170    575.000    530.661     44.339    476.795    524.575    476.795    482.876    476.795
105.270    567.000    531.471     35.529    476.591    525.494    476.591    482.561    476.591
105.370    578.325    532.987     45.338    476.388    527.106    476.388    482.261    476.388
105.470    551.000    535.257     15.743    476.187    529.459    476.187    481.973    476.187
105.570    531.884    538.354     -6.470    475.986    532.630    475.986    481.698    475.986
105.670    599.000    542.373     56.627    475.786    536.711    475.786    481.433    475.786
105.770    578.000    547.408     30.592    475.588    541.799    475.588    481.179    475.588
105.870    621.000    553.547     67.453    475.391    547.983    475.391    480.935    475.391
105.970    522.000    560.853    -38.853    475.195    555.324    475.195    480.701    475.195
106.070    603.604    569.349     34.255    475.000    563.847    475.000    480.476    475.000
106.170    571.559    579.010     -7.451    474.807    573.528    474.807    480.260    474.807
106.270    574.142    589.749    -15.608    474.615    584.279    474.615    480.052    474.615
106.370    588.138    601.416    -13.278    474.424    595.950    474.424    479.853    474.424
106.470    576.000    613.790    -37.790    474.235    608.322    474.235    479.663    474.235
106.570    612.000    626.590    -14.590    474.047    621.114    474.047    479.480    474.047
106.670    629.000    639.475    -10.475    473.860    633.984    473.860    479.306    473.860
106.770    675.396    652.056     23.339    473.675    646.545    473.675    479.140    473.675
106.870    674.000    663.920     10.080    473.491    658.383    473.491    478.981    473.491
106.970    638.257    674.648    -36.391    473.309    669.079    473.309    478.831    473.309
107.070    723.000    683.859     39.141    473.128    678.252    473.128    478.689    473.128
107.170    688.201    691.252     -3.051    472.949    685.602    472.949    478.554    472.949
107.270    705.000    696.661      8.339    472.772    690.963    472.772    478.428    472.772
107.370    685.000    700.089    -15.089    472.596    694.337    472.596    478.310    472.596
107.470    688.000    701.716    -13.716    472.422    695.904    472.422    478.200    472.422
107.570    667.708    701.872    -34.164    472.249    695.992    472.249    478.098    472.249
107.670    731.782    700.981     30.801    472.078    695.028    472.078    478.005    472.078
107.770    660.000    699.500    -39.500    471.909    693.466    471.909    477.921    471.909
107.870    729.620    697.856     31.765    471.742    691.735    471.742    477.846    471.742
107.970    710.999    696.406     14.593    471.577    690.190    471.577    477.780    471.577
108.070    688.479    695.405     -6.925    471.413    689.086    471.413    477.723    471.413
108.170    740.255    694.985     45.270    471.251    688.555    471.251    477.676    471.251
108.270    714.041    695.154     18.887    471.091    688.604    471.091    477.640    471.091
108.370    677.000    695.787    -18.787    470.934    689.109    470.934    477.613    470.934
108.470    677.000    696.645    -19.645    470.778    689.830    470.778    477.598    470.778
108.570    699.179    697.386      1.793    470.624    690.424    470.624    477.594    470.624
108.670    716.000    697.603     18.397    470.472    690.485    470.472    477.602    470.472
108.770    683.000    696.868    -13.868    470.322    689.582    470.322    477.623    470.322
108.870    687.000    694.786     -7.786    470.175    687.322    470.175    477.656    470.175
108.970    725.758    691.061     34.697    470.029    683.406    470.029    477.703    470.029
109.070    727.000    685.536     41.464    469.886    677.679    469.886    477.765    469.886
109.170    685.027    678.220      6.807    469.745    670.146    469.745    477.841    469.745
109.270    672.000    669.271      2.729    469.606    660.965    469.606    477.934    469.606
109.370    635.000    658.965    -23.965    469.469    650.412    469.469    478.044    469.469
109.470    666.000    647.648     18.352    469.335    638.832    469.335    478.172    469.335
109.570    607.000    635.697    -28.697    469.203    626.600    469.203    478.320    469.203
109.670    620.000    623.488     -3.488    469.073    614.091    469.073    478.489    469.073
109.770    597.000    611.371    -14.371    468.946    601.653    468.946    478.681    468.946
109.870    623.000    599.657     23.343    468.821    589.596    468.821    478.898    468.821
109.970    634.000    588.588     45.412    468.699    578.158    468.699    479.143    468.699
110.070    532.000    578.403    -46.403    468.579    567.577    468.579    479.418    468.579
110.170    601.000    569.276     31.724    468.462    558.021    468.462    479.727    468.462
110.270    562.900    561.286      1.614    468.348    549.567    468.348    480.074    468.348
110.370    560.543    554.478      6.065    468.236    542.255    468.236    480.465    468.236
110.470    557.000    548.857      8.143    468.127    536.082    468.127    480.905    468.127
110.570    546.000    544.388      1.612    468.020    531.007    468.020    481.403    468.020
110.670    522.000    541.011    -19.011    467.916    526.960    467.916    481.967    467.916
110.770    521.521    538.644    -17.122    467.815    523.848    467.815    482.610    467.815
110.870    546.000    537.198      8.802    467.717    521.569    467.717    483.343    467.717
110.970    520.000    536.582    -16.582    467.622    520.016    467.622    484.184    467.622
111.070    508.985    536.707    -27.722    467.529    519.081    467.529    485.150    467.529
111.170    496.711    537.495    -40.784    467.440    518.664    467.440    486.266    467.440
111.270    494.210    538.881    -44.671    467.353    518.671    467.353    487.556    467.353
111.370    562.000    540.810     21.190    467.270    519.022    467.270    489.050    467.270
111.470    535.000    543.249     -8.249    467.189    519.646    467.189    490.784    467.189
111.570    565.000    546.175     18.825    467.112    520.482    467.112    492.796    467.112
111.670    526.000    549.585    -23.585    467.038    521.483    467.038    495.129    467.038
111.770    577.000    553.489     23.511    466.966    522.613    466.966    497.832    466.966
111.870    542.955    557.914    -14.959    466.898    523.846    466.898    500.955    466.898
111.970    627.000    562.899     64.101    466.834    525.168    466.834    504.553    466.834
112.070    561.000    568.499     -7.499    466.772    526.575    466.772    508.684    466.772
112.170    572.000    574.778     -2.778    466.714    528.074    466.714    513.406    466.714
112.270    603.000    581.809     21.191    466.660    529.680    466.660    518.776    466.660
112.370    556.477    589.672    -33.195    466.608    531.417    466.608    524.850    466.608
112.470    575.000    598.450    -23.450    466.560    533.319    466.560    531.678    466.560
112.570    591.000    608.230    -17.230    466.516    535.426    466.516    539.305    466.516
112.670    652.000    619.097     32.903    466.475    537.792    466.475    547.766    466.475
112.770    688.000    631.143     56.857    466.438    540.482    466.438    557.082    466.438
112.870    639.000    644.458     -5.458    466.404    543.584    466.404    567.261    466.404
112.970    706.231    659.144     47.087    466.374    547.207    466.374    578.292    466.374
113.070    665.000    675.313    -10.313    466.348    551.497    466.348    590.144    466.348
113.170    683.000    693.103    -10.103    466.325    556.644    466.325    602.762    466.325
113.270    659.000    712.679    -53.679    466.306    562.898    466.306    616.064    466.306
113.370    694.000    734.259    -40.259    466.291    570.584    466.291    629.940    466.291
113.470    722.000    758.119    -36.119    466.280    580.124    466.280    644.246    466.280
113.570    802.000    784.622     17.378    466.273    592.058    466.273    658.803    466.273
113.670    795.000    814.237    -19.237    466.269    607.072    466.269    673.396    466.269
113.770    813.000    847.562    -34.562    466.270    626.019    466.270    687.767    466.270
113.870    844.000    885.350    -41.350    466.275    649.952    466.275    701.620    466.275
113.970    864.000    928.540    -64.540    466.283    680.140    466.283    714.620    466.283
114.070    953.000    978.279    -25.279    466.296    718.094    466.296    726.406    466.296
114.170   1093.194   1035.950     57.244    466.313    765.572    466.313    736.600    466.313
114.270   1101.000   1103.191     -2.191    466.335    824.579    466.335    744.838    466.335
114.370   1187.000   1181.906      5.094    466.360    897.344    466.360    750.792    466.360
114.470   1323.654   1274.261     49.393    466.390    986.288    466.390    754.207    466.390
114.570   1381.000   1382.645     -1.645    466.424   1093.954    466.424    754.930    466.424
114.670   1523.000   1509.604     13.396    466.463   1222.917    466.463    752.930    466.463
114.770   1692.000   1657.725     34.275    466.506   1375.674    466.506    748.298    466.506
114.870   1923.000   1829.484     93.516    466.553   1554.492    466.553    741.243    466.553
114.970   2039.842   2027.051     12.791    466.605   1761.251    466.605    732.057    466.605
115.070   2210.028   2252.086    -42.058    466.662   1997.257    466.662    721.092    466.662
115.170   2616.000   2505.511    110.489    466.723   2263.061    466.723    708.723    466.723
115.270   2873.000   2787.310     85.690    466.789   2558.275    466.789    695.321    466.789
115.370   3088.401   3096.341     -7.940    466.859   2881.410    466.859    681.236    466.859
115.470   3418.743   3430.200    -11.457    466.934   3229.746    466.934    666.786    466.934
115.570   3765.738   3785.118    -19.380    467.015   3599.239    467.015    652.247    467.015
115.670   4230.000   4155.930     74.070    467.099   3984.492    467.099    637.857    467.099
115.770   4440.543   4536.098    -95.555    467.189   4378.768    467.189    623.812    467.189
115.870   4806.000   4917.799   -111.799    467.284   4774.087    467.284    610.273    467.284
115.970   5264.000   5292.079    -28.079    467.384   5161.371    467.384    597.368    467.384
116.070   5617.000   5649.084    -32.084    467.489   5530.670    467.489    585.193    467.489
116.170   5934.063   5978.363    -44.300    467.599   5871.467    467.599    573.815    467.599
116.270   6262.820   6269.284     -6.463    467.714   6173.088    467.714    563.278    467.714
116.370   6579.000   6511.555     67.445    467.834   6425.219    467.834    553.602    467.834
116.470   6777.777   6695.878     81.899    467.960   6618.560    467.960    544.790    467.960
116.570   6888.652   6814.678     73.974    468.090   6745.548    468.090    536.825    468.090
116.670   6873.966   6862.814     11.151    468.227   6801.068    468.227    529.680    468.227
116.770   6981.000   6838.131    142.869    468.368   6782.999    468.368    523.314    468.368
116.870   6858.555   6741.691    116.865    468.515   6692.450    468.515    517.677    468.515
116.970   6557.958   6577.641    -19.683    468.667   6533.609    468.667    512.722    468.667
117.070   6371.815   6352.738     19.077    468.825   6313.289    468.825    508.391    468.825
117.170   6227.528   6075.704    151.825    468.989   6040.268    468.989    504.623    468.989
117.270   5815.388   5756.404     58.984    469.158   5724.466    469.158    501.362    469.158
117.370   5336.342   5405.243    -68.901    469.333   5376.344    469.333    498.551    469.333
117.470   4956.000   5032.596    -76.596    469.514   5006.329    469.514    496.137    469.514
117.570   4589.000   4648.368    -59.368    469.700   4624.377    469.700    494.072    469.700
117.670   4374.416   4261.672    112.744    469.893   4239.646    469.893    492.308    469.893
117.770   3860.635   3880.582    -19.947    470.091   3860.255    470.091    490.805    470.091
117.870   3575.000   3511.981     63.019    470.295   3493.124    470.295    489.527    470.295
117.970   3221.000   3161.462     59.538    470.505   3143.879    470.505    488.442    470.505
118.070   2975.000   2833.305    141.695    470.721   2816.833    470.721    487.521    470.721
118.170   2566.931   2530.519     36.412    470.944   2515.019    470.944    486.740    470.944
118.270   2257.000   2254.922      2.078    471.172   2240.278    471.172    486.078    471.172
118.370   2094.928   2007.259     87.669    471.407   1993.383    471.407    485.511    471.407
118.470   1779.282   1787.388     -8.106    471.648   1774.191    471.648    485.039    471.648
118.570   1499.000   1594.392    -95.392    471.895   1581.805    471.895    484.644    471.895
118.670   1499.406   1426.775     72.631    472.149   1414.741    472.149    484.316    472.149
118.770   1259.000   1282.626    -23.626    472.409   1271.097    472.409    484.045    472.409
118.870   1198.402   1159.770     38.632    472.676   1148.703    472.676    483.825    472.676
118.970   1037.000   1055.901    -18.901    472.949   1045.262    472.949    483.651    472.949
119.070    900.000    968.703    -68.703    473.229    958.462    473.229    483.518    473.229
119.170    934.353    895.941     38.412    473.515    886.068    473.515    483.422    473.515
119.270    825.045    835.523    -10.478    473.808    825.994    473.808    483.361    473.808
119.370    756.170    785.548    -29.378    474.108    776.339    474.108    483.332    474.108
119.470    781.290    744.325     36.966    474.415    735.416    474.415    483.334    474.415
119.570    671.481    710.384    -38.903    474.729    701.754    474.729    483.365    474.729
119.670    669.000    682.469    -13.469    475.049    674.098    475.049    483.424    475.049
119.770    667.000    659.523      7.477    475.377    651.393    475.377    483.510    475.377
119.870    618.000    640.669    -22.669    475.711    632.760    475.711    483.622    475.711
119.970    616.000    625.187     -9.187    476.053    617.482    476.053    483.760    476.053
120.070    590.000    612.496    -22.496    476.402    604.976    476.402    483.923    476.402
120.170    619.057    602.126     16.931    476.758    594.774    476.758    484.112    476.758
120.270    594.000    593.706      0.294    477.121    586.502    477.121    484.326    477.121
120.370    614.026    586.938     27.088    477.492    579.866    477.492    484.566    477.492
120.470    603.000    581.589     21.411    477.870    574.631    477.870    484.831    477.870
120.570    554.000    577.478    -23.478    478.256    570.615    478.256    485.122    478.256
120.670    580.683    574.459      6.224    478.649    567.674    478.649    485.438    478.649
120.770    563.461    572.422     -8.961    479.050    565.696    479.050    485.780    479.050
120.870    563.000    571.276     -8.276    479.458    564.590    479.458    486.148    479.458
120.970    521.000    570.949    -49.949    479.874    564.286    479.874    486.543    479.874
121.070    569.000    571.382     -2.382    480.298    564.724    480.298    486.963    480.298
121.170    571.000    572.522     -1.522    480.729    565.850    480.729    487.409    480.729
121.270    576.485    574.319      2.165    481.169    567.616    481.169    487.881    481.169
121.370    579.000    576.725      2.275    481.616    569.974    481.616    488.379    481.616
121.470    608.000    579.688     28.312    482.071    572.872    482.071    488.901    482.071
121.570    620.808    583.151     37.658    482.535    576.254    482.535    489.447    482.535
121.670    604.000    587.050     16.950    483.006    580.058    483.006    490.016    483.006
121.770    632.675    591.316     41.359    483.486    584.216    483.486    490.606    483.486
121.870    579.000    595.869    -16.869    483.974    588.648    483.974    491.217    483.974
121.970    651.000    600.621     50.379    484.470    593.271    484.470    491.846    484.470
122.070    572.558    605.478    -32.921    484.975    597.990    484.975    492.491    484.975
122.170    602.000    610.336     -8.336    485.488    602.705    485.488    493.149    485.488
122.270    633.000    615.086     17.914    486.010    607.310    486.010    493.819    486.010
122.370    661.364    619.618     41.746    486.540    611.697    486.540    494.496    486.540
122.470    643.000    623.817     19.183    487.079    615.757    487.079    495.176    487.079
122.570    621.000    627.578     -6.578    487.626    619.387    487.626    495.857    487.626
122.670    566.000    630.800    -64.800    488.182    622.490    488.182    496.533    488.182
122.770    691.000    633.399     57.601    488.747    624.988    488.747    497.201    488.747
122.870    676.603    635.310     41.293    489.321    626.820    489.321    497.856    489.321
122.970    589.179    636.494    -47.315    489.904    627.951    489.904    498.493    489.904
123.070    637.000    636.937      0.063    490.496    628.369    490.496    499.110    490.496
123.170    617.850    636.651    -18.801    491.097    628.091    491.097    499.702    491.097
123.270    647.462    635.671     11.791    491.707    627.153    491.707    500.269    491.707
123.370    644.511    634.051     10.460    492.326    625.610    492.326    500.810    492.326
123.470    649.000    631.861     17.139    492.954    623.533    492.954    501.325    492.954
123.570    653.000    629.179     23.821    493.592    620.996    493.592    501.816    493.592
123.670    573.000    626.088    -53.088    494.240    618.080    494.240    502.285    494.240
123.770    619.000    622.673     -3.673    494.896    614.868    494.896    502.736    494.896
123.870    639.000    619.016     19.984    495.562    611.438    495.562    503.173    495.562
123.970    647.214    615.196     32.018    496.238    607.862    496.238    503.601    496.238
124.070    600.644    611.283    -10.638    496.924    604.210    496.924    504.023    496.924
124.170    579.300    607.339    -28.039    497.619    600.537    497.619    504.445    497.619
124.270    605.000    603.418      1.582    498.324    596.894    498.324    504.869    498.324
124.370    613.024    599.560     13.464    499.039    593.318    499.039    505.299    499.039
124.470    587.000    595.797     -8.797    499.764    589.837    499.764    505.739    499.764
124.570    583.000    592.150     -9.150    500.499    586.471    500.499    506.191    500.499
124.670    578.000    588.632    -10.632    501.244    583.228    501.244    506.659    501.244
124.770    537.890    585.247    -47.357    501.999    580.113    501.999    507.143    501.999
124.870    645.000    581.997     63.003    502.764    577.123    502.764    507.646    502.764
124.970    561.000    578.878    -17.878    503.540    574.255    503.540    508.169    503.540
