neutron_powder_diffraction_0079
R_wp: 4.456
Temperature (K): 788.812
Counts: 83413.00
Wavelength (Ã…): 2.52098
COMMENTS
Test file for demonstrating the .xyy file format in Reel1.0
END OF HEADER
   tth       Y_obs     Y_calc      Y_res    Background    Phase_1_Nuc    Phase_1_Mag    Phase_2_Nuc    Phase_2_Mag
  9.970    619.000    583.365     35.635    582.258    583.364    582.258    582.258    582.258
 10.070    579.329    584.134     -4.805    582.936    584.133    582.936    582.936    582.936
 10.170    579.386    584.901     -5.515    583.600    584.900    583.600    583.600    583.600
 10.270    614.000    585.669     28.331    584.252    585.668    584.252    584.252    584.252
 10.370    639.428    586.442     52.986    584.891    586.441    584.891    584.891    584.891
 10.470    593.897    587.224      6.673    585.518    587.224    585.518    585.518    585.518
 10.570    600.000    588.022     11.978    586.131    588.021    586.131    586.131    586.131
 10.670    622.650    588.840     33.810    586.733    588.839    586.733    586.733    586.733
 10.770    594.000    589.691      4.309    587.321    589.690    587.321    587.321    587.321
 10.870    625.000    590.619     34.381    587.898    590.618    587.898    587.898    587.898
 10.970    644.000    591.697     52.303    588.462    591.695    588.462    588.462    588.462
 11.070    603.000    592.742     10.258    589.014    592.740    589.014    589.014    589.014
 11.170    640.000    593.889     46.111    589.554    593.887    589.554    589.554    589.554
 11.270    547.069    595.201    -48.131    590.082    595.198    590.082    590.082    590.082
 11.370    643.000    596.760     46.240    590.598    596.756    590.598    590.598    590.598
 11.470    594.000    598.730     -4.730    591.103    598.726    591.103    591.103    591.103
 11.570    600.117    601.498     -1.381    591.596    601.492    591.596    591.596    591.596
 11.670    618.000    605.981     12.019    592.077    605.974    592.077    592.077    592.077
 11.770    625.000    614.080     10.920    592.547    614.068    592.547    592.547    592.547
 11.870    679.000    628.776     50.224    593.005    628.756    593.005    593.005    593.005
 11.970    634.781    652.980    -18.199    593.452    652.947    593.452    593.452    593.452
 12.070    726.262    686.462     39.800    593.888    686.409    593.888    593.888    593.888
 12.170    768.000    721.210     46.790    594.312    721.138    594.312    594.312    594.312
 12.270    739.000    739.105     -0.105    594.726    739.023    594.726    594.726    594.726
 12.370    679.826    726.656    -46.831    595.129    726.581    595.129    595.129    595.129
 12.470    672.000    694.402    -22.402    595.521    694.346    595.521    595.521    595.521
 12.570    681.635    660.847     20.788    595.902    660.810    595.902    595.902    595.902
 12.670    636.000    635.710      0.290    596.272    635.688    596.272    596.272    596.272
 12.770    661.336    620.309     41.028    596.632    620.295    596.632    596.632    596.632
 12.870    572.000    612.072    -40.072    596.981    612.063    596.981    596.981    596.981
 12.970    584.860    607.897    -23.037    597.320    607.892    597.320    597.320    597.320
 13.070    658.257    605.711     52.546    597.649    605.706    597.649    597.649    597.649
 13.170    593.000    604.449    -11.449    597.967    604.446    597.967    597.967    597.967
 13.270    648.444    603.655     44.790    598.276    603.652    598.276    598.276    598.276
 13.370    594.823    603.133     -8.310    598.574    603.131    598.574    598.574    598.574
 13.470    558.666    602.790    -44.124    598.862    602.788    598.862    598.862    598.862
 13.570    593.000    602.573     -9.573    599.141    602.571    599.141    599.141    599.141
 13.670    614.000    602.444     11.556    599.409    602.443    599.409    599.409    599.409
 13.770    595.000    602.382     -7.382    599.668    602.381    599.668    599.668    599.668
 13.870    638.215    602.371     35.844    599.917    602.370    599.917    599.917    599.917
 13.970    583.000    602.392    -19.392    600.157    602.391    600.157    600.157    600.157
 14.070    588.000    602.439    -14.439    600.387    602.438    600.387    600.387    600.387
 14.170    592.754    602.504     -9.750    600.608    602.503    600.608    600.608    600.608
 14.270    587.000    602.582    -15.582    600.819    602.581    600.819    600.819    600.819
 14.370    556.000    602.670    -46.670    601.022    602.670    601.022    601.022    601.022
 14.470    557.929    602.765    -44.836    601.215    602.764    601.215    601.215    601.215
 14.570    593.410    602.864     -9.454    601.399    602.863    601.399    601.399    601.399
 14.670    634.873    602.964     31.909    601.574    602.963    601.574    601.574    601.574
 14.770    577.000    603.070    -26.070    601.740    603.070    601.740    601.740    601.740
 14.870    641.889    603.226     38.663    601.898    603.225    601.898    601.898    601.898
 14.970    586.000    603.354    -17.354    602.046    603.354    602.046    602.046    602.046
 15.070    578.000    603.452    -25.452    602.187    603.452    602.187    602.187    602.187
 15.170    605.000    603.544      1.456    602.318    603.544    602.318    602.318    602.318
 15.270    591.000    603.632    -12.632    602.441    603.632    602.441    602.441    602.441
 15.370    611.036    603.720      7.316    602.556    603.720    602.556    602.556    602.556
 15.470    587.000    603.802    -16.802    602.662    603.802    602.662    602.662    602.662
 15.570    597.000    603.875     -6.875    602.760    603.875    602.760    602.760    602.760
 15.670    588.762    603.944    -15.182    602.850    603.943    602.850    602.850    602.850
 15.770    555.000    604.010    -49.010    602.932    604.010    602.932    602.932    602.932
 15.870    576.626    604.077    -27.450    603.005    604.076    603.005    603.005    603.005
 15.970    573.000    604.133    -31.133    603.071    604.132    603.071    603.071    603.071
 16.070    546.000    604.226    -58.226    603.129    604.226    603.129    603.129    603.129
 16.170    550.000    604.283    -54.283    603.179    604.283    603.179    603.179    603.179
 16.270    638.861    604.317     34.544    603.222    604.316    603.222    603.222    603.222
 16.370    593.000    604.344    -11.344    603.257    604.344    603.257    603.257    603.257
 16.470    605.000    604.385      0.615    603.284    604.385    603.284    603.284    603.284
 16.570    523.000    604.407    -81.407    603.304    604.407    603.304    603.304    603.304
 16.670    543.000    604.415    -61.415    603.316    604.415    603.316    603.316    603.316
 16.770    596.685    604.419     -7.734    603.321    604.419    603.321    603.321    603.321
 16.870    587.000    604.423    -17.423    603.319    604.423    603.319    603.319    603.319
 16.970    596.000    604.412     -8.412    603.309    604.411    603.309    603.309    603.309
 17.070    629.752    604.393     25.359    603.293    604.393    603.293    603.293    603.293
 17.170    548.000    604.368    -56.368    603.269    604.368    603.269    603.269    603.269
 17.270    620.097    604.337     15.760    603.238    604.337    603.238    603.238    603.238
 17.370    590.161    604.299    -14.139    603.201    604.299    603.201    603.201    603.201
 17.470    611.000    604.256      6.744    603.156    604.256    603.156    603.156    603.156
 17.570    560.000    604.207    -44.207    603.105    604.207    603.105    603.105    603.105
 17.670    592.784    604.167    -11.384    603.048    604.167    603.048    603.048    603.048
 17.770    602.919    604.126     -1.207    602.983    604.125    602.983    602.983    602.983
 17.870    606.912    604.089      2.824    602.912    604.088    602.912    602.912    602.912
 17.970    592.000    604.027    -12.027    602.835    604.027    602.835    602.835    602.835
 18.070    574.000    603.951    -29.951    602.751    603.951    602.751    602.751    602.751
 18.170    590.000    603.896    -13.896    602.661    603.896    602.661    602.661    602.661
 18.270    555.372    603.866    -48.494    602.564    603.866    602.564    602.564    602.564
 18.370    563.696    603.783    -40.087    602.462    603.783    602.462    602.462    602.462
 18.470    578.000    603.689    -25.689    602.353    603.689    602.353    602.353    602.353
 18.570    593.000    603.592    -10.592    602.238    603.592    602.238    602.238    602.238
 18.670    648.303    603.499     44.804    602.117    603.499    602.117    602.117    602.117
 18.770    596.000    603.406     -7.406    601.990    603.406    601.990    601.990    601.990
 18.870    570.000    603.316    -33.316    601.858    603.316    601.858    601.858    601.858
 18.970    601.000    603.190     -2.190    601.719    603.190    601.719    601.719    601.719
 19.070    604.000    603.058      0.942    601.575    603.057    601.575    601.575    601.575
 19.170    593.000    602.919     -9.919    601.425    602.919    601.425    601.425    601.425
 19.270    590.000    602.775    -12.775    601.270    602.775    601.270    601.270    601.270
 19.370    567.644    602.631    -34.987    601.109    602.631    601.109    601.109    601.109
 19.470    565.000    602.480    -37.480    600.942    602.480    600.942    600.942    600.942
 19.570    615.658    602.327     13.331    600.770    602.327    600.770    600.770    600.770
 19.670    566.000    602.172    -36.172    600.593    602.172    600.593    600.593    600.593
 19.770    593.346    602.011     -8.665    600.411    602.011    600.411    600.411    600.411
 19.870    592.000    601.839     -9.839    600.223    601.839    600.223    600.223    600.223
 19.970    595.000    601.663     -6.663    600.030    601.663    600.030    600.030    600.030
 20.070    600.000    601.482     -1.482    599.832    601.482    599.832    599.832    599.832
 20.170    616.954    601.297     15.657    599.629    601.297    599.629    599.629    599.629
 20.270    531.000    601.109    -70.109    599.421    601.109    599.421    599.421    599.421
 20.370    621.422    600.918     20.504    599.208    600.918    599.208    599.208    599.208
 20.470    574.000    600.722    -26.722    598.991    600.722    598.991    598.991    598.991
 20.570    532.000    600.522    -68.522    598.768    600.523    598.768    598.768    598.768
 20.670    562.526    600.319    -37.793    598.541    600.319    598.541    598.541    598.541
 20.770    593.000    600.111     -7.111    598.309    600.111    598.309    598.309    598.309
 20.870    565.000    599.899    -34.899    598.073    599.900    598.073    598.073    598.073
 20.970    555.000    599.685    -44.685    597.832    599.685    597.832    597.832    597.832
 21.070    583.000    599.467    -16.467    597.586    599.467    597.586    597.586    597.586
 21.170    589.000    599.246    -10.246    597.337    599.246    597.337    597.337    597.337
 21.270    592.000    599.022     -7.022    597.082    599.023    597.082    597.082    597.082
 21.370    629.463    598.796     30.667    596.824    598.797    596.824    596.824    596.824
 21.470    598.000    598.568     -0.568    596.561    598.568    596.561    596.561    596.561
 21.570    524.000    598.338    -74.338    596.294    598.338    596.294    596.294    596.294
 21.670    614.000    598.106     15.894    596.023    598.106    596.023    596.023    596.023
 21.770    558.000    597.874    -39.874    595.748    597.874    595.748    595.748    595.748
 21.870    644.134    597.639     46.495    595.469    597.639    595.469    595.469    595.469
 21.970    610.000    597.404     12.596    595.186    597.404    595.186    595.186    595.186
 22.070    582.000    597.170    -15.170    594.898    597.171    594.898    594.898    594.898
 22.170    552.000    596.935    -44.935    594.608    596.936    594.608    594.608    594.608
 22.270    569.000    596.701    -27.701    594.313    596.701    594.313    594.313    594.313
 22.370    588.000    596.468     -8.468    594.015    596.468    594.015    594.015    594.015
 22.470    624.000    596.238     27.762    593.712    596.238    593.712    593.712    593.712
 22.570    587.838    596.011     -8.173    593.407    596.011    593.407    593.407    593.407
 22.670    565.100    595.788    -30.688    593.097    595.788    593.097    593.097    593.097
 22.770    596.000    595.571      0.429    592.785    595.572    592.785    592.785    592.785
 22.870    576.000    595.364    -19.364    592.468    595.364    592.468    592.468    592.468
 22.970    648.000    595.165     52.835    592.149    595.165    592.149    592.149    592.149
 23.070    558.000    594.978    -36.978    591.826    594.978    591.826    591.826    591.826
 23.170    584.000    594.807    -10.807    591.499    594.808    591.499    591.499    591.499
 23.270    635.000    594.657     40.343    591.170    594.657    591.170    591.170    591.170
 23.370    567.000    594.532    -27.532    590.837    594.533    590.837    590.837    590.837
 23.470    576.144    594.442    -18.298    590.501    594.443    590.501    590.501    590.501
 23.570    551.310    594.396    -43.085    590.162    594.397    590.162    590.162    590.162
 23.670    559.000    594.408    -35.408    589.820    594.409    589.820    589.820    589.820
 23.770    589.000    594.500     -5.500    589.475    594.502    589.475    589.475    589.475
 23.870    581.198    594.703    -13.506    589.127    594.705    589.127    589.127    589.127
 23.970    570.142    595.064    -24.922    588.777    595.067    588.777    588.777    588.777
 24.070    596.000    595.687      0.313    588.423    595.690    588.423    588.423    588.423
 24.170    580.000    596.783    -16.783    588.066    596.787    588.066    588.066    588.066
 24.270    594.888    598.857     -3.969    587.707    598.862    587.707    587.707    587.707
 24.370    628.054    602.934     25.120    587.345    602.943    587.345    587.345    587.345
 24.470    636.000    610.659     25.341    586.981    610.674    586.981    586.981    586.981
 24.570    642.050    623.817     18.233    586.614    623.841    586.614    586.614    586.614
 24.670    629.000    642.885    -13.885    586.244    642.923    586.244    586.244    586.244
 24.770    655.000    664.637     -9.637    585.872    664.690    585.872    585.872    585.872
 24.870    726.000    680.254     45.746    585.497    680.318    585.497    585.497    585.497
 24.970    633.345    679.917    -46.572    585.120    679.981    585.120    585.120    585.120
 25.070    672.616    663.673      8.943    584.741    663.726    584.741    584.741    584.741
 25.170    620.628    641.366    -20.738    584.359    641.404    584.359    584.359    584.359
 25.270    593.501    621.781    -28.280    583.975    621.805    583.975    583.975    583.975
 25.370    662.074    608.116     53.958    583.589    608.130    583.589    583.589    583.589
 25.470    590.186    599.882     -9.696    583.201    599.891    583.201    583.201    583.201
 25.570    587.407    595.294     -7.887    582.811    595.299    582.811    582.811    582.811
 25.670    626.000    592.714     33.286    582.418    592.718    582.418    582.418    582.418
 25.770    602.912    591.125     11.788    582.024    591.127    582.024    582.024    582.024
 25.870    547.409    590.028    -42.618    581.627    590.030    581.627    581.627    581.627
 25.970    642.768    589.208     53.560    581.229    589.210    581.229    581.229    581.229
 26.070    634.000    588.574     45.426    580.828    588.575    580.828    580.828    580.828
 26.170    589.000    588.078      0.922    580.426    588.079    580.426    580.426    580.426
 26.270    638.000    587.698     50.302    580.022    587.698    580.022    580.022    580.022
 26.370    575.000    587.419    -12.419    579.617    587.420    579.617    579.617    579.617
 26.470    614.000    587.237     26.763    579.209    587.237    579.209    579.209    579.209
 26.570    636.000    587.152     48.848    578.800    587.152    578.800    578.800    578.800
 26.670    632.000    587.171     44.829    578.389    587.171    578.389    578.389    578.389
 26.770    587.818    587.307      0.511    577.977    587.306    577.977    577.977    577.977
 26.870    614.052    587.578     26.475    577.563    587.577    577.563    577.563    577.563
 26.970    650.000    588.013     61.987    577.148    588.012    577.148    577.148    577.148
 27.070    609.000    588.652     20.348    576.731    588.651    576.731    576.731    576.731
 27.170    669.000    589.554     79.446    576.313    589.553    576.313    576.313    576.313
 27.270    637.000    590.802     46.198    575.893    590.800    575.893    575.893    575.893
 27.370    612.497    592.526     19.971    575.472    592.523    575.472    575.472    575.472
 27.470    649.000    594.954     54.046    575.050    594.951    575.050    575.050    575.050
 27.570    656.000    598.585     57.415    574.626    598.580    574.626    574.626    574.626
 27.670    712.000    604.631    107.369    574.201    604.624    574.201    574.201    574.201
 27.770    668.000    615.944     52.056    573.775    615.932    573.775    573.775    573.775
 27.870    606.109    638.091    -31.982    573.348    638.071    573.348    573.348    573.348
 27.970    694.000    679.033     14.967    572.920    678.999    572.920    572.920    572.920
 28.070    752.000    744.954      7.046    572.491    744.903    572.491    572.491    572.491
 28.170    817.000    831.525    -14.525    572.060    831.457    572.060    572.060    572.060
 28.270    962.000    914.049     47.951    571.629    913.975    571.629    571.629    571.629
 28.370    886.665    949.594    -62.928    571.197    949.529    571.197    571.197    571.197
 28.470    945.000    916.622     28.378    570.764    916.574    570.764    570.764    570.764
 28.570    868.439    850.098     18.340    570.330    850.065    570.330    570.330    570.330
 28.670    864.000    797.980     66.020    569.895    797.953    569.895    569.895    569.895
 28.770    747.000    783.898    -36.898    569.459    783.874    569.459    569.459    569.459
 28.870    769.632    805.401    -35.768    569.023    805.379    569.023    569.023    569.023
 28.970    851.000    838.953     12.047    568.586    838.938    568.586    568.586    568.586
 29.070    916.000    849.224     66.776    568.148    849.220    568.148    568.148    568.148
 29.170    787.238    816.456    -29.218    567.709    816.460    567.709    567.709    567.709
 29.270    780.000    757.223     22.777    567.270    757.229    567.270    567.270    567.270
 29.370    724.000    697.915     26.085    566.831    697.920    566.831    566.831    566.831
 29.470    731.000    652.262     78.738    566.390    652.265    566.390    566.390    566.390
 29.570    681.000    622.461     58.539    565.950    622.462    565.950    565.950    565.950
 29.670    683.000    605.011     77.989    565.508    605.010    565.508    565.508    565.508
 29.770    639.000    595.214     43.786    565.067    595.212    565.067    565.067    565.067
 29.870    678.000    589.511     88.489    564.625    589.509    564.625    564.625    564.625
 29.970    672.000    585.898     86.102    564.182    585.896    564.182    564.182    564.182
 30.070    692.000    583.452    108.548    563.739    583.449    563.739    563.739    563.739
 30.170    630.064    581.814     48.250    563.296    581.811    563.296    563.296    563.296
 30.270    653.000    580.924     72.076    562.853    580.920    562.853    562.853    562.853
 30.370    630.000    580.968     49.032    562.409    580.963    562.409    562.409    562.409
 30.470    642.000    582.446     59.554    561.965    582.439    561.965    561.965    561.965
 30.570    688.000    586.200    101.800    561.521    586.189    561.521    561.521    561.521
 30.670    639.000    593.215     45.785    561.077    593.198    561.077    561.077    561.077
 30.770    587.935    604.035    -16.101    560.633    604.010    560.633    560.633    560.633
 30.870    667.000    617.775     49.225    560.188    617.739    560.188    560.188    560.188
 30.970    673.000    630.824     42.176    559.744    630.780    559.744    559.744    559.744
 31.070    710.000    636.693     73.307    559.300    636.647    559.300    559.300    559.300
 31.170    692.000    631.097     60.903    558.855    631.056    558.855    558.855    558.855
 31.270    642.000    617.474     24.526    558.411    617.443    558.411    558.411    558.411
 31.370    619.599    602.319     17.280    557.966    602.298    557.966    557.966    557.966
 31.470    677.000    589.666     87.334    557.522    589.653    557.522    557.522    557.522
 31.570    609.000    580.719     28.281    557.078    580.710    557.078    557.078    557.078
 31.670    585.000    575.063      9.937    556.634    575.057    556.634    556.634    556.634
 31.770    596.000    571.708     24.292    556.190    571.704    556.190    556.190    556.190
 31.870    613.526    569.731     43.795    555.747    569.728    555.747    555.747    555.747
 31.970    586.178    568.519     17.659    555.304    568.516    555.304    555.304    555.304
 32.070    629.000    567.742     61.258    554.861    567.740    554.861    554.861    554.861
 32.170    569.000    567.251      1.749    554.418    567.249    554.418    554.418    554.418
 32.270    605.000    566.983     38.017    553.975    566.981    553.975    553.975    553.975
 32.370    609.863    566.918     42.945    553.533    566.916    553.533    553.533    553.533
 32.470    602.000    567.056     34.944    553.092    567.054    553.092    553.092    553.092
 32.570    531.799    567.412    -35.613    552.651    567.410    552.651    552.651    552.651
 32.670    571.000    568.018      2.982    552.210    568.016    552.210    552.210    552.210
 32.770    563.000    568.920     -5.920    551.769    568.918    551.769    551.769    551.769
 32.870    572.000    570.188      1.812    551.330    570.186    551.330    551.330    551.330
 32.970    535.000    571.924    -36.924    550.890    571.921    550.890    550.890    550.890
 33.070    571.186    574.288     -3.102    550.452    574.285    550.452    550.452    550.452
 33.170    504.000    577.555    -73.555    550.013    577.551    550.013    550.013    550.013
 33.270    545.000    582.258    -37.258    549.576    582.254    549.576    549.576    549.576
 33.370    570.971    589.493    -18.522    549.139    589.488    549.139    549.139    549.139
 33.470    625.000    601.426     23.574    548.703    601.419    548.703    548.703    548.703
 33.570    582.642    621.861    -39.219    548.267    621.850    548.267    548.267    548.267
 33.670    663.000    656.313      6.687    547.832    656.296    547.832    547.832    547.832
 33.770    706.659    710.742     -4.083    547.398    710.716    547.398    547.398    547.398
 33.870    784.530    788.303     -3.772    546.964    788.265    546.964    546.964    546.964
 33.970    880.361    884.003     -3.641    546.532    883.954    546.532    546.532    546.532
 34.070    916.887    977.724    -60.838    546.100    977.669    546.100    546.100    546.100
 34.170   1100.753   1032.664     68.089    545.669   1032.614    545.669    545.669    545.669
 34.270   1045.000   1018.613     26.387    545.238   1018.580    545.238    545.238    545.238
 34.370    884.930    944.244    -59.314    544.809    944.228    544.809    544.809    544.809
 34.470    816.000    845.958    -29.958    544.380    845.952    544.380    544.380    544.380
 34.570    747.000    754.804     -7.804    543.953    754.803    543.953    543.953    543.953
 34.670    626.000    684.704    -58.704    543.526    684.704    543.526    543.526    543.526
 34.770    634.000    637.083     -3.083    543.100    637.083    543.100    543.100    543.100
 34.870    603.000    607.346     -4.346    542.676    607.345    542.676    542.676    542.676
 34.970    568.000    589.481    -21.481    542.252    589.480    542.252    542.252    542.252
 35.070    582.000    578.560      3.440    541.829    578.559    541.829    541.829    541.829
 35.170    558.000    571.421    -13.421    541.408    571.420    541.408    541.408    541.408
 35.270    582.000    566.339     15.661    540.987    566.338    540.987    540.987    540.987
 35.370    539.874    562.459    -22.585    540.568    562.458    540.568    540.568    540.568
 35.470    532.000    559.354    -27.354    540.149    559.353    540.149    540.149    540.149
 35.570    587.000    556.797     30.203    539.732    556.796    539.732    539.732    539.732
 35.670    568.000    554.647     13.353    539.316    554.646    539.316    539.316    539.316
 35.770    556.000    552.810      3.190    538.901    552.809    538.901    538.901    538.901
 35.870    541.000    551.218    -10.218    538.487    551.218    538.487    538.487    538.487
 35.970    538.000    549.822    -11.822    538.074    549.822    538.074    538.074    538.074
 36.070    540.000    548.585     -8.585    537.663    548.584    537.663    537.663    537.663
 36.170    559.000    547.478     11.522    537.253    547.477    537.253    537.253    537.253
 36.270    581.681    546.479     35.202    536.844    546.479    536.844    536.844    536.844
 36.370    541.593    545.574     -3.981    536.436    545.573    536.436    536.436    536.436
 36.470    544.377    544.748     -0.371    536.030    544.748    536.030    536.030    536.030
 36.570    518.000    543.995    -25.995    535.625    543.995    535.625    535.625    535.625
 36.670    522.000    543.308    -21.308    535.221    543.308    535.221    535.221    535.221
 36.770    548.537    542.686      5.851    534.819    542.686    534.819    534.819    534.819
 36.870    557.000    542.131     14.869    534.418    542.131    534.418    534.418    534.418
 36.970    525.146    541.659    -16.513    534.019    541.659    534.019    534.019    534.019
 37.070    552.019    541.306     10.712    533.620    541.307    533.620    533.620    533.620
 37.170    509.000    541.157    -32.157    533.224    541.158    533.224    533.224    533.224
 37.270    509.025    541.364    -32.339    532.828    541.365    532.828    532.828    532.828
 37.370    523.000    542.153    -19.153    532.435    542.154    532.435    532.435    532.435
 37.470    567.000    543.762     23.238    532.042    543.764    532.042    532.042    532.042
 37.570    529.000    546.292    -17.292    531.651    546.295    531.651    531.651    531.651
 37.670    551.000    549.492      1.508    531.262    549.495    531.262    531.262    531.262
 37.770    536.000    552.517    -16.517    530.874    552.521    530.874    530.874    530.874
 37.870    550.000    553.968     -3.968    530.488    553.974    530.488    530.488    530.488
 37.970    553.174    552.909      0.266    530.103    552.917    530.103    530.103    530.103
 38.070    598.092    549.902     48.190    529.720    549.912    529.720    529.720    529.720
 38.170    513.098    546.177    -33.078    529.338    546.187    529.338    529.338    529.338
 38.270    542.000    542.608     -0.608    528.958    542.618    528.958    528.958    528.958
 38.370    520.223    539.611    -19.388    528.580    539.619    528.580    528.580    528.580
 38.470    494.000    537.311    -43.311    528.203    537.318    528.203    528.203    528.203
 38.570    518.000    535.635    -17.635    527.828    535.639    527.828    527.828    527.828
 38.670    502.000    534.420    -32.420    527.454    534.423    527.454    527.454    527.454
 38.770    547.791    533.512     14.279    527.083    533.515    527.083    527.083    527.083
 38.870    543.647    532.800     10.846    526.712    532.802    526.712    526.712    526.712
 38.970    552.000    532.210     19.790    526.344    532.211    526.344    526.344    526.344
 39.070    578.785    531.696     47.089    525.977    531.697    525.977    525.977    525.977
 39.170    506.245    531.232    -24.988    525.612    531.233    525.612    525.612    525.612
 39.270    524.000    530.802     -6.802    525.249    530.803    525.249    525.249    525.249
 39.370    485.551    530.398    -44.846    524.887    530.398    524.887    524.887    524.887
 39.470    555.000    530.014     24.986    524.527    530.014    524.527    524.527    524.527
 39.570    551.000    529.647     21.353    524.169    529.648    524.169    524.169    524.169
 39.670    523.000    529.296     -6.296    523.813    529.297    523.813    523.813    523.813
 39.770    537.304    528.960      8.344    523.458    528.960    523.458    523.458    523.458
 39.870    487.092    528.638    -41.546    523.106    528.638    523.106    523.106    523.106
 39.970    535.134    528.329      6.805    522.755    528.330    522.755    522.755    522.755
 40.070    550.260    528.034     22.226    522.406    528.035    522.406    522.406    522.406
 40.170    509.928    527.753    -17.826    522.059    527.754    522.059    522.059    522.059
 40.270    567.236    527.487     39.749    521.713    527.488    521.713    521.713    521.713
 40.370    541.806    527.237     14.569    521.370    527.238    521.370    521.370    521.370
 40.470    507.000    527.004    -20.004    521.028    527.004    521.028    521.028    521.028
 40.570    537.896    526.789     11.107    520.688    526.790    520.688    520.688    520.688
 40.670    549.000    526.595     22.405    520.350    526.596    520.350    520.350    520.350
 40.770    523.000    526.425     -3.425    520.014    526.426    520.014    520.014    520.014
 40.870    507.000    526.281    -19.281    519.680    526.282    519.680    519.680    519.680
 40.970    554.039    526.170     27.870    519.348    526.171    519.348    519.348    519.348
 41.070    532.000    526.095      5.905    519.018    526.096    519.018    519.018    519.018
 41.170    463.000    526.065    -63.065    518.690    526.067    518.690    518.690    518.690
 41.270    526.000    526.089     -0.089    518.363    526.091    518.363    518.363    518.363
 41.370    514.000    526.180    -12.180    518.039    526.181    518.039    518.039    518.039
 41.470    547.000    526.354     20.646    517.717    526.356    517.717    517.717    517.717
 41.570    478.000    526.636    -48.636    517.396    526.638    517.396    517.396    517.396
 41.670    520.000    527.066     -7.066    517.078    527.068    517.078    517.078    517.078
 41.770    534.000    527.712      6.288    516.761    527.715    516.761    516.761    516.761
 41.870    530.000    528.705      1.295    516.447    528.708    516.447    516.447    516.447
 41.970    542.508    530.298     12.209    516.134    530.303    516.134    516.134    516.134
 42.070    525.000    532.951     -7.951    515.824    532.956    515.824    515.824    515.824
 42.170    500.000    537.404    -37.404    515.515    537.411    515.515    515.515    515.515
 42.270    477.000    544.671    -67.671    515.209    544.683    515.209    515.209    515.209
 42.370    510.268    555.838    -45.570    514.904    555.854    514.904    514.904    514.904
 42.470    605.750    571.593     34.156    514.602    571.617    514.602    514.602    514.602
 42.570    550.000    591.544    -41.544    514.301    591.578    514.301    514.301    514.301
 42.670    550.000    613.318    -63.318    514.003    613.363    514.003    514.003    514.003
 42.770    584.608    631.688    -47.080    513.707    631.743    513.707    513.707    513.707
 42.870    590.000    639.432    -49.432    513.413    639.493    513.413    513.413    513.413
 42.970    587.000    632.518    -45.518    513.121    632.578    513.121    513.121    513.121
 43.070    584.339    614.428    -30.089    512.831    614.481    512.831    512.831    512.831
 43.170    582.000    592.310    -10.310    512.543    592.352    512.543    512.543    512.543
 43.270    551.842    571.630    -19.788    512.257    571.661    512.257    512.257    512.257
 43.370    512.427    555.002    -42.575    511.973    555.024    511.973    511.973    511.973
 43.470    532.000    542.975    -10.975    511.692    542.990    511.692    511.692    511.692
 43.570    475.000    534.936    -59.936    511.412    534.946    511.412    511.412    511.412
 43.670    516.000    529.817    -13.817    511.135    529.824    511.135    511.135    511.135
 43.770    521.000    526.588     -5.588    510.859    526.593    510.859    510.859    510.859
 43.870    518.000    524.481     -6.481    510.586    524.485    510.586    510.586    510.586
 43.970    512.000    523.013    -11.013    510.315    523.017    510.315    510.315    510.315
 44.070    531.387    521.915      9.472    510.046    521.918    510.046    510.046    510.046
 44.170    550.686    521.047     29.639    509.779    521.049    509.779    509.779    509.779
 44.270    478.000    520.335    -42.335    509.514    520.337    509.514    509.514    509.514
 44.370    472.204    519.739    -47.535    509.252    519.740    509.252    509.252    509.252
 44.470    473.000    519.233    -46.233    508.991    519.234    508.991    508.991    508.991
 44.570    527.962    518.800      9.161    508.733    518.802    508.733    508.733    508.733
 44.670    508.817    518.429     -9.611    508.477    518.430    508.477    508.477    508.477
 44.770    499.000    518.109    -19.109    508.223    518.109    508.223    508.223    508.223
 44.870    556.633    517.833     38.800    507.971    517.834    507.971    507.971    507.971
 44.970    478.370    517.597    -39.228    507.721    517.598    507.721    507.721    507.721
 45.070    493.000    517.398    -24.398    507.474    517.398    507.474    507.474    507.474
 45.170    556.901    517.231     39.670    507.229    517.231    507.229    507.229    507.229
 45.270    517.000    517.095     -0.095    506.985    517.096    506.985    506.985    506.985
 45.370    520.140    516.990      3.150    506.744    516.990    506.744    506.744    506.744
 45.470    518.000    516.914      1.086    506.505    516.914    506.505    506.505    506.505
 45.570    484.000    516.868    -32.868    506.269    516.868    506.269    506.269    506.269
 45.670    535.000    516.852     18.148    506.034    516.851    506.034    506.034    506.034
 45.770    501.852    516.867    -15.015    505.802    516.866    505.802    505.802    505.802
 45.870    547.000    516.915     30.085    505.572    516.914    505.572    505.572    505.572
 45.970    524.286    516.998      7.288    505.344    516.997    505.344    505.344    505.344
 46.070    574.000    517.119     56.881    505.118    517.119    505.118    505.118    505.118
 46.170    520.000    517.282      2.718    504.894    517.282    504.894    504.894    504.894
 46.270    494.844    517.493    -22.649    504.673    517.492    504.673    504.673    504.673
 46.370    503.150    517.756    -14.607    504.454    517.755    504.454    504.454    504.454
 46.470    509.000    518.081     -9.081    504.236    518.080    504.236    504.236    504.236
 46.570    537.207    518.478     18.729    504.022    518.476    504.022    504.022    504.022
 46.670    528.156    518.960      9.195    503.809    518.959    503.809    503.809    503.809
 46.770    489.000    519.551    -30.551    503.598    519.549    503.598    503.598    503.598
 46.870    518.000    520.284     -2.284    503.390    520.282    503.390    503.390    503.390
 46.970    556.617    521.224     35.394    503.184    521.221    503.184    503.184    503.184
 47.070    549.000    522.484     26.516    502.980    522.480    502.980    502.980    502.980
 47.170    475.771    524.269    -48.498    502.778    524.265    502.778    502.778    502.778
 47.270    553.000    526.912     26.088    502.578    526.905    502.578    502.578    502.578
 47.370    540.000    530.890      9.110    502.381    530.881    502.381    502.381    502.381
 47.470    506.304    536.782    -30.478    502.185    536.769    502.185    502.185    502.185
 47.570    497.000    545.119    -48.119    501.992    545.100    501.992    501.992    501.992
 47.670    584.000    556.129     27.871    501.801    556.102    501.801    501.801    501.801
 47.770    581.764    569.400     12.365    501.612    569.364    501.612    501.612    501.612
 47.870    610.000    583.483     26.517    501.426    583.438    501.426    501.426    501.426
 47.970    588.000    595.572     -7.572    501.241    595.519    501.241    501.241    501.241
 48.070    602.000    602.030     -0.030    501.059    601.974    501.059    501.059    501.059
 48.170    582.000    600.672    -18.672    500.879    600.620    500.879    500.879    500.879
 48.270    565.056    592.780    -27.725    500.701    592.736    500.701    500.701    500.701
 48.370    544.143    581.853    -37.710    500.525    581.818    500.525    500.525    500.525
 48.470    604.000    571.124     32.876    500.352    571.098    500.352    500.352    500.352
 48.570    549.000    562.544    -13.544    500.180    562.525    500.180    500.180    500.180
 48.670    592.000    556.921     35.079    500.011    556.908    500.011    500.011    500.011
 48.770    547.000    554.317     -7.317    499.844    554.308    499.844    499.844    499.844
 48.870    567.000    554.418     12.582    499.679    554.411    499.679    499.679    499.679
 48.970    571.000    556.838     14.162    499.516    556.832    499.516    499.516    499.516
 49.070    569.000    561.354      7.646    499.355    561.349    499.355    499.355    499.355
 49.170    535.143    568.091    -32.948    499.197    568.086    499.197    499.197    499.197
 49.270    550.000    577.795    -27.795    499.040    577.790    499.040    499.040    499.040
 49.370    559.000    592.363    -33.363    498.886    592.356    498.886    498.886    498.886
 49.470    624.000    615.812      8.188    498.734    615.802    498.734    498.734    498.734
 49.570    601.000    655.641    -54.641    498.584    655.624    498.584    498.584    498.584
 49.670    644.000    723.958    -79.958    498.436    723.929    498.436    498.436    498.436
 49.770    874.144    837.014     37.130    498.290    836.967    498.290    498.290    498.290
 49.870    974.000   1011.396    -37.396    498.147   1011.324    498.147    498.147    498.147
 49.970   1157.000   1256.103    -99.103    498.005   1256.004    498.005    498.005    498.005
 50.070   1573.000   1561.924     11.076    497.866   1561.805    497.866    497.866    497.866
 50.170   1830.000   1891.111    -61.111    497.728   1890.992    497.728    497.728    497.728
 50.270   2240.277   2171.877     68.400    497.593   2171.790    497.593    497.593    497.593
 50.370   2325.000   2312.706     12.294    497.460   2312.691    497.460    497.460    497.460
 50.470   2306.283   2256.106     50.177    497.329   2256.179    497.329    497.329    497.329
 50.570   2107.000   2028.463     78.537    497.200   2028.602    497.200    497.200    497.200
 50.670   1725.000   1714.543     10.457    497.073   1714.708    497.073    497.073    497.073
 50.770   1344.177   1397.878    -53.701    496.949   1398.035    496.949    496.949    496.949
 50.870   1049.000   1131.286    -82.286    496.826   1131.417    496.826    496.826    496.826
 50.970    960.059    935.550     24.509    496.705    935.652    496.705    496.705    496.705
 51.070    753.000    807.923    -54.923    496.587    808.000    496.587    496.587    496.587
 51.170    707.000    732.749    -25.749    496.470    732.810    496.470    496.470    496.470
 51.270    633.000    690.691    -57.691    496.356    690.741    496.356    496.356    496.356
 51.370    642.399    664.868    -22.469    496.243    664.911    496.243    496.243    496.243
 51.470    678.000    644.443     33.557    496.133    644.480    496.133    496.133    496.133
 51.570    594.211    625.332    -31.121    496.024    625.364    496.024    496.024    496.024
 51.670    588.000    607.547    -19.547    495.918    607.571    495.918    495.918    495.918
 51.770    606.000    592.140     13.860    495.814    592.158    495.814    495.814    495.814
 51.870    636.000    579.855     56.145    495.711    579.869    495.711    495.711    495.711
 51.970    560.719    570.872    -10.153    495.611    570.882    495.611    495.611    495.611
 52.070    590.000    564.916     25.084    495.513    564.923    495.513    495.513    495.513
 52.170    589.000    561.488     27.512    495.417    561.493    495.417    495.417    495.417
 52.270    568.000    560.093      7.907    495.322    560.097    495.322    495.322    495.322
 52.370    596.419    560.405     36.014    495.230    560.408    495.230    495.230    495.230
 52.470    590.578    562.373     28.205    495.140    562.376    495.140    495.140    495.140
 52.570    597.480    566.318     31.162    495.051    566.321    495.051    495.051    495.051
 52.670    610.247    573.069     37.178    494.965    573.070    494.965    494.965    494.965
 52.770    586.839    584.166      2.672    494.880    584.168    494.880    494.880    494.880
 52.870    633.000    602.062     30.938    494.798    602.063    494.798    494.798    494.798
 52.970    609.531    630.151    -20.620    494.717    630.150    494.717    494.717    494.717
 53.070    683.598    672.414     11.184    494.638    672.412    494.638    494.638    494.638
 53.170    688.183    732.492    -44.308    494.562    732.489    494.562    494.562    494.562
 53.270    819.000    812.155      6.845    494.487    812.152    494.487    494.487    494.487
 53.370    930.000    909.353     20.647    494.414    909.352    494.414    494.414    494.414
 53.470    975.538   1016.065    -40.527    494.343   1016.068    494.343    494.343    494.343
 53.570   1098.000   1116.346    -18.346    494.274   1116.357    494.274    494.274    494.274
 53.670   1175.000   1186.879    -11.879    494.207   1186.900    494.207    494.207    494.207
 53.770   1156.000   1205.065    -49.065    494.141   1205.097    494.141    494.141    494.141
 53.870   1176.497   1163.990     12.507    494.078   1164.028    494.078    494.078    494.078
 53.970   1113.053   1078.552     34.501    494.016   1078.590    494.016    494.016    494.016
 54.070    943.000    973.621    -30.621    493.956    973.656    493.956    493.956    493.956
 54.170    870.000    870.112     -0.112    493.898    870.141    493.898    493.898    493.898
 54.270    765.000    780.498    -15.498    493.842    780.521    493.842    493.842    493.842
 54.370    700.000    709.998     -9.998    493.788    710.015    493.788    493.788    493.788
 54.470    643.000    658.786    -15.786    493.736    658.798    493.736    493.736    493.736
 54.570    677.695    624.073     53.622    493.685    624.081    493.685    493.685    493.685
 54.670    655.905    601.907     53.998    493.636    601.913    493.636    493.636    493.636
 54.770    604.000    588.467     15.533    493.589    588.472    493.589    493.589    493.589
 54.870    575.000    580.734     -5.734    493.544    580.737    493.544    493.544    493.544
 54.970    609.840    576.649     33.191    493.500    576.652    493.500    493.500    493.500
 55.070    617.020    574.968     42.052    493.459    574.971    493.459    493.459    493.459
 55.170    611.000    575.017     35.983    493.419    575.020    493.419    493.419    493.419
 55.270    554.000    576.483    -22.483    493.380    576.485    493.380    493.380    493.380
 55.370    600.707    579.267     21.439    493.344    579.270    493.344    493.344    493.344
 55.470    548.000    583.423    -35.423    493.309    583.425    493.309    493.309    493.309
 55.570    632.320    589.144     43.175    493.276    589.146    493.276    493.276    493.276
 55.670    577.000    596.831    -19.831    493.245    596.833    493.245    493.245    493.245
 55.770    553.988    607.243    -53.255    493.215    607.244    493.215    493.215    493.215
 55.870    647.000    621.784     25.216    493.187    621.785    493.187    493.187    493.187
 55.970    644.000    642.957      1.043    493.161    642.957    493.161    493.161    493.161
 56.070    663.000    674.948    -11.948    493.136    674.945    493.136    493.136    493.136
 56.170    708.000    724.177    -16.177    493.113    724.170    493.113    493.113    493.113
 56.270    724.000    799.461    -75.461    493.092    799.449    493.092    493.092    493.092
 56.370    819.000    911.269    -92.269    493.072    911.249    493.072    493.072    493.072
 56.470   1011.983   1069.627    -57.644    493.054   1069.599    493.054    493.054    493.054
 56.570   1160.000   1280.598   -120.598    493.037   1280.565    493.037    493.037    493.037
 56.670   1532.795   1541.763     -8.968    493.022   1541.731    493.022    493.022    493.022
 56.770   1778.885   1837.343    -58.458    493.009   1837.323    493.009    493.009    493.009
 56.870   2086.000   2133.553    -47.553    492.997   2133.561    492.997    492.997    492.997
 56.970   2458.245   2376.943     81.303    492.987   2376.998    492.987    492.987    492.987
 57.070   2500.128   2505.277     -5.149    492.979   2505.396    492.979    492.979    492.979
 57.170   2496.000   2478.244     17.756    492.972   2478.427    492.972    492.972    492.972
 57.270   2391.163   2305.797     85.366    492.966   2306.021    492.966    492.966    492.966
 57.370   2040.000   2040.067     -0.067    492.962   2040.299    492.962    492.962    492.962
 57.470   1784.000   1742.196     41.804    492.960   1742.409    492.960    492.960    492.960
 57.570   1428.000   1458.973    -30.973    492.959   1459.154    492.959    492.959    492.959
 57.670   1222.000   1217.676      4.324    492.960   1217.817    492.960    492.960    492.960
 57.770    932.000   1029.232    -97.232    492.962   1029.336    492.962    492.962    492.962
 57.870    868.000    893.098    -25.098    492.965    893.170    492.965    492.965    492.965
 57.970    798.000    802.204     -4.204    492.970    802.251    492.970    492.970    492.970
 58.070    695.000    747.325    -52.325    492.976    747.353    492.976    492.976    492.976
 58.170    701.762    720.200    -18.439    492.984    720.213    492.984    492.984    492.984
 58.270    665.631    715.061    -49.430    492.994    715.062    492.994    492.994    492.994
 58.370    671.000    728.745    -57.745    493.004    728.736    493.004    493.004    493.004
 58.470    806.079    759.847     46.233    493.016    759.828    493.016    493.016    493.016
 58.570    775.000    807.401    -32.401    493.030    807.374    493.030    493.030    493.030
 58.670    863.000    869.432     -6.432    493.045    869.399    493.045    493.045    493.045
 58.770    985.000    941.666     43.334    493.061    941.632    493.061    493.061    493.061
 58.870   1038.000   1017.183     20.817    493.079   1017.154    493.079    493.079    493.079
 58.970   1119.000   1088.023     30.977    493.098   1088.003    493.098    493.098    493.098
 59.070   1254.000   1147.738    106.262    493.118   1147.730    493.118    493.118    493.118
 59.170   1265.000   1191.553     73.447    493.139   1191.557    493.139    493.139    493.139
 59.270   1232.000   1214.780     17.220    493.162   1214.797    493.162    493.162    493.162
 59.370   1320.000   1214.732    105.268    493.186   1214.756    493.186    493.186    493.186
 59.470   1312.000   1195.548    116.452    493.212   1195.568    493.212    493.212    493.212
 59.570   1235.133   1168.508     66.625    493.239   1168.512    493.239    493.239    493.239
 59.670   1174.000   1146.459     27.541    493.267   1146.435    493.267    493.267    493.267
 59.770   1221.000   1139.089     81.911    493.296   1139.029    493.296    493.296    493.296
 59.870   1224.000   1152.628     71.372    493.326   1152.527    493.326    493.326    493.326
 59.970   1217.000   1191.069     25.931    493.358   1190.924    493.358    493.358    493.358
 60.070   1298.000   1255.126     42.874    493.391   1254.936    493.391    493.391    493.391
 60.170   1280.825   1339.097    -58.272    493.425   1338.867    493.425    493.425    493.425
 60.270   1544.000   1428.341    115.659    493.460   1428.083    493.460    493.460    493.460
 60.370   1420.238   1499.514    -79.276    493.497   1499.247    493.497    493.497    493.497
 60.470   1567.000   1526.383     40.617    493.534   1526.135    493.534    493.534    493.534
 60.570   1496.000   1492.575      3.425    493.573   1492.367    493.573    493.573    493.573
 60.670   1415.000   1401.984     13.016    493.613   1401.826    493.613    493.613    493.613
 60.770   1329.000   1275.057     53.943    493.654   1274.946    493.654    493.654    493.654
 60.870   1198.000   1136.203     61.797    493.696   1136.129    493.696    493.696    493.696
 60.970   1036.156   1004.918     31.238    493.739   1004.870    493.739    493.739    493.739
 61.070    919.000    893.446     25.554    493.783    893.414    493.783    493.783    493.783
 61.170    849.453    807.650     41.803    493.829    807.627    493.829    493.829    493.829
 61.270    792.657    748.795     43.862    493.875    748.773    493.875    493.875    493.875
 61.370    718.000    715.618      2.382    493.922    715.593    493.922    493.922    493.922
 61.470    702.803    706.250     -3.447    493.971    706.216    493.971    493.971    493.971
 61.570    686.692    719.507    -32.814    494.020    719.462    494.020    494.020    494.020
 61.670    736.646    755.261    -18.615    494.071    755.201    494.071    494.071    494.071
 61.770    803.491    813.847    -10.356    494.122    813.767    494.122    494.122    494.122
 61.870    832.605    894.747    -62.142    494.174    894.645    494.174    494.174    494.174
 61.970   1009.328    994.948     14.380    494.228    994.824    494.228    494.228    494.228
 62.070   1170.748   1107.327     63.420    494.282   1107.183    494.282    494.282    494.282
 62.170   1167.000   1219.345    -52.345    494.337   1219.190    494.337    494.337    494.337
 62.270   1353.396   1312.830     40.566    494.393   1312.676    494.393    494.393    494.393
 62.370   1308.158   1367.081    -58.923    494.450   1366.944    494.450    494.450    494.450
 62.470   1284.000   1367.095    -83.095    494.508   1366.988    494.508    494.508    494.508
 62.570   1294.000   1312.358    -18.358    494.567   1312.284    494.567    494.567    494.567
 62.670   1176.000   1217.171    -41.171    494.627   1217.126    494.627    494.627    494.627
 62.770   1056.910   1102.076    -45.166    494.687   1102.052    494.687    494.687    494.687
 62.870    936.874    985.319    -48.445    494.749    985.309    494.749    494.749    494.749
 62.970    778.000    879.417   -101.417    494.811    879.414    494.811    494.811    494.811
 63.070    784.000    791.165     -7.165    494.874    791.165    494.874    494.874    494.874
 63.170    679.822    722.733    -42.911    494.937    722.732    494.937    494.937    494.937
 63.270    601.000    673.040    -72.040    495.002    673.038    495.002    495.002    495.002
 63.370    628.000    639.190    -11.190    495.067    639.185    495.067    495.067    495.067
 63.470    647.000    617.735     29.265    495.133    617.728    495.133    495.133    495.133
 63.570    559.493    605.617    -46.125    495.200    605.608    495.200    495.200    495.200
 63.670    607.000    600.682      6.318    495.268    600.670    495.268    495.268    495.268
 63.770    595.147    601.859     -6.713    495.336    601.843    495.336    495.336    495.336
 63.870    660.471    609.099     51.372    495.405    609.077    495.405    495.405    495.405
 63.970    676.000    623.155     52.845    495.474    623.127    495.474    495.474    495.474
 64.070    644.000    645.260     -1.260    495.545    645.222    495.545    495.545    495.545
 64.170    690.000    676.687     13.313    495.616    676.638    495.616    495.616    495.616
 64.270    722.590    718.218      4.372    495.687    718.155    495.687    495.687    495.687
 64.370    759.470    769.551    -10.081    495.759    769.472    495.759    495.759    495.759
 64.470    875.000    828.685     46.315    495.832    828.590    495.832    495.832    495.832
 64.570    890.000    891.347     -1.347    495.906    891.238    495.906    495.906    495.906
 64.670    957.000    950.681      6.319    495.980    950.564    495.980    495.980    495.980
 64.770   1032.000    997.874     34.126    496.054    997.756    496.054    496.054    496.054
 64.870    978.675   1024.506    -45.831    496.129   1024.396    496.129    496.129    496.129
 64.970   1004.000   1025.983    -21.983    496.205   1025.889    496.205    496.205    496.205
 65.070   1041.000   1003.460     37.540    496.281   1003.387    496.281    496.281    496.281
 65.170    948.000    962.884    -14.884    496.358    962.833    496.358    496.358    496.358
 65.270    901.813    912.413    -10.600    496.435    912.384    496.435    496.435    496.435
 65.370    812.000    859.730    -47.730    496.513    859.719    496.513    496.513    496.513
 65.470    816.000    810.223      5.777    496.591    810.227    496.591    496.591    496.591
 65.570    738.932    766.484    -27.552    496.669    766.500    496.669    496.669    496.669
 65.670    726.130    728.917     -2.786    496.748    728.939    496.748    496.748    496.748
 65.770    670.000    696.930    -26.930    496.828    696.955    496.828    496.828    496.828
 65.870    651.000    669.964    -18.964    496.908    669.988    496.908    496.908    496.908
 65.970    636.000    647.727    -11.727    496.988    647.747    496.988    496.988    496.988
 66.070    647.000    630.011     16.989    497.069    630.027    497.069    497.069    497.069
 66.170    613.000    616.488     -3.488    497.150    616.499    497.150    497.150    497.150
 66.270    600.492    606.742     -6.250    497.231    606.749    497.231    497.231    497.231
 66.370    554.682    600.363    -45.680    497.313    600.367    497.313    497.313    497.313
 66.470    552.085    596.988    -44.903    497.395    596.991    497.395    497.395    497.395
 66.570    622.443    596.337     26.106    497.477    596.340    497.477    497.477    497.477
 66.670    625.216    598.267     26.948    497.560    598.270    497.560    497.560    497.560
 66.770    555.700    602.862    -47.162    497.643    602.865    497.643    497.643    497.643
 66.870    641.000    610.569     30.431    497.726    610.572    497.726    497.726    497.726
 66.970    625.000    622.385      2.615    497.809    622.389    497.809    497.809    497.809
 67.070    683.982    640.075     43.906    497.893    640.080    497.893    497.893    497.893
 67.170    636.494    666.409    -29.914    497.977    666.413    497.977    497.977    497.977
 67.270    686.000    705.320    -19.320    498.061    705.324    498.061    498.061    498.061
 67.370    759.000    761.889     -2.889    498.145    761.893    498.145    498.145    498.145
 67.470    831.000    841.971    -10.971    498.230    841.976    498.230    498.230    498.230
 67.570    897.000    951.366    -54.366    498.315    951.373    498.315    498.315    498.315
 67.670   1056.000   1094.485    -38.485    498.399   1094.497    498.399    498.399    498.399
 67.770   1224.018   1272.656    -48.639    498.484   1272.677    498.484    498.484    498.484
 67.870   1454.000   1482.305    -28.305    498.570   1482.342    498.570    498.570    498.570
 67.970   1699.818   1713.228    -13.411    498.655   1713.289    498.655    498.655    498.655
 68.070   1909.000   1947.107    -38.107    498.740   1947.201    498.740    498.740    498.740
 68.170   2150.465   2156.762     -6.296    498.825   2156.900    498.825    498.825    498.825
 68.270   2326.000   2308.373     17.627    498.911   2308.563    498.911    498.911    498.911
 68.370   2434.000   2370.359     63.641    498.996   2370.603    498.996    498.996    498.996
 68.470   2226.509   2327.872   -101.363    499.082   2328.161    499.082    499.082    499.082
 68.570   2231.000   2191.479     39.521    499.167   2191.794    499.167    499.167    499.167
 68.670   2011.000   1990.705     20.295    499.253   1991.020    499.253    499.253    499.253
 68.770   1872.000   1759.680    112.320    499.339   1759.974    499.339    499.339    499.339
 68.870   1451.000   1527.061    -76.061    499.424   1527.321    499.424    499.424    499.424
 68.970   1243.000   1312.827    -69.827    499.510   1313.045    499.510    499.510    499.510
 69.070   1112.000   1128.630    -16.630    499.595   1128.806    499.595    499.595    499.595
 69.170    933.856    979.189    -45.333    499.680    979.326    499.680    499.680    499.680
 69.270    850.277    863.975    -13.698    499.766    864.077    499.766    499.766    499.766
 69.370    739.000    779.029    -40.029    499.851    779.104    499.851    499.851    499.851
 69.470    723.620    718.701      4.919    499.936    718.755    499.936    499.936    499.936
 69.570    652.000    677.059    -25.059    500.021    677.097    500.021    500.021    500.021
 69.670    627.016    648.809    -21.793    500.106    648.837    500.106    500.106    500.106
 69.770    648.000    629.740     18.260    500.191    629.761    500.191    500.191    500.191
 69.870    579.000    616.791    -37.791    500.275    616.806    500.275    500.275    500.275
 69.970    652.754    607.894     44.860    500.360    607.906    500.360    500.360    500.360
 70.070    633.000    601.743     31.257    500.444    601.751    500.444    500.444    500.444
 70.170    600.000    597.556      2.444    500.528    597.563    500.528    500.528    500.528
 70.270    638.184    594.900     43.284    500.612    594.904    500.612    500.612    500.612
 70.370    595.000    593.565      1.435    500.695    593.568    500.695    500.695    500.695
 70.470    587.000    593.505     -6.505    500.778    593.506    500.778    500.778    500.778
 70.570    574.094    594.823    -20.729    500.861    594.823    500.861    500.861    500.861
 70.670    614.884    597.799     17.085    500.944    597.796    500.944    500.944    500.944
 70.770    569.407    602.955    -33.548    501.027    602.950    501.027    501.027    501.027
 70.870    653.000    611.157     41.843    501.109    611.148    501.109    501.109    501.109
 70.970    672.000    623.734     48.266    501.191    623.721    501.191    501.191    501.191
 71.070    605.132    642.594    -37.463    501.272    642.575    501.272    501.272    501.272
 71.170    679.000    670.281      8.719    501.353    670.253    501.353    501.353    501.353
 71.270    709.000    709.919     -0.919    501.434    709.880    501.434    501.434    501.434
 71.370    744.000    764.968    -20.968    501.515    764.914    501.515    501.515    501.515
 71.470    828.093    838.747    -10.654    501.595    838.675    501.595    501.595    501.595
 71.570    953.000    933.722     19.278    501.674    933.628    501.674    501.674    501.674
 71.670    981.000   1050.634    -69.634    501.754   1050.516    501.754    501.754    501.754
 71.770   1235.070   1187.561     47.508    501.832   1187.420    501.832    501.832    501.832
 71.870   1304.000   1339.046    -35.046    501.911   1338.883    501.911    501.911    501.911
 71.970   1542.000   1495.331     46.669    501.989   1495.153    501.989    501.989    501.989
 72.070   1629.000   1641.930    -12.930    502.066   1641.745    502.066    502.066    502.066
 72.170   1731.000   1760.263    -29.263    502.143   1760.084    502.143    502.143    502.143
 72.270   1750.111   1830.865    -80.754    502.220   1830.706    502.220    502.220    502.220
 72.370   1844.000   1839.762      4.238    502.296   1839.634    502.296    502.296    502.296
 72.470   1811.000   1784.923     26.077    502.371   1784.829    502.371    502.371    502.371
 72.570   1692.051   1677.375     14.676    502.446   1677.313    502.446    502.446    502.446
 72.670   1451.823   1535.827    -84.004    502.520   1535.791    502.520    502.520    502.520
 72.770   1449.000   1379.649     69.351    502.594   1379.632    502.594    502.594    502.594
 72.870   1254.000   1224.648     29.352    502.668   1224.643    502.668    502.668    502.668
 72.970   1120.586   1081.872     38.713    502.740   1081.875    502.740    502.740    502.740
 73.070    958.743    957.895      0.848    502.812    957.901    502.812    502.812    502.812
 73.170    913.000    855.526     57.474    502.884    855.533    502.884    502.884    502.884
 73.270    838.174    774.674     63.500    502.955    774.680    502.955    502.955    502.955
 73.370    792.000    713.271     78.729    503.025    713.275    503.025    503.025    503.025
 73.470    754.000    668.177     85.823    503.094    668.180    503.094    503.094    503.094
 73.570    702.000    635.939     66.061    503.163    635.942    503.163    503.163    503.163
 73.670    697.000    613.338     83.662    503.231    613.340    503.231    503.231    503.231
 73.770    661.000    597.692     63.308    503.299    597.694    503.299    503.299    503.299
 73.870    575.620    586.955    -11.335    503.366    586.958    503.366    503.366    503.366
 73.970    632.000    579.681     52.319    503.432    579.687    503.432    503.432    503.432
 74.070    583.000    574.904      8.096    503.497    574.912    503.497    503.497    503.497
 74.170    603.000    571.997     31.003    503.561    572.009    503.561    503.561    503.561
 74.270    556.000    570.544    -14.544    503.625    570.560    503.625    503.625    503.625
 74.370    558.269    570.234    -11.965    503.688    570.254    503.688    503.688    503.688
 74.470    575.967    570.780      5.187    503.751    570.806    503.751    503.751    503.751
 74.570    571.000    571.873     -0.873    503.812    571.905    503.812    503.812    503.812
 74.670    649.000    573.143     75.857    503.873    573.180    503.873    503.873    503.873
 74.770    606.158    574.162     31.996    503.933    574.204    503.933    503.933    503.933
 74.870    669.000    574.493     94.507    503.992    574.538    503.992    503.992    503.992
 74.970    548.476    573.807    -25.331    504.050    573.853    504.050    504.050    504.050
 75.070    625.000    572.026     52.974    504.107    572.070    504.107    504.107    504.107
 75.170    654.000    569.369     84.631    504.164    569.410    504.164    504.164    504.164
 75.270    562.758    566.278     -3.520    504.219    566.314    504.219    504.219    504.219
 75.370    589.555    563.283     26.272    504.274    563.313    504.274    504.274    504.274
 75.470    596.000    560.914     35.086    504.328    560.938    504.328    504.328    504.328
 75.570    583.000    559.678     23.322    504.381    559.695    504.381    504.381    504.381
 75.670    593.000    560.056     32.944    504.433    560.066    504.433    504.433    504.433
 75.770    572.000    562.508      9.492    504.484    562.511    504.484    504.484    504.484
 75.870    581.000    567.455     13.545    504.534    567.451    504.534    504.534    504.534
 75.970    619.886    575.244     44.641    504.583    575.233    504.583    504.583    504.583
 76.070    612.000    586.094     25.906    504.631    586.076    504.631    504.631    504.631
 76.170    644.000    600.021     43.979    504.678    599.995    504.678    504.678    504.678
 76.270    630.519    616.762     13.757    504.724    616.728    504.724    504.724    504.724
 76.370    637.000    635.696      1.304    504.769    635.654    504.769    504.769    504.769
 76.470    667.000    655.775     11.225    504.813    655.725    504.813    504.813    504.813
 76.570    650.018    675.471    -25.453    504.857    675.414    504.857    504.857    504.857
 76.670    689.708    692.785     -3.076    504.899    692.724    504.899    504.899    504.899
 76.770    715.907    705.436     10.471    504.940    705.373    504.940    504.940    504.940
 76.870    767.104    711.358     55.746    504.979    711.296    504.979    504.979    504.979
 76.970    704.000    709.418     -5.418    505.018    709.361    505.018    505.018    505.018
 77.070    711.000    699.908     11.092    505.056    699.857    505.056    505.056    505.056
 77.170    677.000    684.398     -7.398    505.093    684.355    505.093    505.093    505.093
 77.270    656.000    665.090     -9.090    505.128    665.054    505.128    505.128    505.128
 77.370    595.174    644.156    -48.982    505.163    644.128    505.163    505.163    505.163
 77.470    668.661    623.378     45.283    505.196    623.356    505.196    505.196    505.196
 77.570    579.000    604.040    -25.040    505.228    604.023    505.228    505.228    505.228
 77.670    570.000    586.954    -16.954    505.259    586.941    505.259    505.259    505.259
 77.770    535.934    572.517    -36.583    505.289    572.508    505.289    505.289    505.289
 77.870    552.000    560.797     -8.797    505.318    560.791    505.318    505.318    505.318
 77.970    597.176    551.619     45.557    505.345    551.614    505.345    505.345    505.345
 78.070    501.299    544.655    -43.356    505.371    544.651    505.371    505.371    505.371
 78.170    539.000    539.510     -0.510    505.396    539.507    505.396    505.396    505.396
 78.270    551.000    535.789     15.211    505.420    535.786    505.420    505.420    505.420
 78.370    557.000    533.135     23.865    505.443    533.133    505.443    505.443    505.443
 78.470    530.259    531.252     -0.993    505.464    531.250    505.464    505.464    505.464
 78.570    515.000    529.927    -14.927    505.484    529.926    505.484    505.484    505.484
 78.670    513.000    528.997    -15.997    505.503    528.996    505.503    505.503    505.503
 78.770    555.000    528.354     26.646    505.521    528.353    505.521    505.521    505.521
 78.870    500.000    527.932    -27.932    505.537    527.931    505.537    505.537    505.537
 78.970    544.000    527.693     16.307    505.552    527.692    505.552    505.552    505.552
 79.070    544.000    527.623     16.377    505.566    527.622    505.566    505.566    505.566
 79.170    521.557    527.723     -6.166    505.579    527.722    505.579    505.579    505.579
 79.270    549.000    528.006     20.994    505.590    528.006    505.590    505.590    505.590
 79.370    483.000    528.496    -45.496    505.600    528.495    505.600    505.600    505.600
 79.470    479.742    529.224    -49.482    505.608    529.223    505.608    505.608    505.608
 79.570    492.526    530.234    -37.707    505.615    530.232    505.615    505.615    505.615
 79.670    550.000    531.580     18.420    505.621    531.578    505.621    505.621    505.621
 79.770    527.000    533.333     -6.333    505.626    533.331    505.626    505.626    505.626
 79.870    494.000    535.588    -41.588    505.629    535.585    505.629    505.629    505.629
 79.970    517.000    538.467    -21.467    505.631    538.463    505.631    505.631    505.631
 80.070    520.609    542.126    -21.518    505.631    542.122    505.631    505.631    505.631
 80.170    538.000    546.761     -8.761    505.630    546.756    505.630    505.630    505.630
 80.270    574.000    552.599     21.401    505.628    552.595    505.628    505.628    505.628
 80.370    577.000    559.905     17.095    505.624    559.901    505.624    505.624    505.624
 80.470    611.000    568.969     42.031    505.618    568.967    505.618    505.618    505.618
 80.570    570.000    580.089    -10.089    505.612    580.088    505.612    505.612    505.612
 80.670    592.000    593.519     -1.519    505.604    593.521    505.604    505.604    505.604
 80.770    609.000    609.390     -0.390    505.594    609.396    505.594    505.594    505.594
 80.870    636.000    627.619      8.381    505.583    627.629    505.583    505.583    505.583
 80.970    596.000    647.829    -51.829    505.571    647.844    505.571    505.571    505.571
 81.070    615.000    669.309    -54.309    505.557    669.330    505.557    505.557    505.557
 81.170    622.000    691.037    -69.037    505.541    691.065    505.541    505.541    505.541
 81.270    681.000    711.792    -30.792    505.524    711.827    505.524    505.524    505.524
 81.370    711.000    730.345    -19.345    505.506    730.387    505.506    505.506    505.506
 81.470    712.000    745.627    -33.627    505.486    745.676    505.486    505.486    505.486
 81.570    794.167    756.823     37.344    505.465    756.879    505.465    505.465    505.465
 81.670    763.000    763.429     -0.429    505.442    763.491    505.442    505.442    505.442
 81.770    737.000    765.291    -28.291    505.418    765.358    505.418    505.418    505.418
 81.870    779.452    762.567     16.885    505.392    762.638    505.392    505.392    505.392
 81.970    788.000    755.609     32.391    505.364    755.683    505.364    505.364    505.364
 82.070    744.000    744.899     -0.899    505.335    744.975    505.335    505.335    505.335
 82.170    761.877    731.103     30.774    505.305    731.178    505.305    505.305    505.305
 82.270    702.000    715.105    -13.105    505.273    715.179    505.273    505.273    505.273
 82.370    760.000    697.882     62.118    505.239    697.953    505.239    505.239    505.239
 82.470    646.000    680.274    -34.274    505.204    680.342    505.204    505.204    505.204
 82.570    634.000    662.863    -28.863    505.167    662.926    505.167    505.167    505.167
 82.670    654.351    646.000      8.351    505.129    646.059    505.129    505.129    505.129
 82.770    615.000    629.956    -14.956    505.089    630.009    505.089    505.089    505.089
 82.870    584.074    615.030    -30.956    505.047    615.076    505.047    505.047    505.047
 82.970    632.590    601.564     31.026    505.004    601.603    505.004    505.004    505.004
 83.070    615.355    589.881     25.473    504.960    589.912    504.960    504.960    504.960
 83.170    598.000    580.230     17.770    504.913    580.253    504.913    504.913    504.913
 83.270    575.000    572.759      2.241    504.865    572.775    504.865    504.865    504.865
 83.370    549.025    567.523    -18.498    504.816    567.530    504.816    504.816    504.816
 83.470    526.000    564.479    -38.479    504.765    564.478    504.765    504.765    504.765
 83.570    543.000    563.493    -20.493    504.712    563.484    504.712    504.712    504.712
 83.670    549.490    564.339    -14.849    504.658    564.322    504.658    504.658    504.658
 83.770    544.000    566.695    -22.695    504.602    566.670    504.602    504.602    504.602
 83.870    545.789    570.144    -24.355    504.544    570.112    504.544    504.544    504.544
 83.970    607.582    574.182     33.400    504.485    574.143    504.485    504.485    504.485
 84.070    573.000    578.222     -5.222    504.424    578.178    504.424    504.424    504.424
 84.170    554.459    581.626    -27.167    504.361    581.578    504.361    504.361    504.361
 84.270    554.000    583.772    -29.772    504.297    583.722    504.297    504.297    504.297
 84.370    536.000    584.173    -48.173    504.231    584.124    504.231    504.231    504.231
 84.470    589.000    582.611      6.389    504.163    582.563    504.163    504.163    504.163
 84.570    551.000    579.192    -28.192    504.094    579.148    504.094    504.094    504.094
 84.670    596.973    574.285     22.688    504.023    574.246    504.023    504.023    504.023
 84.770    575.743    568.355      7.388    503.951    568.321    503.951    503.951    503.951
 84.870    573.279    561.988     11.291    503.876    561.959    503.876    503.876    503.876
 84.970    567.000    555.611     11.389    503.800    555.587    503.800    503.800    503.800
 85.070    521.000    549.556    -28.556    503.723    549.536    503.723    503.723    503.723
 85.170    497.000    544.069    -47.069    503.643    544.052    503.643    503.643    503.643
 85.270    559.000    539.302     19.698    503.562    539.288    503.562    503.562    503.562
 85.370    510.379    535.326    -24.946    503.480    535.315    503.480    503.480    503.480
 85.470    539.628    532.146      7.483    503.395    532.136    503.395    503.395    503.395
 85.570    526.000    529.717     -3.717    503.309    529.709    503.309    503.309    503.309
 85.670    506.000    527.970    -21.970    503.221    527.963    503.221    503.221    503.221
 85.770    524.118    526.825     -2.707    503.132    526.817    503.132    503.132    503.132
 85.870    535.000    526.208      8.792    503.041    526.201    503.041    503.041    503.041
 85.970    557.000    526.067     30.933    502.948    526.059    502.948    502.948    502.948
 86.070    575.317    526.375     48.942    502.853    526.366    502.853    502.853    502.853
 86.170    514.383    527.133    -12.750    502.757    527.123    502.757    502.757    502.757
 86.270    513.000    528.383    -15.383    502.658    528.371    502.658    502.658    502.658
 86.370    535.000    530.191      4.809    502.559    530.175    502.559    502.559    502.559
 86.470    539.601    532.647      6.954    502.457    532.628    502.457    502.457    502.457
 86.570    531.000    535.861     -4.861    502.354    535.838    502.354    502.354    502.354
 86.670    541.000    539.949      1.051    502.249    539.921    502.249    502.249    502.249
 86.770    545.000    545.016     -0.016    502.142    544.982    502.142    502.142    502.142
 86.870    550.943    551.146     -0.203    502.034    551.104    502.034    502.034    502.034
 86.970    542.000    558.371    -16.371    501.924    558.321    501.924    501.924    501.924
 87.070    573.000    566.655      6.345    501.812    566.596    501.812    501.812    501.812
 87.170    605.784    575.867     29.917    501.698    575.797    501.698    501.698    501.698
 87.270    550.742    585.759    -35.017    501.583    585.679    501.583    501.583    501.583
 87.370    560.059    595.956    -35.897    501.466    595.865    501.466    501.466    501.466
 87.470    584.000    605.941    -21.941    501.347    605.841    501.347    501.347    501.347
 87.570    666.573    615.072     51.501    501.227    614.964    501.227    501.227    501.227
 87.670    638.000    622.624     15.376    501.104    622.512    501.104    501.104    501.104
 87.770    643.000    627.900     15.100    500.980    627.786    500.980    500.980    500.980
 87.870    593.007    630.388    -37.381    500.855    630.277    500.855    500.855    500.855
 87.970    655.000    629.916     25.084    500.727    629.811    500.727    500.727    500.727
 88.070    689.000    626.713     62.287    500.598    626.616    500.598    500.598    500.598
 88.170    668.517    621.323     47.194    500.467    621.238    500.467    500.467    500.467
 88.270    623.000    614.472      8.528    500.335    614.399    500.335    500.335    500.335
 88.370    570.305    606.930    -36.625    500.200    606.870    500.200    500.200    500.200
 88.470    581.000    599.430    -18.430    500.064    599.382    500.064    500.064    500.064
 88.570    565.000    592.617    -27.617    499.927    592.582    499.927    499.927    499.927
 88.670    606.000    587.017     18.983    499.787    586.994    499.787    499.787    499.787
 88.770    556.000    583.012    -27.012    499.646    582.999    499.646    499.646    499.646
 88.870    565.000    580.824    -15.824    499.503    580.821    499.503    499.503    499.503
 88.970    540.000    580.512    -40.512    499.359    580.518    499.359    499.359    499.359
 89.070    570.000    581.978    -11.978    499.212    581.993    499.212    499.212    499.212
 89.170    601.132    584.973     16.159    499.064    584.997    499.064    499.064    499.064
 89.270    611.253    589.115     22.138    498.915    589.146    498.915    498.915    498.915
 89.370    585.349    593.899     -8.550    498.763    593.939    498.763    498.763    498.763
 89.470    607.000    598.726      8.274    498.610    598.773    498.610    498.610    498.610
 89.570    630.000    602.933     27.067    498.455    602.987    498.455    498.455    498.455
 89.670    616.709    605.868     10.842    498.299    605.926    498.299    498.299    498.299
 89.770    619.000    606.987     12.013    498.141    607.050    498.141    498.141    498.141
 89.870    603.000    605.979     -2.979    497.981    606.043    497.981    497.981    497.981
 89.970    573.000    602.827    -29.827    497.819    602.891    497.819    497.819    497.819
 90.070    636.319    597.798     38.521    497.656    597.860    497.656    497.656    497.656
 90.170    581.817    591.346     -9.529    497.491    591.404    497.491    497.491    497.491
 90.270    519.000    583.993    -64.993    497.325    584.046    497.325    497.325    497.325
 90.370    604.000    576.242     27.758    497.156    576.290    497.156    497.156    497.156
 90.470    570.000    568.527      1.473    496.986    568.568    496.986    496.986    496.986
 90.570    529.000    561.190    -32.190    496.815    561.225    496.815    496.815    496.815
 90.670    595.409    554.484     40.925    496.642    554.513    496.642    496.642    496.642
 90.770    547.842    548.574     -0.732    496.467    548.598    496.467    496.467    496.467
 90.870    571.975    543.550     28.425    496.290    543.568    496.290    496.290    496.290
 90.970    515.000    539.434    -24.434    496.112    539.448    496.112    496.112    496.112
 91.070    521.000    536.202    -15.202    495.932    536.213    495.932    495.932    495.932
 91.170    509.000    533.797    -24.797    495.751    533.804    495.751    495.751    495.751
 91.270    502.580    532.146    -29.566    495.568    532.151    495.568    495.568    495.568
 91.370    511.862    531.178    -19.316    495.383    531.181    495.383    495.383    495.383
 91.470    540.141    530.835      9.306    495.197    530.836    495.197    495.197    495.197
 91.570    504.000    531.083    -27.083    495.009    531.082    495.009    495.009    495.009
 91.670    497.551    531.917    -34.366    494.820    531.914    494.820    494.820    494.820
 91.770    512.000    533.366    -21.366    494.629    533.362    494.629    494.629    494.629
 91.870    543.000    535.496      7.504    494.436    535.490    494.436    494.436    494.436
 91.970    468.000    538.404    -70.404    494.242    538.396    494.242    494.242    494.242
 92.070    561.000    542.217     18.783    494.046    542.206    494.046    494.046    494.046
 92.170    520.000    547.082    -27.082    493.849    547.069    493.849    493.849    493.849
 92.270    514.608    553.159    -38.551    493.650    553.142    493.650    493.650    493.650
 92.370    530.000    560.603    -30.603    493.450    560.582    493.450    493.450    493.450
 92.470    534.000    569.555    -35.555    493.248    569.529    493.248    493.248    493.248
 92.570    566.000    580.122    -14.122    493.044    580.091    493.044    493.044    493.044
 92.670    558.725    592.359    -33.634    492.839    592.322    492.839    492.839    492.839
 92.770    604.000    606.258     -2.258    492.633    606.215    492.633    492.633    492.633
 92.870    634.181    621.725     12.455    492.425    621.676    492.425    492.425    492.425
 92.970    686.870    638.574     48.296    492.215    638.518    492.215    492.215    492.215
 93.070    681.970    656.505     25.465    492.004    656.443    492.004    492.004    492.004
 93.170    702.281    675.110     27.172    491.792    675.042    491.792    491.792    491.792
 93.270    638.696    693.879    -55.184    491.578    693.807    491.578    491.578    491.578
 93.370    691.236    712.258    -21.023    491.362    712.182    491.362    491.362    491.362
 93.470    744.000    729.733     14.267    491.145    729.654    491.145    491.145    491.145
 93.570    712.000    745.946    -33.946    490.927    745.865    490.927    490.927    490.927
 93.670    740.000    760.778    -20.778    490.707    760.697    490.707    490.707    490.707
 93.770    758.000    774.351    -16.351    490.486    774.272    490.486    490.486    490.486
 93.870    713.000    786.939    -73.939    490.264    786.861    490.264    490.264    490.264
 93.970    810.182    798.834     11.348    490.040    798.757    490.040    490.040    490.040
 94.070    838.000    810.242     27.758    489.814    810.167    489.814    489.814    489.814
 94.170    843.000    821.258     21.742    489.588    821.185    489.588    489.588    489.588
 94.270    843.000    831.912     11.088    489.360    831.842    489.360    489.360    489.360
 94.370    832.000    842.248    -10.248    489.130    842.181    489.130    489.130    489.130
 94.470    867.562    852.361     15.201    488.899    852.297    488.899    488.899    488.899
 94.570    885.000    862.354     22.646    488.667    862.293    488.667    488.667    488.667
 94.670    890.000    872.215     17.785    488.434    872.158    488.434    488.434    488.434
 94.770    821.713    881.700    -59.986    488.199    881.646    488.199    488.199    488.199
 94.870    868.000    890.288    -22.288    487.963    890.240    487.963    487.963    487.963
 94.970    936.000    897.095     38.905    487.726    897.052    487.726    487.726    487.726
 95.070    946.000    901.024     44.976    487.487    900.987    487.487    487.487    487.487
 95.170    901.240    900.941      0.299    487.247    900.912    487.247    487.247    487.247
 95.270    868.000    895.950    -27.950    487.006    895.928    487.006    487.006    487.006
 95.370    906.000    885.661     20.339    486.764    885.647    486.764    486.764    486.764
 95.470    837.959    870.355    -32.396    486.520    870.349    486.520    486.520    486.520
 95.570    902.000    850.957     51.043    486.275    850.957    486.275    486.275    486.275
 95.670    892.000    828.841     63.159    486.029    828.846    486.029    486.029    486.029
 95.770    861.344    805.602     55.742    485.782    805.610    485.782    485.782    485.782
 95.870    806.000    782.867     23.133    485.534    782.876    485.534    485.534    485.534
 95.970    786.000    762.183     23.817    485.284    762.191    485.284    485.284    485.284
 96.070    773.000    744.967     28.033    485.034    744.972    485.034    485.034    485.034
 96.170    736.000    732.483      3.517    484.782    732.484    484.782    484.782    484.782
 96.270    749.000    725.834     23.166    484.529    725.830    484.529    484.529    484.529
 96.370    710.000    725.955    -15.955    484.275    725.944    484.275    484.275    484.275
 96.470    698.000    733.601    -35.601    484.020    733.583    484.020    484.020    484.020
 96.570    706.698    749.343    -42.645    483.764    749.317    483.764    483.764    483.764
 96.670    797.000    773.544     23.456    483.507    773.510    483.507    483.507    483.507
 96.770    791.971    806.340    -14.369    483.249    806.297    483.249    483.249    483.249
 96.870    843.000    847.604     -4.604    482.990    847.552    482.990    482.990    482.990
 96.970    911.000    896.901     14.099    482.730    896.841    482.730    482.730    482.730
 97.070    966.000    953.441     12.559    482.469    953.374    482.469    482.469    482.469
 97.170   1012.000   1016.027     -4.027    482.207   1015.955    482.207    482.207    482.207
 97.270   1047.522   1083.008    -35.486    481.944   1082.932    481.944    481.944    481.944
 97.370   1176.000   1152.241     23.759    481.680   1152.164    481.680    481.680    481.680
 97.470   1229.000   1221.075      7.925    481.415   1220.999    481.415    481.415    481.415
 97.570   1263.000   1286.371    -23.371    481.149   1286.300    481.149    481.149    481.149
 97.670   1416.675   1344.609     72.066    480.883   1344.547    480.883    480.883    480.883
 97.770   1410.000   1392.145     17.855    480.615   1392.096    480.615    480.615    480.615
 97.870   1464.000   1425.649     38.351    480.347   1425.616    480.347    480.347    480.347
 97.970   1444.000   1442.674      1.326    480.078   1442.659    480.078    480.078    480.078
 98.070   1434.261   1442.164     -7.903    479.808   1442.167    479.808    479.808    479.808
 98.170   1461.000   1424.675     36.325    479.537   1424.695    479.537    479.537    479.537
 98.270   1383.000   1392.198     -9.198    479.266   1392.232    479.266    479.266    479.266
 98.370   1438.000   1347.708     90.292    478.993   1347.754    478.993    478.993    478.993
 98.470   1292.568   1294.658     -2.090    478.721   1294.712    478.721    478.721    478.721
 98.570   1198.301   1236.553    -38.252    478.447   1236.612    478.447    478.447    478.447
 98.670   1243.740   1176.710     67.030    478.173   1176.769    478.173    478.173    478.173
 98.770   1126.425   1118.116      8.310    477.898   1118.174    477.898    477.898    477.898
 98.870   1095.884   1063.374     32.510    477.622   1063.429    477.622    477.622    477.622
 98.970   1012.850   1014.702     -1.851    477.346   1014.751    477.346    477.346    477.346
 99.070    994.000    973.948     20.052    477.069    973.991    477.069    477.069    477.069
 99.170    951.716    942.630      9.085    476.791    942.665    476.791    476.791    476.791
 99.270    873.261    921.945    -48.684    476.513    921.973    476.513    476.513    476.513
 99.370    926.609    912.757     13.852    476.235    912.778    476.235    476.235    476.235
 99.470    943.000    915.755     27.245    475.956    915.770    475.956    475.956    475.956
 99.570    934.000    931.286      2.714    475.676    931.296    475.676    475.676    475.676
 99.670    984.000    959.393     24.607    475.396    959.398    475.396    475.396    475.396
 99.770    939.000    999.864    -60.864    475.116    999.867    475.116    475.116    475.116
 99.870   1097.948   1052.198     45.750    474.835   1052.201    474.835    474.835    474.835
 99.970   1117.597   1115.574      2.023    474.554   1115.578    474.554    474.554    474.554
100.070   1190.099   1188.807      1.292    474.272   1188.816    474.272    474.272    474.272
100.170   1238.588   1270.304    -31.716    473.990   1270.320    473.990    473.990    473.990
100.270   1350.000   1358.030     -8.030    473.708   1358.055    473.708    473.708    473.708
100.370   1533.000   1449.482     83.518    473.425   1449.520    473.425    473.425    473.425
100.470   1532.988   1541.703     -8.716    473.142   1541.758    473.142    473.142    473.142
100.570   1665.000   1631.436     33.564    472.859   1631.510    472.859    472.859    472.859
100.670   1764.793   1715.357     49.436    472.575   1715.453    472.575    472.575    472.575
100.770   1832.000   1790.405     41.595    472.292   1790.524    472.292    472.292    472.292
100.870   1849.288   1854.068     -4.780    472.008   1854.211    472.008    472.008    472.008
100.970   1888.470   1904.515    -16.045    471.724   1904.681    471.724    471.724    471.724
101.070   1931.330   1940.510     -9.181    471.440   1940.697    471.440    471.440    471.440
101.170   1965.000   1961.212      3.788    471.156   1961.417    471.156    471.156    471.156
101.270   1873.394   1966.023    -92.628    470.871   1966.244    470.871    470.871    470.871
101.370   1980.000   1954.648     25.352    470.587   1954.881    470.587    470.587    470.587
101.470   1924.000   1927.351     -3.351    470.302   1927.592    470.302    470.302    470.302
101.570   1813.173   1885.266    -72.093    470.018   1885.511    470.018    470.018    470.018
101.670   1888.730   1830.563     58.167    469.734   1830.807    469.734    469.734    469.734
101.770   1801.672   1766.322     35.350    469.449   1766.562    469.449    469.449    469.449
101.870   1687.000   1696.162     -9.162    469.165   1696.392    469.165    469.165    469.165
101.970   1554.866   1623.760    -68.894    468.881   1623.980    468.881    468.881    468.881
102.070   1509.151   1552.446    -43.295    468.597   1552.652    468.597    468.597    468.597
102.170   1513.000   1484.926     28.074    468.313   1485.118    468.313    468.313    468.313
102.270   1438.285   1423.161     15.124    468.029   1423.338    468.029    468.029    468.029
102.370   1317.170   1368.340    -51.171    467.746   1368.503    467.746    467.746    467.746
102.470   1278.000   1320.908    -42.908    467.463   1321.058    467.463    467.463    467.463
102.570   1286.000   1280.619      5.381    467.180   1280.758    467.180    467.180    467.180
102.670   1168.000   1246.616    -78.616    466.897   1246.746    466.897    466.897    466.897
102.770   1138.000   1217.531    -79.531    466.615   1217.653    466.615    466.615    466.615
102.870   1222.857   1191.625     31.233    466.333   1191.742    466.333    466.333    466.333
102.970   1190.481   1166.994     23.486    466.051   1167.108    466.051    466.051    466.051
103.070   1155.000   1141.818     13.182    465.770   1141.929    465.770    465.770    465.770
103.170   1110.827   1114.600     -3.773    465.489   1114.710    465.489    465.489    465.489
103.270   1027.491   1084.447    -56.956    465.209   1084.555    465.209    465.209    465.209
103.370   1007.000   1051.051    -44.051    464.929   1051.157    464.929    464.929    464.929
103.470   1011.000   1014.661     -3.661    464.650   1014.763    464.650    464.650    464.650
103.570   1015.000    975.933     39.067    464.372    976.032    464.372    464.372    464.372
103.670    907.000    935.746    -28.746    464.094    935.839    464.094    464.094    464.094
103.770    915.037    895.039     19.998    463.817    895.126    463.817    463.817    463.817
103.870    895.000    854.712     40.288    463.540    854.793    463.540    463.540    463.540
103.970    862.000    815.572     46.428    463.264    815.646    463.264    463.264    463.264
104.070    846.000    778.301     67.699    462.989    778.367    462.989    462.989    462.989
104.170    816.000    743.444     72.556    462.715    743.503    462.715    462.715    462.715
104.270    687.190    711.401    -24.211    462.441    711.453    462.441    462.441    462.441
104.370    717.295    682.441     34.854    462.168    682.486    462.168    462.168    462.168
104.470    637.000    656.695    -19.695    461.896    656.734    461.896    461.896    461.896
104.570    645.000    634.171     10.829    461.625    634.204    461.625    461.625    461.625
104.670    590.343    614.776    -24.433    461.355    614.804    461.355    461.355    461.355
104.770    644.000    598.338     45.662    461.086    598.361    461.086    461.086    461.086
104.870    542.449    584.629    -42.181    460.818    584.648    460.818    460.818    460.818
104.970    619.539    573.391     46.148    460.551    573.406    460.551    460.551    460.551
105.070    598.000    564.351     33.649    460.285    564.363    460.285    460.285    460.285
105.170    583.000    557.246     25.754    460.021    557.255    460.021    460.021    460.021
105.270    606.000    551.834     54.166    459.757    551.841    459.757    459.757    459.757
105.370    566.000    547.904     18.096    459.495    547.908    459.495    459.495    459.495
105.470    564.000    545.280     18.720    459.233    545.282    459.233    459.233    459.233
105.570    517.000    543.828    -26.828    458.973    543.828    458.973    458.973    458.973
105.670    542.568    543.450     -0.882    458.715    543.448    458.715    458.715    458.715
105.770    494.560    544.086    -49.526    458.458    544.082    458.458    458.458    458.458
105.870    569.000    545.705     23.295    458.202    545.698    458.202    458.202    458.202
105.970    576.000    548.302     27.698    457.947    548.294    457.947    457.947    457.947
106.070    587.000    551.893     35.107    457.694    551.882    457.694    457.694    457.694
106.170    523.000    556.504    -33.504    457.443    556.490    457.443    457.443    457.443
106.270    562.000    562.165     -0.165    457.193    562.148    457.193    457.193    457.193
106.370    566.000    568.902     -2.902    456.944    568.882    456.944    456.944    456.944
106.470    525.684    576.723    -51.039    456.697    576.700    456.697    456.697    456.697
106.570    556.800    585.612    -28.813    456.452    585.587    456.452    456.452    456.452
106.670    549.917    595.518    -45.601    456.209    595.489    456.209    456.209    456.209
106.770    576.000    606.346    -30.346    455.967    606.314    455.967    455.967    455.967
106.870    618.135    617.956      0.178    455.727    617.921    455.727    455.727    455.727
106.970    645.000    630.156     14.844    455.489    630.118    455.489    455.489    455.489
107.070    654.000    642.702     11.298    455.252    642.661    455.252    455.252    455.252
107.170    684.000    655.288     28.712    455.018    655.244    455.018    455.018    455.018
107.270    631.000    667.587    -36.587    454.785    667.542    454.785    454.785    454.785
107.370    673.000    679.243     -6.243    454.555    679.197    454.555    454.555    454.555
107.470    664.239    689.852    -25.613    454.326    689.805    454.326    454.326    454.326
107.570    739.419    699.040     40.379    454.100    698.994    454.100    454.100    454.100
107.670    667.755    706.500    -38.745    453.875    706.456    453.875    453.875    453.875
107.770    742.317    712.038     30.279    453.653    711.996    453.653    453.653    453.653
107.870    753.954    715.614     38.340    453.433    715.576    453.433    453.433    453.433
107.970    648.000    717.357    -69.357    453.215    717.323    453.215    453.215    453.215
108.070    664.032    717.546    -53.515    453.000    717.516    453.000    453.000    453.000
108.170    697.000    716.564    -19.564    452.786    716.538    452.786    452.786    452.786
108.270    703.331    714.840    -11.509    452.575    714.818    452.575    452.575    452.575
108.370    708.052    712.793     -4.741    452.367    712.776    452.367    452.367    452.367
108.470    764.609    710.790     53.819    452.161    710.777    452.161    452.161    452.161
108.570    709.770    709.120      0.651    451.957    709.111    451.957    451.957    451.957
108.670    663.000    707.974    -44.974    451.756    707.969    451.756    451.756    451.756
108.770    671.000    707.444    -36.444    451.558    707.443    451.558    451.558    451.558
108.870    683.342    707.514    -24.172    451.362    707.516    451.362    451.362    451.362
108.970    697.000    708.065    -11.065    451.169    708.070    451.169    451.169    451.169
109.070    656.000    708.882    -52.882    450.979    708.891    450.979    450.979    450.979
109.170    732.000    709.667     22.333    450.791    709.679    450.791    450.791    450.791
109.270    701.000    710.061     -9.061    450.606    710.077    450.606    450.606    450.606
109.370    695.000    709.678    -14.678    450.425    709.696    450.425    450.425    450.425
109.470    760.225    708.150     52.075    450.246    708.171    450.246    450.246    450.246
109.570    694.000    705.178    -11.178    450.070    705.201    450.070    450.070    450.070
109.670    692.000    700.576     -8.576    449.897    700.601    449.897    449.897    449.897
109.770    665.925    694.298    -28.374    449.727    694.324    449.727    449.727    449.727
109.870    688.707    686.436      2.271    449.560    686.463    449.560    449.560    449.560
109.970    666.000    677.199    -11.199    449.396    677.225    449.396    449.396    449.396
110.070    678.000    666.872     11.128    449.236    666.898    449.236    449.236    449.236
110.170    701.213    655.780     45.433    449.078    655.805    449.078    449.078    449.078
110.270    664.000    644.252     19.748    448.924    644.276    448.924    448.924    448.924
110.370    653.766    632.599     21.167    448.774    632.622    448.774    448.774    448.774
110.470    661.534    621.105     40.429    448.627    621.126    448.627    448.627    448.627
110.570    661.000    610.012     50.988    448.483    610.031    448.483    448.483    448.483
110.670    598.000    599.525     -1.525    448.343    599.542    448.343    448.343    448.343
110.770    566.000    589.805    -23.805    448.206    589.820    448.206    448.206    448.206
110.870    621.000    580.975     40.025    448.073    580.987    448.073    448.073    448.073
110.970    546.842    573.116    -26.274    447.944    573.126    447.944    447.944    447.944
111.070    558.402    566.273     -7.871    447.818    566.281    447.818    447.818    447.818
111.170    558.000    560.461     -2.461    447.696    560.468    447.696    447.696    447.696
111.270    505.525    555.664    -50.139    447.578    555.668    447.578    447.578    447.578
111.370    558.000    551.842      6.158    447.464    551.844    447.464    447.464    447.464
111.470    539.054    548.937     -9.883    447.354    548.938    447.354    447.354    447.354
111.570    531.486    546.880    -15.394    447.248    546.879    447.248    447.248    447.248
111.670    547.000    545.593      1.407    447.146    545.592    447.146    447.146    447.146
111.770    573.409    544.997     28.413    447.047    544.993    447.047    447.047    447.047
111.870    561.000    545.010     15.990    446.954    545.006    446.954    446.954    446.954
111.970    575.000    545.557     29.443    446.864    545.552    446.864    446.864    446.864
112.070    561.000    546.568     14.432    446.778    546.562    446.778    446.778    446.778
112.170    533.000    547.981    -14.981    446.697    547.974    446.697    446.697    446.697
112.270    568.000    549.743     18.257    446.620    549.735    446.620    446.620    446.620
112.370    558.000    551.810      6.190    446.548    551.802    446.548    446.548    446.548
112.470    519.000    554.162    -35.162    446.480    554.154    446.480    446.480    446.480
112.570    588.712    556.780     31.933    446.417    556.771    446.417    446.417    446.417
112.670    617.000    559.662     57.338    446.358    559.653    446.358    446.358    446.358
112.770    540.458    562.819    -22.361    446.304    562.810    446.304    446.304    446.304
112.870    555.000    566.274    -11.274    446.255    566.265    446.255    446.255    446.255
112.970    580.000    570.066      9.934    446.210    570.056    446.210    446.210    446.210
113.070    539.258    574.263    -35.005    446.170    574.253    446.170    446.170    446.170
113.170    608.000    578.930     29.070    446.135    578.920    446.135    446.135    446.135
113.270    590.000    584.159      5.841    446.105    584.148    446.105    446.105    446.105
113.370    538.798    590.069    -51.271    446.081    590.057    446.081    446.081    446.081
113.470    567.154    596.811    -29.656    446.061    596.798    446.061    446.061    446.061
113.570    595.000    604.579     -9.579    446.046    604.565    446.046    446.046    446.046
113.670    624.000    613.620     10.380    446.036    613.604    446.036    446.036    446.036
113.770    634.000    624.244      9.756    446.032    624.226    446.032    446.032    446.032
113.870    639.000    636.844      2.156    446.033    636.823    446.033    446.033    446.033
113.970    680.000    651.907     28.093    446.040    651.882    446.040    446.040    446.040
114.070    684.000    670.036     13.964    446.052    670.006    446.052    446.052    446.052
114.170    713.000    691.966     21.034    446.069    691.931    446.069    446.069    446.069
114.270    695.006    718.585    -23.579    446.092    718.542    446.092    446.092    446.092
114.370    752.000    750.944      1.056    446.120    750.892    446.120    446.120    446.120
114.470    823.000    790.277     32.723    446.155    790.214    446.155    446.155    446.155
114.570    798.555    838.002    -39.447    446.195    837.925    446.195    446.195    446.195
114.670    842.000    895.721    -53.721    446.241    895.628    446.241    446.241    446.241
114.770   1002.208    965.212     36.996    446.292    965.100    446.292    446.292    446.292
114.870   1029.000   1048.399    -19.399    446.350   1048.265    446.350    446.350    446.350
114.970   1152.302   1147.315      4.987    446.414   1147.157    446.414    446.414    446.414
115.070   1334.000   1264.046     69.954    446.483   1263.861    446.483    446.483    446.483
115.170   1331.397   1400.657    -69.260    446.559   1400.441    446.559    446.559    446.559
115.270   1684.000   1559.099    124.901    446.641   1558.851    446.641    446.641    446.641
115.370   1844.000   1741.107    102.893    446.730   1740.823    446.730    446.730    446.730
115.470   2027.000   1948.074     78.926    446.824   1947.753    446.824    446.824    446.824
115.570   2244.000   2180.934     63.066    446.925   2180.575    446.925    446.925    446.925
115.670   2559.000   2440.022    118.978    447.033   2439.626    447.033    447.033    447.033
115.770   2845.000   2724.958    120.042    447.147   2724.526    447.147    447.147    447.147
115.870   3094.395   3034.528     59.867    447.268   3034.064    447.268    447.268    447.268
115.970   3430.000   3366.591     63.409    447.395   3366.098    447.395    447.395    447.395
116.070   3710.550   3718.002     -7.453    447.529   3717.487    447.529    447.529    447.529
116.170   4078.000   4084.571     -6.571    447.670   4084.040    447.670    447.670    447.670
116.270   4454.000   4461.038     -7.038    447.818   4460.500    447.818    447.818    447.818
116.370   4906.990   4841.089     65.900    447.973   4840.556    447.973    447.973    447.973
116.470   5306.316   5217.402     88.914    448.135   5216.884    448.135    448.135    448.135
116.570   5457.135   5581.733   -124.598    448.304   5581.244    448.304    448.304    448.304
116.670   6039.029   5925.067    113.962    448.480   5924.621    448.480    448.480    448.480
116.770   6237.000   6237.860     -0.860    448.663   6237.471    448.663    448.663    448.663
116.870   6464.000   6510.403    -46.403    448.854   6510.085    448.854    448.854    448.854
116.970   6559.618   6733.347   -173.729    449.052   6733.113    449.052    449.052    449.052
117.070   6895.000   6898.369     -3.369    449.258   6898.229    449.258    449.258    449.258
117.170   6854.304   6998.928   -144.624    449.471   6998.888    449.471    449.471    449.471
117.270   7080.000   7030.958     49.042    449.691   7031.020    449.691    449.691    449.691
117.370   7086.000   6993.364     92.636    449.919   6993.526    449.919    449.919    449.919
117.470   7031.000   6888.149    142.851    450.155   6888.404    450.155    450.155    450.155
117.570   6897.126   6720.159    176.966    450.399   6720.495    450.399    450.399    450.399
117.670   6465.806   6496.504    -30.698    450.651   6496.909    450.651    450.651    450.651
117.770   6072.000   6225.823   -153.823    450.911   6226.281    450.911    450.911    450.911
117.870   5715.000   5917.539   -202.539    451.178   5918.035    451.178    451.178    451.178
117.970   5378.000   5581.235   -203.235    451.454   5581.755    451.454    451.454    451.454
118.070   5094.000   5226.179   -132.179    451.738   5226.708    451.738    451.738    451.738
118.170   4744.000   4861.004   -117.004    452.031   4861.531    452.031    452.031    452.031
118.270   4399.000   4493.499    -94.499    452.331   4494.013    452.331    452.331    452.331
118.370   4073.000   4130.490    -57.490    452.640   4130.982    452.640    452.640    452.640
118.470   3885.998   3777.760    108.238    452.958   3778.222    452.958    452.958    452.958
118.570   3400.000   3439.993    -39.993    453.284   3440.420    453.284    453.284    453.284
118.670   3002.296   3120.975   -118.679    453.619   3121.363    453.619    453.619    453.619
118.770   2721.319   2823.352   -102.033    453.962   2823.699    453.962    453.962    453.962
118.870   2619.000   2548.868     70.132    454.315   2549.173    454.315    454.315    454.315
118.970   2313.717   2298.441     15.276    454.676   2298.706    454.676    454.676    454.676
119.070   1990.000   2072.266    -82.266    455.046   2072.492    455.046    455.046    455.046
119.170   1866.000   1869.927     -3.927    455.425   1870.116    455.425    455.425    455.425
119.270   1651.000   1690.515    -39.515    455.814   1690.671    455.814    455.814    455.814
119.370   1480.000   1532.741    -52.741    456.211   1532.868    456.211    456.211    456.211
119.470   1458.000   1395.043     62.957    456.618   1395.143    456.618    456.618    456.618
119.570   1263.000   1275.682    -12.682    457.034   1275.760    457.034    457.034    457.034
119.670   1195.000   1172.834     22.166    457.460   1172.894    457.460    457.460    457.460
119.770   1075.000   1084.667     -9.667    457.895   1084.711    457.895    457.895    457.895
119.870    990.863   1009.398    -18.534    458.340   1009.430    458.340    458.340    458.340
119.970    966.467    945.345     21.122    458.794    945.367    458.794    458.794    458.794
120.070    882.000    890.959     -8.959    459.259    890.975    459.259    459.259    459.259
120.170    800.000    844.846    -44.846    459.733    844.856    459.733    459.733    459.733
120.270    849.964    805.770     44.194    460.217    805.777    460.217    460.217    460.217
120.370    757.000    772.660    -15.660    460.711    772.664    460.711    460.711    460.711
120.470    759.000    744.595     14.405    461.215    744.598    461.215    461.215    461.215
120.570    735.000    720.798     14.202    461.730    720.801    461.730    461.730    461.730
120.670    678.000    700.619    -22.619    462.254    700.621    462.254    462.254    462.254
120.770    665.000    683.518    -18.518    462.789    683.521    462.789    462.789    462.789
120.870    638.000    669.051    -31.051    463.335    669.055    463.335    463.335    463.335
120.970    634.627    656.855    -22.229    463.891    656.860    463.891    463.891    463.891
121.070    614.000    646.634    -32.634    464.458    646.639    464.458    464.458    464.458
121.170    617.000    638.143    -21.143    465.035    638.149    465.035    465.035    465.035
121.270    678.000    631.184     46.816    465.623    631.191    465.623    465.623    465.623
121.370    582.822    625.592    -42.770    466.222    625.601    466.222    466.222    466.222
121.470    586.000    621.231    -35.231    466.833    621.241    466.833    466.833    466.833
121.570    637.000    617.984     19.016    467.454    617.995    467.454    467.454    467.454
121.670    582.000    615.750    -33.750    468.086    615.762    468.086    468.086    468.086
121.770    648.591    614.440     34.152    468.729    614.453    468.729    468.729    468.729
121.870    560.000    613.970    -53.970    469.384    613.986    469.384    469.384    469.384
121.970    603.830    614.264    -10.435    470.051    614.282    470.051    470.051    470.051
122.070    638.947    615.245     23.701    470.728    615.265    470.728    470.728    470.728
122.170    586.431    616.837    -30.406    471.418    616.858    471.418    471.418    471.418
122.270    588.501    618.960    -30.459    472.119    618.984    472.119    472.119    472.119
122.370    607.000    621.533    -14.533    472.832    621.559    472.832    472.832    472.832
122.470    652.579    624.467     28.112    473.556    624.497    473.556    473.556    473.556
122.570    659.000    627.672     31.328    474.293    627.704    474.293    474.293    474.293
122.670    616.000    631.048    -15.048    475.042    631.083    475.042    475.042    475.042
122.770    675.000    634.490     40.510    475.803    634.528    475.803    475.803    475.803
122.870    646.053    637.890      8.163    476.576    637.931    476.576    476.576    476.576
122.970    646.000    641.134      4.866    477.362    641.178    477.362    477.362    477.362
123.070    671.000    644.105     26.895    478.160    644.152    478.160    478.160    478.160
123.170    643.000    646.691     -3.691    478.970    646.740    478.970    478.970    478.970
123.270    693.000    648.783     44.217    479.793    648.835    479.793    479.793    479.793
123.370    675.000    650.286     24.714    480.629    650.340    480.629    480.629    480.629
123.470    698.567    651.121     47.446    481.478    651.178    481.478    481.478    481.478
123.570    661.000    651.235      9.765    482.339    651.293    482.339    482.339    482.339
123.670    616.000    650.599    -34.599    483.214    650.658    483.214    483.214    483.214
123.770    669.453    649.213     20.240    484.101    649.273    484.101    484.101    484.101
123.870    657.000    647.103      9.897    485.002    647.163    485.002    485.002    485.002
123.970    647.000    644.318      2.682    485.916    644.377    485.916    485.916    485.916
124.070    675.000    640.924     34.076    486.844    640.982    486.844    486.844    486.844
124.170    598.878    636.998    -38.120    487.785    637.055    487.785    487.785    487.785
124.270    687.576    632.626     54.950    488.740    632.681    488.740    488.740    488.740
124.370    607.663    627.896    -20.233    489.708    627.949    489.708    489.708    489.708
124.470    655.000    622.895     32.105    490.690    622.945    490.690    490.690    490.690
124.570    614.000    617.708     -3.708    491.686    617.756    491.686    491.686    491.686
124.670    620.000    612.418      7.582    492.696    612.463    492.696    492.696    492.696
124.770    627.000    607.101     19.899    493.720    607.143    493.720    493.720    493.720
124.870    585.000    601.828    -16.828    494.759    601.867    494.759    494.759    494.759
124.970    597.000    596.664      0.336    495.811    596.700    495.811    495.811    495.811
