neutron_powder_diffraction_0060
R_wp: 4.068
Temperature (K): 696.763
Counts: 83972.00
Wavelength (Ã…): 2.52098
COMMENTS
Test file for demonstrating the .xyy file format in Reel1.0
END OF HEADER
   tth       Y_obs     Y_calc      Y_res    Background    Phase_1_Nuc    Phase_1_Mag    Phase_2_Nuc    Phase_2_Mag
  9.970    628.762    646.733    -17.971    645.449    646.437    645.744    645.449    645.449
 10.070    668.000    646.541     21.459    645.175    646.242    645.474    645.175    645.175
 10.170    676.670    646.357     30.313    644.898    646.055    645.200    644.898    644.898
 10.270    670.000    646.182     23.818    644.618    645.877    644.923    644.618    644.618
 10.370    645.000    646.021     -1.021    644.334    645.713    644.642    644.334    644.334
 10.470    684.000    645.879     38.121    644.048    645.567    644.359    644.048    644.048
 10.570    696.000    645.755     50.245    643.758    645.439    644.073    643.758    643.758
 10.670    644.283    645.657     -1.375    643.465    645.338    643.784    643.465    643.465
 10.770    645.000    645.595     -0.595    643.169    645.272    643.491    643.169    643.169
 10.870    619.880    645.581    -25.701    642.871    645.254    643.196    642.871    642.871
 10.970    658.000    645.621     12.379    642.569    645.291    642.898    642.569    642.569
 11.070    627.000    645.740    -18.740    642.264    645.405    642.597    642.264    642.264
 11.170    583.000    645.965    -62.965    641.957    645.626    642.294    641.957    641.957
 11.270    692.000    646.338     45.662    641.647    645.996    641.987    641.647    641.647
 11.370    603.137    646.929    -43.792    641.334    646.582    641.678    641.334    641.334
 11.470    671.652    647.868     23.784    641.018    647.517    641.366    641.018    641.018
 11.570    700.000    649.463     50.537    640.700    649.106    641.052    640.700    640.700
 11.670    650.000    652.465     -2.465    640.379    652.103    640.735    640.379    640.379
 11.770    678.562    658.562     20.000    640.055    658.191    640.416    640.055    640.055
 11.870    731.000    670.249     60.751    639.729    669.868    640.094    639.729    639.729
 11.970    702.000    690.475     11.525    639.400    690.078    639.770    639.400    639.400
 12.070    780.000    719.863     60.137    639.069    719.445    639.443    639.069    639.069
 12.170    789.000    752.431     36.569    638.735    751.991    639.114    638.735    638.735
 12.270    809.155    772.812     36.343    638.399    772.356    638.782    638.399    638.399
 12.370    788.000    766.652     21.348    638.061    766.194    638.448    638.061    638.061
 12.470    722.000    738.754    -16.754    637.720    738.306    638.112    637.720    637.720
 12.570    711.000    705.744      5.256    637.377    705.310    637.774    637.377    637.377
 12.670    632.929    679.156    -46.228    637.032    678.731    637.434    637.032    637.032
 12.770    632.000    661.905    -29.905    636.684    661.485    637.091    636.684    636.684
 12.870    662.000    652.139      9.861    636.334    651.718    636.747    636.334    636.334
 12.970    654.743    646.887      7.856    635.983    646.464    636.400    635.983    635.983
 13.070    653.497    643.880      9.617    635.629    643.453    636.052    635.629    635.629
 13.170    657.000    641.921     15.079    635.272    641.489    635.701    635.272    635.272
 13.270    625.865    640.475    -14.610    634.914    640.038    635.348    634.914    634.914
 13.370    600.000    639.318    -39.318    634.554    638.877    634.994    634.554    634.554
 13.470    592.793    638.350    -45.556    634.192    637.903    634.638    634.192    634.192
 13.570    688.206    637.513     50.694    633.828    637.060    634.279    633.828    633.828
 13.670    614.000    636.771    -22.771    633.462    636.313    633.919    633.462    633.462
 13.770    617.000    636.101    -19.101    633.094    635.637    633.558    633.094    633.094
 13.870    599.000    635.485    -36.485    632.725    635.015    633.194    632.725    632.725
 13.970    655.345    634.912     20.433    632.353    634.435    632.829    632.353    632.353
 14.070    682.554    634.372     48.182    631.980    633.889    632.463    631.980    631.980
 14.170    684.472    633.856     50.616    631.605    633.366    632.094    631.605    631.605
 14.270    598.000    633.360    -35.360    631.229    632.864    631.724    631.229    631.229
 14.370    636.000    632.881      3.119    630.850    632.378    631.353    630.850    630.850
 14.470    652.000    632.415     19.585    630.470    631.905    630.980    630.470    630.470
 14.570    585.303    631.960    -46.657    630.089    631.443    630.606    630.089    630.089
 14.670    621.076    631.514    -10.438    629.706    630.989    630.230    629.706    629.706
 14.770    619.000    631.075    -12.075    629.321    630.543    629.853    629.321    629.321
 14.870    598.573    630.643    -32.070    628.935    630.103    629.475    628.935    628.935
 14.970    579.000    630.220    -51.220    628.548    629.672    629.095    628.548    628.548
 15.070    623.000    629.802     -6.802    628.159    629.246    628.714    628.159    628.159
 15.170    664.000    629.386     34.614    627.769    628.822    628.332    627.769    627.769
 15.270    602.000    628.970    -26.970    627.377    628.397    627.949    627.377    627.377
 15.370    638.000    628.556      9.444    626.984    627.975    627.564    626.984    626.984
 15.470    627.000    628.143     -1.143    626.589    627.554    627.179    626.589    626.589
 15.570    618.000    627.733     -9.733    626.194    627.134    626.792    626.194    626.194
 15.670    629.304    627.324      1.980    625.797    626.716    626.405    625.797    625.797
 15.770    609.000    626.922    -17.922    625.399    626.305    626.016    625.399    625.399
 15.870    607.000    626.576    -19.576    625.000    625.949    625.626    625.000    625.000
 15.970    604.000    626.191    -22.191    624.599    625.555    625.236    624.599    624.599
 16.070    652.000    625.806     26.194    624.198    625.159    624.844    624.198    624.198
 16.170    567.000    625.415    -58.415    623.795    624.758    624.452    623.795    623.795
 16.270    623.230    625.013     -1.783    623.392    624.345    624.059    623.392    623.392
 16.370    602.000    624.610    -22.610    622.987    623.931    623.665    622.987    622.987
 16.470    669.000    624.207     44.793    622.581    623.518    623.271    622.581    622.581
 16.570    617.000    623.809     -6.809    622.175    623.109    622.875    622.175    622.175
 16.670    586.883    623.418    -36.535    621.767    622.706    622.479    621.767    621.767
 16.770    647.000    623.018     23.982    621.359    622.294    622.083    621.359    621.359
 16.870    631.000    622.629      8.371    620.950    621.891    621.687    620.950    620.950
 16.970    659.798    622.289     37.509    620.539    621.530    621.298    620.539    620.539
 17.070    618.000    621.894     -3.894    620.128    621.122    620.901    620.128    620.128
 17.170    641.767    621.494     20.273    619.717    620.709    620.502    619.717    619.717
 17.270    619.420    621.094     -1.675    619.304    620.295    620.103    619.304    619.304
 17.370    644.000    620.695     23.305    618.891    619.882    619.704    618.891    618.891
 17.470    622.000    620.296      1.704    618.477    619.469    619.304    618.477    618.477
 17.570    576.000    619.900    -43.900    618.062    619.058    618.904    618.062    618.062
 17.670    590.407    619.511    -29.104    617.647    618.654    618.504    617.647    617.647
 17.770    665.005    619.114     45.891    617.231    618.241    618.104    617.231    617.231
 17.870    622.000    618.716      3.284    616.815    617.827    617.703    616.815    616.815
 17.970    602.000    618.318    -16.318    616.397    617.413    617.303    616.397    616.397
 18.070    635.573    617.920     17.652    615.980    616.998    616.902    615.980    615.980
 18.170    631.684    617.523     14.160    615.562    616.584    616.501    615.562    615.562
 18.270    582.620    617.127    -34.507    615.143    616.170    616.100    615.143    615.143
 18.370    621.596    616.731      4.865    614.724    615.756    615.699    614.724    614.724
 18.470    632.500    616.336     16.164    614.304    615.341    615.299    614.304    614.304
 18.570    619.000    615.943      3.057    613.884    614.929    614.898    613.884    613.884
 18.670    623.000    615.567      7.433    613.464    614.532    614.499    613.464    613.464
 18.770    603.000    615.197    -12.197    613.043    614.140    614.101    613.043    613.043
 18.870    565.000    614.841    -49.841    612.622    613.759    613.704    612.622    612.622
 18.970    564.000    614.459    -50.459    612.201    613.355    613.305    612.201    612.201
 19.070    658.000    614.077     43.923    611.780    612.950    612.906    611.780    611.780
 19.170    598.615    613.713    -15.098    611.358    612.563    612.508    611.358    611.358
 19.270    581.976    613.381    -31.405    610.936    612.206    612.111    610.936    610.936
 19.370    640.619    613.018     27.601    610.513    611.818    611.714    610.513    610.513
 19.470    573.000    612.640    -39.640    610.091    611.414    611.317    610.091    610.091
 19.570    584.000    612.257    -28.257    609.668    611.005    610.921    609.668    609.668
 19.670    604.003    611.890     -7.887    609.245    610.609    610.526    609.245    609.245
 19.770    562.000    611.561    -49.561    608.823    610.252    610.132    608.823    608.823
 19.870    561.000    611.187    -50.187    608.400    609.848    609.738    608.400    608.400
 19.970    614.000    610.810      3.190    607.977    609.441    609.345    607.977    607.977
 20.070    570.518    610.435    -39.917    607.553    609.035    608.954    607.553    607.553
 20.170    657.934    610.063     47.870    607.130    608.630    608.564    607.130    607.130
 20.270    557.000    609.697    -52.697    606.707    608.229    608.176    606.707    606.707
 20.370    582.132    609.329    -27.196    606.284    607.825    607.788    606.284    606.284
 20.470    571.065    608.965    -37.900    605.861    607.424    607.402    605.861    605.861
 20.570    582.000    608.605    -26.605    605.438    607.026    607.018    605.438    605.438
 20.670    568.784    608.243    -39.459    605.015    606.624    606.634    605.015    605.015
 20.770    577.000    607.881    -30.881    604.593    606.222    606.252    604.593    604.593
 20.870    612.000    607.522      4.478    604.170    605.821    605.871    604.170    604.170
 20.970    599.000    607.166     -8.166    603.748    605.422    605.492    603.748    603.748
 21.070    583.000    606.814    -23.814    603.325    605.024    605.115    603.325    603.325
 21.170    644.930    606.464     38.466    602.903    604.627    604.740    602.903    602.903
 21.270    580.000    606.119    -26.119    602.482    604.233    604.368    602.482    602.482
 21.370    597.000    605.779     -8.779    602.060    603.841    603.997    602.060    602.060
 21.470    622.000    605.441     16.559    601.639    603.450    603.629    601.639    601.639
 21.570    610.000    605.108      4.892    601.218    603.062    603.264    601.218    601.218
 21.670    591.000    604.782    -13.782    600.797    602.678    602.901    600.797    600.797
 21.770    562.240    604.459    -42.219    600.377    602.294    602.541    600.377    600.377
 21.870    575.256    604.141    -28.885    599.957    601.913    602.185    599.957    599.957
 21.970    537.000    603.829    -66.829    599.537    601.535    601.831    599.537    599.537
 22.070    604.000    603.524      0.476    599.118    601.161    601.481    599.118    599.118
 22.170    644.720    603.226     41.495    598.699    600.791    601.134    598.699    598.699
 22.270    574.094    602.936    -28.842    598.280    600.425    600.792    598.280    598.280
 22.370    595.000    602.655     -7.655    597.862    600.064    600.453    597.862    597.862
 22.470    603.676    602.383      1.293    597.445    599.709    600.119    597.445    597.445
 22.570    628.029    602.122     25.907    597.028    599.360    599.790    597.028    597.028
 22.670    613.000    601.873     11.127    596.611    599.019    599.465    596.611    596.611
 22.770    633.000    601.636     31.364    596.195    598.687    599.146    596.195    596.195
 22.870    583.000    601.416    -18.416    595.780    598.364    598.832    595.780    595.780
 22.970    598.000    601.212     -3.212    595.365    598.054    598.524    595.365    595.365
 23.070    613.000    601.029     11.971    594.951    597.758    598.223    594.951    594.951
 23.170    614.000    600.869     13.131    594.537    597.479    597.928    594.537    594.537
 23.270    556.432    600.736    -44.304    594.124    597.220    597.641    594.124    594.124
 23.370    600.000    600.635     -0.635    593.712    596.986    597.361    593.712    593.712
 23.470    583.000    600.573    -17.573    593.300    596.783    597.090    593.300    593.300
 23.570    596.000    600.559     -4.559    592.889    596.620    596.829    592.889    592.889
 23.670    603.000    600.605      2.395    592.478    596.508    596.576    592.478    592.478
 23.770    611.000    600.730     10.270    592.069    596.465    596.335    592.069    592.069
 23.870    583.000    600.954    -17.954    591.660    596.511    596.105    591.660    591.660
 23.970    611.058    601.316      9.742    591.252    596.682    595.888    591.252    591.252
 24.070    623.817    601.881     21.936    590.844    597.045    595.683    590.844    590.844
 24.170    596.975    602.788     -5.813    590.437    597.734    595.494    590.437    590.437
 24.270    600.000    604.357     -4.357    590.031    599.072    595.321    590.031    590.031
 24.370    622.000    607.299     14.701    589.626    601.768    595.164    589.626    589.626
 24.470    642.811    612.925     29.886    589.222    607.130    595.027    589.222    589.222
 24.570    658.000    623.022     34.978    588.819    616.947    594.912    588.819    588.819
 24.670    673.784    638.927     34.857    588.416    632.552    594.821    588.416    588.416
 24.770    704.828    659.621     45.207    588.014    652.927    594.753    588.014    588.014
 24.870    674.000    679.340     -5.340    587.613    672.299    594.714    587.613    587.613
 24.970    680.933    687.433     -6.500    587.214    680.006    594.706    587.214    587.214
 25.070    713.000    677.674     35.326    586.815    669.814    594.733    586.815    586.815
 25.170    670.000    657.425     12.575    586.416    649.087    594.798    586.416    586.416
 25.270    664.590    637.247     27.344    586.019    628.387    594.907    586.019    586.019
 25.370    606.866    622.275    -15.409    585.623    612.851    595.064    585.623    585.623
 25.470    589.280    613.099    -23.819    585.228    603.060    595.277    585.228    585.228
 25.570    626.000    608.235     17.765    584.834    597.523    595.553    584.834    584.834
 25.670    625.000    605.925     19.075    584.441    594.469    595.901    584.441    584.441
 25.770    593.000    604.941    -11.941    584.048    592.661    596.331    584.048    584.048
 25.870    693.000    604.648     88.352    583.657    591.454    596.853    583.657    583.657
 25.970    584.320    604.778    -20.459    583.267    590.563    597.484    583.267    583.267
 26.070    568.000    605.232    -37.232    582.878    589.871    598.240    582.878    582.878
 26.170    657.000    605.977     51.023    582.490    589.323    599.145    582.490    582.490
 26.270    656.000    607.008     48.992    582.103    588.889    600.223    582.103    582.103
 26.370    630.000    608.344     21.656    581.718    588.554    601.508    581.718    581.718
 26.470    650.000    610.016     39.984    581.333    588.308    603.040    581.333    581.333
 26.570    570.252    612.073    -41.822    580.949    588.150    604.871    580.949    580.949
 26.670    564.575    614.584    -50.009    580.567    588.083    607.067    580.567    580.567
 26.770    630.000    617.642     12.358    580.186    588.115    609.712    580.186    580.186
 26.870    659.530    621.372     38.158    579.806    588.259    612.918    579.806    579.806
 26.970    629.000    625.944      3.056    579.427    588.536    616.832    579.427    579.427
 27.070    688.000    631.587     56.413    579.049    588.976    621.657    579.049    579.049
 27.170    641.000    638.623      2.377    578.673    589.622    627.670    578.673    578.673
 27.270    694.000    647.508     46.492    578.298    590.536    635.265    578.298    578.298
 27.370    681.377    658.922     22.455    577.924    591.810    645.030    577.924    577.924
 27.470    713.000    673.987     39.013    577.551    593.597    657.933    577.551    577.551
 27.570    654.367    694.958    -40.591    577.179    596.203    675.924    577.179    577.179
 27.670    688.776    727.375    -38.598    576.809    600.378    703.791    576.809    576.809
 27.770    788.435    785.346      3.089    576.440    608.024    753.737    576.440    576.440
 27.870    856.710    900.118    -43.409    576.072    623.348    852.795    576.072    576.072
 27.970   1161.363   1124.414     36.948    575.706    653.451   1046.580    575.706    575.706
 28.070   1389.000   1514.532   -125.532    575.341    705.919   1383.799    575.341    575.341
 28.170   1902.000   2076.441   -174.441    574.977    781.595   1869.593    574.977    574.977
 28.270   2649.778   2688.912    -39.134    574.615    864.272   2398.983    574.615    574.615
 28.370   3036.000   3070.871    -34.871    574.254    916.372   2728.530    574.254    574.254
 28.470   2901.351   2983.896    -82.545    573.894    906.277   2651.418    573.894    573.894
 28.570   2584.000   2542.134     41.866    573.536    850.136   2265.543    573.536    573.536
 28.670   1985.000   2068.234    -83.234    573.179    792.500   1848.955    573.179    573.179
 28.770   1729.403   1792.771    -63.368    572.823    765.433   1600.191    572.823    572.823
 28.870   1723.375   1766.643    -43.268    572.469    775.597   1563.524    572.469    572.469
 28.970   1877.000   1894.091    -17.091    572.116    807.129   1659.087    572.116    572.116
 29.070   1917.000   1988.329    -71.329    571.765    828.414   1731.725    571.765    571.765
 29.170   1884.612   1894.809    -10.197    571.415    813.029   1653.289    571.415    571.415
 29.270   1630.000   1630.194     -0.194    571.066    765.163   1436.213    571.066    571.066
 29.370   1313.000   1319.449     -6.449    570.719    708.377   1181.893    570.719    570.719
 29.470   1056.000   1059.307     -3.307    570.373    660.735    969.018    570.373    570.373
 29.570    947.000    881.133     65.867    570.029    628.118    823.089    570.029    570.029
 29.670    810.000    774.497     35.503    569.687    608.648    735.560    569.687    569.687
 29.770    798.000    715.046     82.954    569.345    597.856    686.549    569.345    569.345
 29.870    738.000    681.533     56.467    569.006    591.843    658.703    569.006    569.006
 29.970    745.000    660.968     84.032    568.667    588.232    641.406    568.667    568.667
 30.070    747.000    646.984    100.016    568.331    585.876    629.441    568.331    568.331
 30.170    670.000    636.823     33.177    567.995    584.303    620.515    567.995    567.995
 30.270    713.000    629.340     83.660    567.662    583.379    613.622    567.662    567.662
 30.370    717.000    624.169     92.831    567.329    583.192    608.304    567.329    567.329
 30.470    660.244    621.527     38.717    566.999    584.100    604.422    566.999    566.999
 30.570    694.000    622.245     71.755    566.670    586.808    602.098    566.670    566.670
 30.670    666.000    627.634     38.366    566.342    592.309    601.652    566.342    566.342
 30.770    691.000    638.847     52.153    566.016    601.461    603.378    566.016    566.016
 30.870    731.000    655.584     75.416    565.691    614.118    607.122    565.691    565.691
 30.970    688.649    674.252     14.397    565.369    627.894    611.681    565.369    565.369
 31.070    703.522    686.865     16.657    565.047    637.418    614.443    565.047    565.047
 31.170    760.000    685.096     74.904    564.728    637.080    612.696    564.728    564.728
 31.270    709.000    668.782     40.218    564.409    626.791    606.363    564.409    564.409
 31.370    720.000    646.090     73.910    564.093    612.096    598.061    564.093    564.093
 31.470    638.000    625.003     12.997    563.778    598.412    590.351    563.778    563.778
 31.570    628.000    609.091     18.909    563.465    588.171    584.374    563.465    563.465
 31.670    606.829    598.574      8.255    563.153    581.531    580.189    563.153    563.153
 31.770    547.805    592.147    -44.343    562.843    577.618    577.368    562.843    562.843
 31.870    613.000    588.282     24.718    562.535    575.405    575.408    562.535    562.535
 31.970    634.000    585.845     48.155    562.228    574.132    573.938    562.228    562.228
 32.070    619.000    584.189     34.811    561.923    573.368    572.741    561.923    561.923
 32.170    582.000    583.002     -1.002    561.619    572.909    571.710    561.619    561.619
 32.270    621.000    582.147     38.853    561.317    572.667    570.795    561.317    561.317
 32.370    620.000    581.564     38.436    561.017    572.610    569.969    561.017    561.017
 32.470    596.728    581.232     15.496    560.719    572.732    569.217    560.719    560.719
 32.570    599.000    581.149     17.851    560.422    573.038    568.531    560.422    560.422
 32.670    613.000    581.328     31.672    560.127    573.549    567.903    560.127    560.127
 32.770    611.000    581.799     29.201    559.833    574.300    567.331    559.833    559.833
 32.870    612.374    582.612     29.762    559.541    575.339    566.813    559.541    559.541
 32.970    658.000    583.843     74.157    559.251    576.742    566.351    559.251    559.251
 33.070    628.773    585.607     43.166    558.963    578.617    565.950    558.963    558.963
 33.170    580.000    588.091     -8.091    558.676    581.144    565.621    558.676    558.676
 33.270    631.000    591.641     39.359    558.391    584.644    565.385    558.391    558.391
 33.370    595.000    596.963     -1.963    558.108    589.777    565.290    558.108    558.108
 33.470    563.707    605.542    -41.835    557.826    597.926    565.437    557.826    557.826
 33.570    578.228    620.295    -42.068    557.546    611.806    566.027    557.546    557.546
 33.670    616.251    646.145    -29.894    557.268    635.998    567.401    557.268    557.268
 33.770    667.000    689.697    -22.697    556.992    676.652    570.016    556.992    556.992
 33.870    756.903    756.942     -0.039    556.717    739.341    574.287    556.717    556.717
 33.970    866.000    848.452     17.548    556.444    824.602    580.253    556.444    556.444
 34.070    942.343    952.453    -10.110    556.173    921.483    587.097    556.173    556.173
 34.170   1104.113   1038.433     65.681    555.903   1001.594    592.700    555.903    555.903
 34.270   1075.000   1064.522     10.478    555.636   1025.973    594.157    555.636    555.636
 34.370   1028.000   1013.515     14.485    555.370    978.600    590.273    555.370    555.370
 34.470    956.078    915.235     40.843    555.106    887.222    583.115    555.106    555.106
 34.570    780.171    811.696    -31.524    554.843    790.939    575.600    554.843    554.843
 34.670    655.000    726.948    -71.948    554.582    712.134    569.397    554.582    554.582
 34.770    636.000    667.504    -31.504    554.323    656.871    564.957    554.323    554.323
 34.870    657.000    630.120     26.880    554.066    622.129    562.056    554.066    554.066
 34.970    580.246    608.084    -27.838    553.811    601.666    560.228    553.811    553.811
 35.070    547.607    595.169    -47.562    553.557    589.686    559.039    553.557    553.557
 35.170    638.113    587.158     50.955    553.305    582.263    558.199    553.305    553.305
 35.270    588.133    581.713      6.420    553.055    577.224    557.543    553.055    553.055
 35.370    616.910    577.695     39.216    552.807    573.506    556.994    552.807    552.807
 35.470    562.000    574.561    -12.561    552.560    570.606    556.514    552.560    552.560
 35.570    542.000    572.037    -30.037    552.315    568.268    556.084    552.315    552.315
 35.670    587.154    569.962     17.192    552.072    566.340    555.693    552.072    552.072
 35.770    524.000    568.231    -44.231    551.831    564.726    555.335    551.831    551.831
 35.870    550.000    566.769    -16.769    551.592    563.356    555.004    551.592    551.592
 35.970    610.701    565.523     45.178    551.354    562.178    554.699    551.354    551.354
 36.070    562.000    564.454     -2.454    551.118    561.155    554.416    551.118    551.118
 36.170    530.000    563.531    -33.531    550.884    560.259    554.156    550.884    550.884
 36.270    551.000    562.735    -11.735    550.652    559.468    553.918    550.652    550.652
 36.370    557.000    562.049     -5.049    550.421    558.766    553.703    550.421    550.421
 36.470    598.029    561.463     36.567    550.192    558.141    553.514    550.192    550.192
 36.570    577.401    560.970     16.430    549.965    557.583    553.353    549.965    549.965
 36.670    570.000    560.570      9.430    549.740    557.087    553.223    549.740    549.740
 36.770    550.000    560.264    -10.264    549.517    556.649    553.132    549.517    549.517
 36.870    542.000    560.063    -18.063    549.295    556.270    553.088    549.295    549.295
 36.970    521.000    559.984    -38.984    549.075    555.958    553.101    549.075    549.075
 37.070    521.000    560.071    -39.071    548.858    555.737    553.192    548.858    548.858
 37.170    550.000    560.406    -10.406    548.641    555.658    553.389    548.641    548.641
 37.270    575.000    561.150     13.850    548.427    555.826    553.751    548.427    548.427
 37.370    597.070    562.590     34.481    548.214    556.409    554.396    548.214    548.214
 37.470    601.000    565.172     35.828    548.004    557.620    555.556    548.004    548.004
 37.570    584.000    569.491     14.509    547.795    559.633    557.653    547.795    547.795
 37.670    528.000    576.168    -48.168    547.587    562.427    561.328    547.587    547.587
 37.770    600.714    585.562     15.152    547.382    565.589    567.355    547.382    547.382
 37.870    567.229    597.324    -30.095    547.178    568.171    576.332    547.178    547.178
 37.970    628.000    610.149     17.851    546.976    568.984    588.144    546.976    546.976
 38.070    582.967    622.021    -39.054    546.776    567.552    601.250    546.776    546.776
 38.170    579.156    630.076    -50.920    546.578    564.621    612.039    546.578    546.578
 38.270    625.499    630.486     -4.987    546.382    561.256    615.620    546.382    546.382
 38.370    607.642    621.693    -14.051    546.187    558.135    609.754    546.187    546.187
 38.470    597.000    607.165    -10.165    545.994    555.601    597.565    545.994    545.994
 38.570    569.000    591.937    -22.937    545.803    553.740    584.005    545.803    545.803
 38.670    558.000    579.096    -21.096    545.614    552.452    572.262    545.614    545.614
 38.770    564.365    569.638     -5.273    545.426    551.573    563.494    545.426    545.426
 38.870    597.069    563.314     33.756    545.241    550.959    557.597    545.241    545.241
 38.970    544.000    559.339    -15.339    545.057    550.506    553.891    545.057    545.057
 39.070    593.111    556.881     36.230    544.875    550.151    551.606    544.875    544.875
 39.170    526.000    555.303    -29.303    544.694    549.855    550.143    544.694    544.694
 39.270    517.640    554.209    -36.569    544.516    549.598    549.127    544.516    544.516
 39.370    575.878    553.387     22.492    544.339    549.369    548.357    544.339    544.339
 39.470    564.000    552.729     11.271    544.164    549.161    547.733    544.164    544.164
 39.570    509.395    552.183    -42.788    543.991    548.970    547.204    543.991    543.991
 39.670    549.355    551.720     -2.365    543.819    548.795    546.745    543.819    543.819
 39.770    577.000    551.322     25.678    543.649    548.634    546.337    543.649    543.649
 39.870    508.753    550.975    -42.223    543.482    548.487    545.970    543.482    543.482
 39.970    591.553    550.672     40.881    543.315    548.352    545.636    543.315    543.315
 40.070    580.000    550.407     29.593    543.151    548.229    545.329    543.151    543.151
 40.170    531.689    550.174    -18.485    542.988    548.119    545.043    542.988    542.988
 40.270    529.026    549.970    -20.944    542.827    548.022    544.776    542.827    542.827
 40.370    559.473    549.794      9.678    542.668    547.939    544.524    542.668    542.668
 40.470    524.000    549.644    -25.644    542.511    547.870    544.286    542.511    542.511
 40.570    537.000    549.520    -12.520    542.355    547.817    544.059    542.355    542.355
 40.670    524.000    549.421    -25.421    542.201    547.781    543.842    542.201    542.201
 40.770    510.110    549.350    -39.239    542.049    547.765    543.634    542.049    542.049
 40.870    555.705    549.307      6.398    541.899    547.771    543.435    541.899    541.899
 40.970    526.000    549.295    -23.295    541.750    547.803    543.243    541.750    541.750
 41.070    476.000    549.319    -73.319    541.603    547.865    543.058    541.603    541.603
 41.170    526.000    549.383    -23.383    541.458    547.962    542.880    541.458    541.458
 41.270    582.558    549.494     33.064    541.315    548.102    542.709    541.315    541.315
 41.370    543.000    549.662     -6.662    541.173    548.293    542.543    541.173    541.173
 41.470    557.000    549.899      7.101    541.033    548.549    542.385    541.033    541.033
 41.570    587.157    550.223     36.933    540.895    548.887    542.233    540.895    540.895
 41.670    551.982    550.660      1.321    540.758    549.333    542.088    540.758    540.758
 41.770    527.121    551.255    -24.134    540.623    549.929    541.951    540.623    540.623
 41.870    540.000    552.088    -12.088    540.490    550.755    541.826    540.490    540.490
 41.970    552.000    553.317     -1.317    540.359    551.964    541.716    540.359    540.359
 42.070    589.000    555.246     33.754    540.229    553.849    541.630    540.229    540.229
 42.170    515.000    558.407    -43.407    540.101    556.928    541.586    540.101    540.101
 42.270    547.000    563.623    -16.623    539.974    561.997    541.608    539.974    539.974
 42.370    556.000    571.946    -15.946    539.850    570.079    541.729    539.850    539.850
 42.470    572.627    584.376    -11.749    539.727    582.141    541.979    539.727    539.727
 42.570    566.000    601.310    -35.310    539.606    598.569    542.371    539.606    539.606
 42.670    580.000    621.777    -41.777    539.486    618.424    542.875    539.486    539.486
 42.770    589.000    642.562    -53.562    539.368    638.585    543.392    539.368    539.368
 42.870    609.000    657.834    -48.834    539.252    653.402    543.740    539.252    539.252
 42.970    571.000    661.254    -90.254    539.137    656.727    543.725    539.137    539.137
 43.070    638.457    651.012    -12.555    539.024    646.804    543.290    539.024    539.024
 43.170    614.000    631.826    -17.826    538.913    628.206    542.581    538.913    538.913
 43.270    597.000    610.430    -13.430    538.803    607.465    541.806    538.803    538.803
 43.370    634.243    591.402     42.841    538.695    589.017    541.106    538.695    538.695
 43.470    558.000    576.670    -18.670    538.589    574.736    540.541    538.589    538.589
 43.570    573.000    566.376      6.624    538.484    564.756    540.116    538.484    538.484
 43.670    559.000    559.714     -0.714    538.381    558.298    539.805    538.381    538.381
 43.770    540.000    555.599    -15.599    538.279    554.309    539.575    538.279    538.279
 43.870    544.000    553.072     -9.072    538.179    551.858    539.397    538.179    538.179
 43.970    556.000    551.461      4.539    538.081    550.297    539.249    538.081    538.081
 44.070    596.894    550.366     46.528    537.984    549.234    539.119    537.984    537.984
 44.170    527.000    549.571    -22.571    537.889    548.462    539.000    537.889    537.889
 44.270    584.426    548.967     35.460    537.796    547.874    538.890    537.796    537.796
 44.370    544.000    548.494     -4.494    537.704    547.413    538.786    537.704    537.704
 44.470    512.000    548.122    -36.122    537.613    547.049    538.688    537.613    537.613
 44.570    575.000    547.829     27.171    537.525    546.761    538.594    537.525    537.525
 44.670    561.103    547.600     13.504    537.437    546.534    538.504    537.437    537.437
 44.770    559.000    547.425     11.575    537.352    546.359    538.418    537.352    537.352
 44.870    515.668    547.296    -31.628    537.268    546.228    538.336    537.268    537.268
 44.970    548.000    547.208      0.792    537.185    546.136    538.258    537.185    537.185
 45.070    566.248    547.155     19.092    537.104    546.077    538.183    537.104    537.104
 45.170    579.781    547.136     32.645    537.025    546.050    538.112    537.025    537.025
 45.270    543.000    547.147     -4.147    536.947    546.051    538.044    536.947    536.947
 45.370    542.000    547.188     -5.188    536.871    546.080    537.979    536.871    536.871
 45.470    551.000    547.256      3.744    536.796    546.134    537.918    536.796    536.796
 45.570    523.398    547.353    -23.956    536.723    546.215    537.860    536.723    536.723
 45.670    537.000    547.478    -10.478    536.651    546.323    537.807    536.651    536.651
 45.770    559.000    547.633     11.367    536.581    546.456    537.757    536.581    536.581
 45.870    556.000    547.817      8.183    536.512    546.618    537.710    536.512    536.512
 45.970    582.000    548.034     33.966    536.444    546.810    537.669    536.444    536.444
 46.070    531.672    548.286    -16.614    536.379    547.033    537.631    536.379    536.379
 46.170    522.109    548.575    -26.466    536.314    547.291    537.598    536.314    536.314
 46.270    585.000    548.907     36.093    536.251    547.587    537.570    536.251    536.251
 46.370    574.000    549.286     24.714    536.190    547.927    537.548    536.190    536.190
 46.470    547.000    549.718     -2.718    536.130    548.315    537.532    536.130    536.130
 46.570    536.000    550.212    -14.212    536.072    548.760    537.523    536.072    536.072
 46.670    565.728    550.780     14.948    536.015    549.272    537.521    536.015    536.015
 46.770    582.953    551.436     31.517    535.959    549.865    537.528    535.959    535.959
 46.870    534.211    552.203    -17.993    535.905    550.561    537.545    535.905    535.905
 46.970    601.000    553.121     47.879    535.852    551.395    537.576    535.852    535.852
 47.070    588.000    554.261     33.739    535.801    552.435    537.624    535.801    535.801
 47.170    547.000    555.753     -8.753    535.751    553.800    537.700    535.751    535.751
 47.270    557.000    557.826     -0.826    535.702    555.705    537.818    535.702    535.702
 47.370    526.486    560.852    -34.366    535.655    558.497    538.003    535.655    535.655
 47.470    541.159    565.353    -24.195    535.609    562.662    538.290    535.609    535.609
 47.570    522.000    571.940    -49.940    535.565    568.771    538.720    535.565    535.565
 47.670    577.303    581.133     -3.831    535.522    577.308    539.327    535.522    535.522
 47.770    573.000    593.076    -20.076    535.480    588.407    540.121    535.480    535.480
 47.870    613.000    607.176      5.824    535.440    601.514    541.065    535.440    535.440
 47.970    684.000    621.703     62.297    535.401    615.013    542.045    535.401    535.401
 48.070    658.289    633.534     24.755    535.363    625.987    542.858    535.363    535.363
 48.170    635.000    638.933     -3.933    535.327    630.946    543.260    535.327    535.327
 48.270    681.815    636.138     45.676    535.292    628.243    543.137    535.292    535.292
 48.370    649.000    627.141     21.859    535.258    619.735    542.622    535.258    535.258
 48.470    621.894    615.779      6.115    535.226    609.002    541.970    535.226    535.226
 48.570    647.338    605.184     42.154    535.195    598.964    541.390    535.195    535.195
 48.670    589.857    597.095     -7.238    535.165    591.242    541.001    535.165    535.165
 48.770    607.000    592.151     14.849    535.136    586.424    540.851    535.136    535.136
 48.870    565.000    590.299    -25.299    535.109    584.456    540.943    535.109    535.109
 48.970    622.199    591.165     31.034    535.083    584.978    541.263    535.083    535.083
 49.070    546.481    594.361    -47.880    535.059    587.613    541.800    535.059    535.059
 49.170    610.448    599.714     10.734    535.035    592.178    542.565    535.035    535.035
 49.270    555.000    607.473    -52.473    535.013    598.864    543.616    535.013    535.013
 49.370    628.000    618.654      9.346    534.992    608.537    545.101    534.992    534.992
 49.470    640.874    635.734      5.140    534.972    623.336    547.359    534.972    534.972
 49.570    621.959    663.919    -41.960    534.954    647.766    551.087    534.954    534.954
 49.670    689.000    712.818    -23.818    534.936    690.154    557.568    534.936    534.936
 49.770    779.004    797.658    -18.654    534.920    763.693    568.830    534.920    534.920
 49.870    905.000    938.137    -33.137    534.905    885.459    587.498    534.905    534.905
 49.970   1126.000   1152.820    -26.820    534.892   1071.547    616.047    534.892    534.892
 50.070   1395.000   1448.511    -53.511    534.879   1327.862    655.384    534.879    534.879
 50.170   1778.000   1807.105    -29.105    534.868   1638.729    703.097    534.868    534.868
 50.270   2241.972   2174.494     67.478    534.857   1957.265    751.974    534.857    534.857
 50.370   2459.000   2458.661      0.339    534.848   2203.728    789.750    534.848    534.848
 50.470   2615.000   2556.678     58.322    534.840   2288.895    802.693    534.840    534.840
 50.570   2486.000   2424.766     61.234    534.833   2174.805    784.941    534.833    534.833
 50.670   2189.000   2121.227     67.773    534.828   1912.010    744.222    534.828    534.828
 50.770   1777.867   1752.735     25.132    534.823   1593.027    694.700    534.823    534.823
 50.870   1369.000   1406.799    -37.799    534.819   1293.775    647.982    534.819    534.819
 50.970   1010.000   1131.286   -121.286    534.817   1055.801    610.408    534.817    534.817
 51.070    981.807    939.137     42.670    534.816    890.323    583.705    534.816    534.816
 51.170    775.000    820.022    -45.022    534.815    788.315    566.579    534.815    534.815
 51.270    753.000    753.161     -0.161    534.816    731.570    556.453    534.816    534.816
 51.370    703.000    717.168    -14.168    534.818    701.237    550.790    534.818    534.818
 51.470    685.599    695.393     -9.794    534.821    682.516    547.735    534.821    534.821
 51.570    656.000    678.034    -22.034    534.825    666.710    546.182    534.825    534.825
 51.670    655.000    661.702     -6.702    534.830    650.995    545.565    534.830    534.830
 51.770    672.000    646.593     25.407    534.836    635.850    545.600    534.836    534.836
 51.870    654.000    633.705     20.295    534.843    622.468    546.095    534.843    534.843
 51.970    584.000    623.637    -39.637    534.851    611.675    546.823    534.851    534.851
 52.070    645.000    616.336     28.664    534.859    603.739    547.463    534.859    534.859
 52.170    633.000    611.266     21.734    534.869    598.502    547.638    534.869    534.869
 52.270    626.646    607.792     18.854    534.880    595.577    547.098    534.880    534.880
 52.370    625.000    605.572     19.428    534.892    594.559    545.907    534.892    534.892
 52.470    656.718    604.644     52.075    534.905    595.184    544.367    534.905    534.905
 52.570    623.000    605.326     17.674    534.919    597.441    542.806    534.919    534.919
 52.670    581.036    608.206    -27.170    534.933    601.689    541.452    534.933    534.933
 52.770    616.000    614.278      1.722    534.949    608.807    540.421    534.949    534.949
 52.870    625.954    625.178      0.776    534.966    620.393    539.752    534.966    534.966
 52.970    644.000    643.385      0.615    534.983    638.938    539.430    534.983    534.983
 53.070    635.942    672.201    -36.260    535.001    667.808    539.393    535.001    535.001
 53.170    743.000    715.572     27.428    535.021    710.865    539.725    535.021    535.021
 53.270    780.000    776.833      3.167    535.041    771.449    540.421    535.041    535.041
 53.370    879.000    857.263     21.737    535.062    850.876    541.445    535.062    535.062
 53.470    970.000    954.217     15.783    535.083    946.560    542.738    535.083    535.083
 53.570   1033.648   1059.064    -25.416    535.106   1050.006    544.165    535.106    535.106
 53.670   1202.000   1155.517     46.483    535.129   1145.168    545.486    535.129    535.129
 53.770   1181.747   1220.798    -39.052    535.154   1209.603    546.368    535.154    535.154
 53.870   1175.000   1234.160    -59.160    535.179   1222.859    546.507    535.179    535.179
 53.970   1156.000   1190.663    -34.663    535.205   1180.071    545.832    535.205    535.205
 54.070   1062.000   1105.474    -43.474    535.231   1096.182    544.559    535.231    535.231
 54.170   1016.000   1002.375     13.625    535.259    994.634    543.033    535.259    535.259
 54.270    872.225    901.163    -28.939    535.287    894.939    541.539    535.287    535.287
 54.370    802.000    813.681    -11.681    535.316    808.770    540.248    535.316    535.316
 54.470    699.000    744.890    -45.890    535.346    741.021    539.230    535.346    535.346
 54.570    671.000    694.916    -23.916    535.376    691.816    538.488    535.376    535.376
 54.670    675.000    661.034     13.966    535.408    658.468    537.981    535.408    535.408
 54.770    694.000    639.392     54.608    535.440    637.185    537.652    535.440    535.440
 54.870    667.953    626.268     41.685    535.472    624.296    537.448    535.472    535.472
 54.970    680.000    618.714     61.286    535.506    616.898    537.324    535.506    535.506
 55.070    625.000    614.716     10.284    535.540    613.006    537.251    535.540    535.540
 55.170    565.602    613.050    -47.447    535.574    611.415    537.211    535.574    535.574
 55.270    623.000    613.051      9.949    535.610    611.471    537.192    535.610    535.610
 55.370    609.000    614.409     -5.409    535.646    612.867    537.188    535.646    535.646
 55.470    607.000    617.023    -10.023    535.682    615.508    537.198    535.682    535.682
 55.570    633.000    620.938     12.062    535.720    619.440    537.219    535.720    535.720
 55.670    639.000    626.340     12.660    535.758    624.848    537.250    535.758    535.758
 55.770    668.760    633.612     35.148    535.796    632.117    537.292    535.796    535.796
 55.870    676.455    643.498     32.958    535.836    641.987    537.347    535.836    535.836
 55.970    672.693    657.393     15.300    535.875    655.855    537.413    535.875    535.875
 56.070    695.000    677.807     17.193    535.916    676.249    537.471    535.916    535.916
 56.170    673.000    709.113    -36.113    535.957    707.488    537.577    535.957    535.957
 56.270    739.272    758.023    -18.751    535.998    756.267    537.744    535.998    535.998
 56.370    806.000    833.812    -27.812    536.040    831.855    537.982    536.040    536.040
 56.470    962.678    947.533     15.146    536.083    945.276    538.315    536.083    536.083
 56.570   1099.000   1109.664    -10.664    536.126   1106.988    538.768    536.126    536.126
 56.670   1357.000   1326.187     30.813    536.170   1322.959    539.355    536.170    536.170
 56.770   1584.000   1593.647     -9.647    536.214   1589.745    540.070    536.214    536.214
 56.870   1918.000   1894.018     23.982    536.259   1889.367    540.871    536.259    536.259
 56.970   2156.000   2190.149    -34.149    536.304   2184.765    541.672    536.304    536.304
 57.070   2481.000   2424.916     56.084    536.349   2418.951    542.342    536.349    536.349
 57.170   2591.000   2534.638     56.362    536.396   2528.391    542.732    536.396    536.396
 57.270   2491.000   2483.403      7.597    536.442   2477.235    542.763    536.442    536.442
 57.370   2292.004   2289.815      2.189    536.489   2284.020    542.480    536.489    536.489
 57.470   1953.000   2011.814    -58.814    536.537   2006.531    542.026    536.537    536.537
 57.570   1704.000   1710.946     -6.946    536.585   1706.170    541.553    536.585    536.585
 57.670   1418.000   1431.863    -13.863    536.633   1427.475    541.183    536.633    536.633
 57.770   1146.000   1199.339    -53.339    536.682   1195.141    541.007    536.682    536.682
 57.870   1003.000   1021.962    -18.962    536.731   1017.679    541.106    536.731    536.731
 57.970    855.309    897.246    -41.938    536.780    892.500    541.590    536.780    536.780
 58.070    810.649    816.895     -6.246    536.830    811.136    542.629    536.830    536.830
 58.170    795.000    771.323     23.677    536.880    763.734    544.491    536.880    536.880
 58.270    752.000    752.634     -0.634    536.931    742.042    547.530    536.931    536.931
 58.370    793.288    755.805     37.483    536.982    740.646    552.136    536.982    536.982
 58.470    735.970    778.359    -42.389    537.033    756.782    558.594    537.033    537.033
 58.570    856.000    819.128     36.872    537.085    789.281    566.905    537.085    537.085
 58.670    829.024    876.654    -47.630    537.136    837.161    576.595    537.136    537.136
 58.770    914.000    947.599    -33.599    537.189    898.185    586.562    537.189    537.189
 58.870   1074.000   1025.566     48.434    537.241    967.699    595.068    537.241    537.241
 58.970   1142.178   1101.399     40.779    537.294   1038.590    600.071    537.294    537.294
 59.070   1190.633   1166.083     24.550    537.347   1103.280    600.130    537.347    537.347
 59.170   1167.000   1214.000    -47.000    537.400   1156.060    595.336    537.400    537.400
 59.270   1245.000   1242.359      2.641    537.453   1192.613    587.210    537.453    537.453
 59.370   1329.000   1248.878     80.122    537.507   1208.684    577.724    537.507    537.507
 59.470   1285.000   1233.683     51.317    537.561   1202.770    568.505    537.561    537.561
 59.570   1202.288   1203.438     -1.150    537.615   1180.503    560.576    537.615    537.615
 59.670   1170.283   1170.398     -0.115    537.670   1153.682    554.394    537.670    537.670
 59.770   1177.000   1146.901     30.099    537.724   1134.644    549.961    537.724    537.724
 59.870   1134.000   1141.590     -7.590    537.779   1132.309    547.002    537.779    537.779
 59.970   1143.501   1159.459    -15.957    537.834   1152.058    545.135    537.834    537.834
 60.070   1206.000   1202.997      3.003    537.889   1196.732    544.009    537.889    537.889
 60.170   1292.000   1271.327     20.673    537.944   1265.723    543.358    537.944    537.944
 60.270   1423.000   1357.378     65.622    537.999   1352.143    543.003    537.999    537.999
 60.370   1525.000   1445.531     79.469    538.055   1440.505    542.820    538.055    538.055
 60.470   1611.000   1512.064     98.936    538.110   1507.184    542.723    538.110    538.110
 60.570   1629.000   1531.504     97.496    538.166   1526.776    542.645    538.166    538.166
 60.670   1542.000   1489.892     52.108    538.222   1485.353    542.553    538.222    538.222
 60.770   1462.000   1394.170     67.830    538.278   1389.845    542.446    538.278    538.278
 60.870   1349.000   1266.321     82.679    538.333   1262.197    542.350    538.333    538.333
 60.970   1131.000   1130.348      0.652    538.389   1126.372    542.295    538.389    538.389
 61.070    995.996   1004.540     -8.544    538.445   1000.626    542.316    538.445    538.445
 61.170    891.910    899.927     -8.016    538.501    895.955    542.445    538.501    538.501
 61.270    811.000    821.327    -10.327    538.557    817.137    542.727    538.557    538.557
 61.370    822.016    769.239     52.777    538.614    764.603    543.229    538.614    538.614
 61.470    754.199    742.009     12.191    538.670    736.600    544.052    538.670    538.670
 61.570    777.000    737.799     39.201    538.726    731.145    545.346    538.726    538.726
 61.670    809.000    755.819     53.181    538.782    747.255    547.298    538.782    538.782
 61.770    840.308    796.525     43.783    538.838    785.182    550.116    538.838    538.838
 61.870    872.000    860.811     11.189    538.894    845.645    553.973    538.894    538.894
 61.970    988.069    948.458     39.612    538.950    928.357    558.938    538.950    538.950
 62.070   1093.000   1056.288     36.712    539.006   1030.262    564.893    539.006    539.006
 62.170   1103.000   1176.429    -73.429    539.061   1143.877    571.452    539.061    539.061
 62.270   1293.797   1295.017     -1.220    539.117   1256.055    577.903    539.117    539.117
 62.370   1373.000   1392.216    -19.216    539.173   1347.995    583.217    539.173    539.173
 62.470   1383.713   1445.995    -62.282    539.228   1398.819    586.247    539.228    539.228
 62.570   1429.000   1441.344    -12.344    539.284   1394.293    586.210    539.284    539.284
 62.670   1337.000   1379.259    -42.259    539.339   1335.349    583.160    539.339    539.339
 62.770   1257.000   1275.992    -18.992    539.394   1237.378    577.953    539.394    539.394
 62.870   1175.300   1153.519     21.781    539.449   1121.195    571.741    539.449    539.449
 62.970   1062.923   1030.898     32.026    539.504   1004.860    565.526    539.504    539.504
 63.070    980.840    920.999     59.841    539.559    900.566    559.985    539.559    539.559
 63.170    733.000    830.583    -97.583    539.613    814.718    555.475    539.613    539.613
 63.270    713.000    761.480    -48.480    539.667    749.048    552.097    539.667    539.667
 63.370    709.000    712.114     -3.114    539.722    702.060    549.772    539.722    539.722
 63.470    666.690    679.102    -12.412    539.775    670.542    548.330    539.775    539.775
 63.570    644.000    658.635    -14.635    539.829    650.874    547.582    539.829    539.829
 63.670    700.000    647.448     52.552    539.883    639.946    547.374    539.883    539.883
 63.770    691.443    643.331     48.112    539.936    635.631    547.622    539.936    539.936
 63.870    600.116    645.274    -45.158    539.989    636.916    548.330    539.989    539.989
 63.970    644.000    653.395     -9.395    540.041    643.813    549.602    540.041    540.041
 64.070    706.086    668.728     37.359    540.094    657.140    551.652    540.094    540.094
 64.170    739.000    692.900     46.100    540.146    678.205    554.801    540.146    540.146
 64.270    704.225    727.693    -23.467    540.198    708.382    559.455    540.198    540.198
 64.370    739.000    774.452    -35.452    540.249    748.583    566.049    540.249    540.249
 64.470    884.063    833.388     50.675    540.301    798.660    574.941    540.301    540.301
 64.570    952.000    902.810     49.190    540.352    856.779    586.277    540.352    540.352
 64.670   1058.000    978.395     79.605    540.402    918.848    599.827    540.402    540.402
 64.770   1105.000   1052.708     52.292    540.452    978.186    614.841    540.452    540.452
 64.870   1158.000   1115.623     42.377    540.502   1026.050    629.940    540.502    540.502
 64.970   1102.980   1156.527    -53.546    540.552   1053.845    643.106    540.552    540.552
 65.070   1214.000   1168.004     45.996    540.601   1056.573    651.923    540.601    540.601
 65.170   1190.000   1148.757     41.243    540.649   1035.016    654.304    540.649    540.649
 65.270   1132.000   1103.830     28.170    540.698    994.906    649.561    540.698    540.698
 65.370   1079.237   1042.621     36.615    540.746    944.438    638.893    540.746    540.746
 65.470   1006.594    975.405     31.189    540.793    891.515    624.667    540.793    540.793
 65.570    879.000    910.303    -31.303    540.840    841.847    609.298    540.840    540.840
 65.670    891.717    852.097     39.620    540.887    798.377    594.620    540.887    540.887
 65.770    795.000    802.566     -7.566    540.933    761.739    581.780    540.933    540.933
 65.870    729.000    761.589    -32.589    540.979    731.274    571.317    540.979    540.979
 65.970    766.491    728.307     38.184    541.024    706.056    563.298    541.024    541.024
 66.070    690.000    701.776    -11.776    541.069    685.395    557.470    541.069    541.069
 66.170    677.000    681.111     -4.111    541.113    668.822    553.418    541.113    541.113
 66.270    671.000    665.461      5.539    541.157    655.939    550.690    541.157    541.157
 66.370    645.000    654.055     -9.055    541.200    646.379    548.884    541.200    541.200
 66.470    664.001    646.255     17.746    541.243    639.817    547.686    541.243    541.243
 66.570    610.000    641.577    -31.577    541.285    635.990    546.874    541.285    541.285
 66.670    627.381    639.686    -12.305    541.327    634.709    546.306    541.327    541.327
 66.770    633.000    640.409     -7.409    541.368    635.885    545.893    541.368    541.368
 66.870    661.468    643.788     17.680    541.409    639.609    545.589    541.409    541.409
 66.970    661.000    650.205     10.795    541.449    646.288    545.367    541.449    541.449
 67.070    687.011    660.558     26.453    541.488    656.830    545.218    541.488    541.488
 67.170    623.878    676.499    -52.620    541.527    672.883    545.144    541.527    541.527
 67.270    695.704    700.686     -4.981    541.565    697.093    545.158    541.565    541.565
 67.370    720.000    736.989    -16.989    541.603    733.309    545.283    541.603    541.603
 67.470    755.362    790.517    -35.154    541.640    786.604    545.551    541.640    541.640
 67.570    857.000    867.296    -10.296    541.676    862.965    546.003    541.676    541.676
 67.670    923.000    973.459    -50.459    541.712    968.486    546.680    541.712    541.712
 67.770   1067.000   1113.894    -46.894    541.747   1108.021    547.616    541.747    541.747
 67.870   1259.534   1290.462    -30.928    541.782   1283.422    548.822    541.782    541.782
 67.970   1501.855   1500.060      1.795    541.815   1491.612    550.274    541.815    541.815
 68.070   1757.740   1732.799     24.940    541.848   1722.777    551.900    541.848    541.848
 68.170   1973.000   1970.504      2.496    541.881   1958.874    553.569    541.881    541.881
 68.270   2125.283   2185.999    -60.716    541.913   2172.925    555.085    541.913    541.913
 68.370   2289.217   2345.204    -55.986    541.944   2331.093    556.202    541.944    541.944
 68.470   2422.000   2415.612      6.388    541.974   2401.101    556.687    541.974    541.974
 68.570   2398.000   2380.613     17.387    542.004   2366.448    556.419    542.004    542.004
 68.670   2215.000   2248.914    -33.914    542.033   2235.765    555.462    542.033    542.033
 68.770   2096.000   2049.207     46.793    542.061   2037.535    554.019    542.061    542.061
 68.870   1735.000   1816.128    -81.128    542.088   1806.146    552.340    542.088    542.088
 68.970   1577.000   1579.562     -2.562    542.115   1571.278    550.639    542.115    542.115
 69.070   1337.000   1360.759    -23.759    542.141   1354.036    549.067    542.141    542.141
 69.170   1085.000   1172.334    -87.334    542.166   1166.949    547.715    542.166    542.166
 69.270    996.406   1019.550    -23.144    542.190   1015.246    546.620    542.190    542.190
 69.370    945.093    902.049     43.044    542.213    898.576    545.781    542.213    542.213
 69.470    871.000    815.779     55.221    542.236    812.917    545.167    542.236    542.236
 69.570    805.252    754.861     50.391    542.258    752.431    544.736    542.258    542.258
 69.670    660.000    713.103    -53.103    542.279    710.971    544.445    542.279    542.279
 69.770    661.000    684.991    -23.991    542.299    683.062    544.252    542.299    542.299
 69.870    675.000    666.157      8.843    542.319    664.365    544.127    542.319    542.319
 69.970    671.000    653.444     17.556    542.337    651.746    544.048    542.337    542.337
 70.070    659.000    644.738     14.262    542.355    643.103    543.998    542.355    542.355
 70.170    643.000    638.711      4.289    542.372    637.120    543.969    542.372    542.372
 70.270    624.885    634.577     -9.692    542.388    633.015    543.954    542.388    542.388
 70.370    609.456    631.900    -22.444    542.403    630.353    543.952    542.403    542.403
 70.470    644.000    630.464     13.536    542.417    628.922    543.960    542.417    542.417
 70.570    654.000    630.210     23.790    542.430    628.660    543.979    542.430    542.430
 70.670    609.193    631.214    -22.021    542.443    629.645    544.009    542.443    542.443
 70.770    626.000    633.713     -7.713    542.454    632.109    544.053    542.454    542.454
 70.870    654.000    638.166     15.834    542.465    636.506    544.117    542.465    542.465
 70.970    657.000    645.352     11.648    542.474    643.608    544.208    542.474    542.474
 71.070    682.000    656.498     25.502    542.483    654.630    544.336    542.483    542.483
 71.170    715.000    673.415     41.585    542.491    671.358    544.526    542.491    542.491
 71.270    680.000    698.575    -18.575    542.498    696.241    544.800    542.498    542.498
 71.370    749.000    735.106     13.894    542.503    732.376    545.191    542.503    542.503
 71.470    747.388    786.595    -39.207    542.508    783.309    545.736    542.508    542.508
 71.570    854.731    856.641     -1.910    542.512    852.603    546.471    542.512    542.512
 71.670    974.605    948.154     26.452    542.515    943.139    547.427    542.515    542.515
 71.770   1122.000   1062.446     59.554    542.517   1056.215    548.618    542.517    542.517
 71.870   1208.000   1198.236      9.764    542.518   1190.565    550.031    542.518    542.518
 71.970   1368.000   1350.704     17.296    542.518   1341.420    551.618    542.518    542.518
 72.070   1509.000   1510.701     -1.701    542.516   1499.728    553.285    542.516    542.516
 72.170   1692.000   1664.242     27.758    542.514   1651.649    554.891    542.514    542.514
 72.270   1813.000   1792.846     20.154    542.511   1778.897    556.246    542.511    542.511
 72.370   1859.000   1876.140    -17.140    542.507   1861.306    557.143    542.507    542.507
 72.470   1857.000   1897.881    -40.881    542.501   1882.798    557.417    542.501    542.501
 72.570   1812.834   1853.244    -40.410    542.495   1838.589    557.017    542.495    542.495
 72.670   1756.000   1751.463      4.537    542.488   1737.814    556.039    542.488    542.488
 72.770   1578.196   1611.105    -32.910    542.479   1598.844    554.672    542.479    542.479
 72.870   1415.721   1452.512    -36.791    542.470   1441.815    553.121    542.470    542.470
 72.970   1257.000   1292.808    -35.808    542.459   1283.679    551.560    542.459    542.459
 73.070   1209.000   1144.275     64.725    542.447   1136.598    550.108    542.447    542.447
 73.170    996.000   1014.462    -18.462    542.434   1008.052    548.836    542.434    542.434
 73.270    873.000    906.843    -33.843    542.420    901.483    547.776    542.420    542.420
 73.370    867.033    821.680     45.353    542.405    817.153    546.929    542.405    542.405
 73.470    808.824    757.006     51.818    542.389    753.112    546.280    542.389    542.389
 73.570    711.000    709.602      1.398    542.372    706.164    545.807    542.372    542.372
 73.670    702.000    675.842     26.158    542.353    672.709    545.484    542.353    542.353
 73.770    708.000    652.305     55.695    542.333    649.345    545.291    542.333    542.333
 73.870    684.682    636.126     48.556    542.313    633.224    545.214    542.313    542.313
 73.970    647.000    625.121     21.879    542.291    622.167    545.245    542.291    542.291
 74.070    635.017    617.749     17.269    542.268    614.634    545.385    542.268    542.268
 74.170    589.816    612.990    -23.174    542.243    609.601    545.637    542.243    542.243
 74.270    592.471    610.194    -17.723    542.218    606.417    546.004    542.218    542.218
 74.370    598.174    608.940    -10.767    542.191    604.659    546.485    542.191    542.191
 74.470    611.000    608.921      2.079    542.163    604.029    547.072    542.163    542.163
 74.570    574.847    609.856    -35.009    542.134    604.269    547.744    542.134    542.134
 74.670    650.000    611.437     38.563    542.104    605.103    548.466    542.104    542.104
 74.770    640.000    613.289     26.711    542.073    606.211    549.184    542.073    542.073
 74.870    680.000    614.961     65.039    542.040    607.210    549.830    542.040    542.040
 74.970    671.000    615.964     55.036    542.006    607.685    550.327    542.006    542.006
 75.070    648.000    615.882     32.118    541.971    607.288    550.609    541.971    541.971
 75.170    655.000    614.536     40.464    541.935    605.862    550.652    541.935    541.935
 75.270    666.000    612.082     53.918    541.897    603.530    550.490    541.897    541.897
 75.370    645.000    608.962     36.038    541.859    600.651    550.206    541.859    541.859
 75.470    661.000    605.768     55.232    541.819    597.703    549.914    541.819    541.819
 75.570    688.000    603.123     84.877    541.777    595.190    549.735    541.777    541.777
 75.670    555.354    601.642    -46.288    541.735    593.603    549.791    541.735    541.735
 75.770    633.000    601.922     31.078    541.691    593.416    550.208    541.691    541.691
 75.870    620.000    604.548     15.452    541.646    595.086    551.111    541.646    541.646
 75.970    622.000    610.077     11.923    541.599    599.046    552.627    541.599    541.599
 76.070    625.759    618.999      6.760    541.552    605.673    554.866    541.552    541.552
 76.170    593.570    631.668    -38.097    541.503    615.238    557.913    541.503    541.503
 76.270    677.000    648.214     28.786    541.453    627.837    561.802    541.453    541.453
 76.370    706.000    668.442     37.558    541.401    643.312    566.494    541.401    541.401
 76.470    726.000    691.722     34.278    541.348    661.171    571.853    541.348    541.348
 76.570    744.020    716.905     27.114    541.294    680.521    577.624    541.294    541.294
 76.670    766.000    742.251     23.749    541.239    700.010    583.418    541.239    541.239
 76.770    786.000    765.414     20.586    541.182    717.819    588.711    541.182    541.182
 76.870    790.000    783.602      6.398    541.124    731.783    592.874    541.124    541.124
 76.970    799.000    794.058      4.942    541.064    739.766    595.289    541.064    541.064
 77.070    836.132    794.897     41.235    541.004    740.306    595.531    541.004    541.004
 77.170    814.000    785.875     28.125    540.941    733.213    593.547    540.941    540.941
 77.270    747.744    768.500    -20.756    540.878    719.653    589.676    540.878    540.878
 77.370    790.000    745.382     44.618    540.813    701.648    584.507    540.813    540.813
 77.470    650.000    719.346    -69.346    540.747    681.384    578.677    540.747    540.747
 77.570    643.638    692.840    -49.202    540.680    660.756    572.738    540.680    540.680
 77.670    648.097    667.705    -19.607    540.611    641.191    567.105    540.611    540.611
 77.770    646.000    645.165      0.835    540.541    623.636    562.055    540.541    540.541
 77.870    574.000    625.890    -51.890    540.469    608.610    557.739    540.469    540.469
 77.970    617.145    610.087      7.059    540.396    596.272    554.203    540.396    540.396
 78.070    640.640    597.611     43.029    540.322    586.510    551.417    540.322    540.322
 78.170    553.000    588.095    -35.095    540.246    579.040    549.297    540.246    540.246
 78.270    584.198    581.044      3.154    540.169    573.477    547.732    540.169    540.169
 78.370    588.000    575.943     12.057    540.091    569.422    546.608    540.091    540.091
 78.470    553.000    572.316    -19.316    540.011    566.506    545.818    540.011    540.011
 78.570    606.635    569.765     36.870    539.930    564.420    545.273    539.930    539.930
 78.670    558.000    567.984     -9.984    539.847    562.925    544.904    539.847    539.847
 78.770    561.000    566.747     -5.747    539.763    561.847    544.661    539.763    539.763
 78.870    603.695    565.905     37.790    539.678    561.068    544.513    539.678    539.678
 78.970    550.282    565.361    -15.079    539.591    560.512    544.438    539.591    539.591
 79.070    566.000    565.062      0.938    539.503    560.138    544.425    539.503    539.503
 79.170    518.000    564.986    -46.986    539.413    559.926    544.472    539.413    539.413
 79.270    618.000    565.133     52.867    539.322    559.872    544.581    539.322    539.322
 79.370    571.454    565.520      5.933    539.229    559.986    544.762    539.229    539.229
 79.470    580.619    566.185     14.434    539.136    560.288    545.031    539.136    539.136
 79.570    508.000    567.183    -59.183    539.040    560.804    545.417    539.040    539.040
 79.670    557.000    568.592    -11.592    538.944    561.573    545.960    538.944    538.944
 79.770    548.000    570.525    -22.525    538.845    562.640    546.728    538.845    538.845
 79.870    527.993    573.140    -45.148    538.746    564.067    547.815    538.746    538.746
 79.970    534.073    576.655    -42.582    538.645    565.935    549.360    538.645    538.645
 80.070    564.000    581.362    -17.362    538.542    568.347    551.551    538.542    538.542
 80.170    603.000    587.643     15.357    538.438    571.440    554.633    538.438    538.438
 80.270    563.000    595.965    -32.965    538.333    575.384    558.905    538.333    538.333
 80.370    599.000    606.865     -7.865    538.226    580.381    564.700    538.226    538.226
 80.470    621.000    620.916      0.084    538.118    586.663    572.359    538.118    538.118
 80.570    637.140    638.669     -1.528    538.009    594.485    582.179    538.009    538.009
 80.670    675.757    660.579     15.178    537.897    604.112    594.350    537.897    537.897
 80.770    681.000    686.902     -5.902    537.785    615.786    608.887    537.785    537.785
 80.870    737.000    717.559     19.441    537.671    629.666    625.552    537.671    537.671
 80.970    777.000    751.982     25.018    537.555    645.741    643.787    537.555    537.555
 81.070    794.768    789.002      5.766    537.439    663.760    662.676    537.439    537.439
 81.170    836.000    826.787      9.213    537.320    683.170    680.940    537.320    537.320
 81.270    859.946    862.935     -2.989    537.200    703.122    697.025    537.200    537.200
 81.370    980.000    894.771     85.229    537.079    722.552    709.320    537.079    537.079
 81.470    897.577    919.838    -22.261    536.957    740.333    716.495    536.957    536.957
 81.570    942.000    936.372      5.628    536.832    755.440    717.810    536.832    536.832
 81.670    964.000    943.516     20.484    536.707    767.051    713.228    536.707    536.707
 81.770    919.364    941.302    -21.938    536.580    774.615    703.332    536.580    536.580
 81.870    984.000    930.566     53.434    536.451    777.902    689.188    536.451    536.451
 81.970    898.000    912.784    -14.784    536.321    776.996    672.187    536.321    536.321
 82.070    863.407    889.741    -26.335    536.190    772.181    653.831    536.190    536.190
 82.170    830.620    863.175    -32.555    536.057    763.818    635.495    536.057    536.057
 82.270    877.852    834.627     43.225    535.922    752.373    618.257    535.922    535.922
 82.370    793.000    805.460    -12.460    535.787    738.490    602.835    535.787    535.787
 82.470    790.000    776.852     13.148    535.649    722.972    589.603    535.649    535.649
 82.570    733.000    749.689    -16.689    535.511    706.623    578.646    535.511    535.511
 82.670    710.259    724.482    -14.223    535.370    690.084    569.834    535.370    535.370
 82.770    695.000    701.408     -6.408    535.229    673.795    562.901    535.229    535.229
 82.870    722.408    680.471     41.937    535.086    658.082    557.527    535.086    535.086
 82.970    614.796    661.669    -46.873    534.941    643.264    553.393    534.941    534.941
 83.070    636.000    645.070     -9.070    534.795    629.684    550.220    534.795    534.795
 83.170    535.000    630.785    -95.785    534.647    617.679    547.786    534.647    534.647
 83.270    602.000    618.918    -16.918    534.498    607.522    545.920    534.498    534.498
 83.370    584.000    609.529    -25.529    534.348    599.395    544.499    534.348    534.348
 83.470    596.000    602.615     -6.615    534.196    593.382    543.439    534.196    534.196
 83.570    585.000    598.107    -13.107    534.043    589.473    542.679    534.043    534.043
 83.670    594.000    595.860     -1.860    533.888    587.566    542.176    533.888    533.888
 83.770    554.000    595.648    -41.648    533.732    587.474    541.892    533.732    533.732
 83.870    597.000    597.154     -0.154    533.574    588.918    541.790    533.574    533.574
 83.970    573.283    599.962    -26.679    533.415    591.525    541.825    533.415    533.415
 84.070    625.374    603.539     21.835    533.254    594.817    541.942    533.254    533.254
 84.170    597.000    607.411    -10.411    533.092    598.368    542.096    533.092    533.092
 84.270    613.695    610.897      2.799    532.929    601.564    542.218    532.929    532.929
 84.370    643.000    613.348     29.652    532.764    603.827    542.240    532.764    532.764
 84.470    663.929    614.224     49.705    532.598    604.669    542.107    532.598    532.598
 84.570    563.805    613.205    -49.400    532.430    603.803    541.787    532.430    532.430
 84.670    626.000    610.281     15.719    532.261    601.220    541.280    532.261    532.261
 84.770    602.000    605.737     -3.737    532.090    597.171    540.618    532.090    532.090
 84.870    566.774    600.039    -33.266    531.918    592.071    539.853    531.918    531.918
 84.970    589.211    593.709     -4.498    531.745    586.383    539.042    531.745    531.745
 85.070    550.000    587.228    -37.228    531.570    580.530    538.244    531.570    531.570
 85.170    570.000    580.998    -10.998    531.393    574.860    537.511    531.393    531.393
 85.270    589.000    575.322     13.678    531.215    569.633    536.887    531.215    531.215
 85.370    523.000    570.410    -47.410    531.036    565.018    536.414    531.036    531.036
 85.470    578.692    566.387     12.305    530.856    561.105    536.125    530.856    530.856
 85.570    574.583    563.307     11.276    530.674    557.917    536.053    530.674    530.674
 85.670    576.000    561.170     14.830    530.490    555.427    536.223    530.490    530.490
 85.770    557.000    559.938     -2.938    530.305    553.577    536.657    530.305    530.305
 85.870    551.329    559.555     -8.226    530.119    552.293    537.371    530.119    530.119
 85.970    547.000    559.952    -12.952    529.931    551.506    538.367    529.931    529.931
 86.070    549.000    561.070    -12.070    529.742    551.165    539.636    529.742    529.742
 86.170    571.189    562.847      8.342    529.552    551.239    541.146    529.552    529.552
 86.270    579.000    565.227     13.773    529.360    551.727    542.845    529.360    529.360
 86.370    599.000    568.160     30.840    529.167    552.657    544.652    529.167    529.167
 86.470    623.000    571.600     51.400    528.973    554.093    546.459    528.973    528.973
 86.570    588.736    575.499     13.237    528.777    556.123    548.129    528.777    528.777
 86.670    599.046    579.813     19.233    528.579    558.859    549.506    528.579    528.579
 86.770    582.000    584.503     -2.503    528.381    562.422    550.429    528.381    528.381
 86.870    549.000    589.559    -40.559    528.181    566.936    550.766    528.181    528.181
 86.970    569.000    595.018    -26.018    527.979    572.504    550.448    527.979    527.979
 87.070    635.000    600.961     34.039    527.777    579.191    549.494    527.777    527.777
 87.170    614.000    607.492      6.508    527.572    587.004    547.999    527.572    527.572
 87.270    621.000    614.669      6.331    527.367    595.861    546.105    527.367    527.367
 87.370    616.532    622.461     -5.929    527.160    605.575    543.965    527.160    527.160
 87.470    664.000    630.696     33.304    526.952    615.836    541.720    526.952    526.952
 87.570    644.000    639.046      4.954    526.743    626.198    539.489    526.743    526.743
 87.670    706.000    647.020     58.980    526.532    636.080    537.362    526.532    526.532
 87.770    632.311    653.990    -21.679    526.320    644.789    535.404    526.320    526.320
 87.870    700.000    659.261     40.739    526.107    651.592    533.654    526.107    526.107
 87.970    650.000    662.200    -12.200    525.892    655.840    532.130    525.892    525.892
 88.070    609.855    662.410    -52.555    525.676    657.137    530.831    525.676    525.676
 88.170    687.000    659.852     27.148    525.459    655.459    529.741    525.459    525.459
 88.270    656.000    654.860      1.140    525.240    651.162    528.838    525.240    525.240
 88.370    680.000    648.037     31.963    525.021    644.874    528.095    525.021    525.021
 88.470    593.581    640.116    -46.536    524.800    637.354    527.487    524.800    524.800
 88.570    640.787    631.843      8.943    524.577    629.369    526.990    524.577    524.577
 88.670    632.000    623.908      8.092    524.354    621.630    526.583    524.354    524.354
 88.770    584.000    616.902    -32.902    524.129    614.744    526.252    524.129    524.129
 88.870    567.000    611.293    -44.293    523.903    609.190    525.982    523.903    523.903
 88.970    610.000    607.399      2.601    523.675    605.297    525.765    523.675    523.675
 89.070    581.623    605.381    -23.758    523.447    603.234    525.591    523.447    523.447
 89.170    655.000    605.235     49.765    523.217    603.006    525.454    523.217    523.217
 89.270    620.000    606.802     13.198    522.986    604.460    525.345    522.986    522.986
 89.370    609.000    609.777     -0.777    522.754    607.301    525.255    522.754    522.754
 89.470    657.075    613.726     43.349    522.521    611.107    525.174    522.521    522.521
 89.570    630.000    618.107     11.893    522.286    615.347    525.088    522.286    522.286
 89.670    610.000    622.293    -12.293    522.050    619.408    524.984    522.050    522.050
 89.770    609.594    625.625    -16.031    521.813    622.646    524.848    521.813    521.813
 89.870    575.876    627.491    -51.614    521.575    624.462    524.664    521.575    521.575
 89.970    583.000    627.441    -44.441    521.336    624.417    524.423    521.336    521.336
 90.070    643.746    625.292     18.454    521.096    622.328    524.123    521.096    521.096
 90.170    593.646    621.158    -27.512    520.854    618.307    523.767    520.854    520.854
 90.270    597.000    615.395    -18.395    520.612    612.701    523.365    520.612    520.612
 90.370    657.957    608.492     49.465    520.368    605.983    522.931    520.368    520.368
 90.470    586.000    600.959    -14.959    520.123    598.651    522.480    520.123    520.123
 90.570    586.000    593.258     -7.258    519.877    591.156    522.022    519.877    519.877
 90.670    604.000    585.773     18.227    519.630    583.869    521.569    519.630    519.630
 90.770    553.000    578.797    -25.797    519.382    577.080    521.129    519.382    519.382
 90.870    613.682    572.538     41.144    519.132    570.987    520.707    519.132    519.132
 90.970    525.839    567.118    -41.279    518.882    565.713    520.306    518.882    518.882
 91.070    571.870    562.590      9.280    518.631    561.307    519.928    518.631    518.631
 91.170    491.000    558.949    -67.949    518.378    557.765    519.573    518.378    518.378
 91.270    573.481    556.149     17.332    518.125    555.043    519.238    518.125    518.125
 91.370    544.000    554.120    -10.120    517.870    553.072    518.923    517.870    517.870
 91.470    473.000    552.788    -79.788    517.615    551.780    518.626    517.615    517.615
 91.570    577.000    552.084     24.916    517.358    551.099    518.344    517.358    517.358
 91.670    551.031    551.959     -0.928    517.101    550.982    518.076    517.101    517.101
 91.770    551.000    552.390     -1.390    516.842    551.408    517.822    516.842    516.842
 91.870    579.965    553.390     26.575    516.583    552.387    517.582    516.583    516.583
 91.970    532.000    555.005    -23.005    516.323    553.966    517.356    516.323    516.323
 92.070    529.000    557.315    -28.315    516.061    556.223    517.146    516.061    516.061
 92.170    556.000    560.436     -4.436    515.799    559.269    516.956    515.799    515.799
 92.270    567.000    564.507      2.493    515.536    563.244    516.787    515.536    515.536
 92.370    538.324    569.687    -31.363    515.272    568.300    516.643    515.272    515.272
 92.470    567.460    576.140     -8.681    515.007    574.600    516.527    515.007    515.007
 92.570    600.000    584.024     15.976    514.741    582.299    516.442    514.741    514.741
 92.670    564.000    593.470    -29.470    514.474    591.526    516.389    514.474    514.474
 92.770    583.000    604.571    -21.571    514.206    602.374    516.368    514.206    514.206
 92.870    617.323    617.359     -0.036    513.938    614.878    516.377    513.938    513.938
 92.970    582.000    631.793    -49.793    513.668    629.001    516.412    513.668    513.668
 93.070    630.000    647.743    -17.743    513.398    644.618    516.468    513.398    513.398
 93.170    663.000    664.978     -1.978    513.127    661.507    516.536    513.127    513.127
 93.270    703.000    683.159     19.841    512.855    679.338    516.607    512.855    512.855
 93.370    694.915    701.840     -6.925    512.582    697.677    516.671    512.582    512.582
 93.470    718.000    720.497     -2.497    512.309    716.010    516.716    512.309    512.309
 93.570    745.345    738.592      6.752    512.035    733.807    516.736    512.035    512.035
 93.670    788.458    755.683     32.776    511.760    750.625    516.731    511.760    511.760
 93.770    808.964    771.526     37.438    511.484    766.214    516.708    511.484    511.484
 93.870    782.000    786.145     -4.145    511.208    780.577    516.687    511.208    511.208
 93.970    768.245    799.792    -31.547    510.931    793.935    516.700    510.931    510.931
 94.070    814.000    812.835      1.165    510.653    806.619    516.782    510.653    510.653
 94.170    813.000    825.618    -12.618    510.375    818.935    516.972    510.375    510.375
 94.270    848.000    838.365      9.635    510.095    831.073    517.304    510.095    510.095
 94.370    895.000    851.165     43.835    509.816    843.093    517.805    509.816    509.816
 94.470    832.795    864.014    -31.219    509.535    854.979    518.490    509.535    509.535
 94.570    906.000    876.891     29.109    509.254    866.708    519.360    509.254    509.254
 94.670    868.000    889.780    -21.780    508.972    878.281    520.397    508.972    508.972
 94.770    927.000    902.612     24.388    508.690    889.665    521.565    508.690    508.690
 94.870    922.758    915.166      7.591    508.407    900.694    522.812    508.407    508.407
 94.970    929.000    926.987      2.013    508.124    910.985    524.063    508.124    508.124
 95.070    918.000    937.253    -19.253    507.840    919.806    525.230    507.840    507.840
 95.170    962.000    944.867     17.133    507.555    926.159    526.214    507.555    507.555
 95.270    919.654    948.578    -28.924    507.270    928.895    526.911    507.270    507.270
 95.370    944.000    947.216     -3.216    506.985    926.937    527.232    506.985    506.985
 95.470    933.000    939.994     -6.994    506.699    919.556    527.113    506.699    506.699
 95.570    960.000    926.771     33.229    506.412    906.631    526.537    506.412    506.412
 95.670    958.000    908.151     49.849    506.125    888.733    525.535    506.125    506.125
 95.770    931.642    885.372     46.270    505.838    867.032    524.176    505.838    505.838
 95.870    864.000    860.067      3.933    505.550    843.062    522.556    505.550    505.550
 95.970    784.339    834.013    -49.674    505.262    818.502    520.777    505.262    505.262
 96.070    797.000    808.965    -11.965    504.974    795.007    518.935    504.974    504.974
 96.170    789.013    786.556      2.457    504.685    774.125    517.117    504.685    504.685
 96.270    793.000    768.260     24.740    504.395    757.259    515.395    504.395    504.395
 96.370    759.000    755.376      3.624    504.106    745.652    513.824    504.106    504.106
 96.470    782.124    749.020     33.105    503.816    740.383    512.441    503.816    503.816
 96.570    790.000    750.122     39.878    503.526    742.357    511.272    503.526    503.526
 96.670    717.000    759.422    -42.422    503.235    752.304    510.325    503.235    503.235
 96.770    772.032    777.457     -5.425    502.944    770.764    509.601    502.944    502.944
 96.870    819.000    804.549     14.451    502.653    798.066    509.091    502.653    502.653
 96.970    778.922    840.772    -61.850    502.362    834.299    508.779    502.362    502.362
 97.070    868.059    885.917    -17.857    502.071    879.273    508.648    502.071    502.071
 97.170    930.631    939.439     -8.808    501.779    932.466    508.675    501.779    501.779
 97.270   1019.000   1000.409     18.591    501.487    992.972    508.837    501.487    501.487
 97.370   1092.192   1067.452     24.740    501.195   1059.447    509.107    501.195    501.195
 97.470   1104.000   1138.708    -34.708    500.903   1130.060    509.451    500.903    500.903
 97.570   1149.433   1211.790    -62.357    500.611   1202.464    509.834    500.611    500.611
 97.670   1341.813   1283.793     58.020    500.319   1273.792    510.216    500.319    500.319
 97.770   1393.000   1351.320     41.680    500.027   1340.693    510.553    500.027    500.027
 97.870   1410.000   1410.627     -0.627    499.734   1399.472    510.796    499.734    499.734
 97.970   1481.000   1457.927     23.073    499.442   1446.391    510.898    499.442    499.442
 98.070   1560.765   1489.876     70.889    499.149   1478.144    510.818    499.149    499.149
 98.170   1532.000   1504.153     27.847    498.857   1492.437    510.527    498.857    498.857
 98.270   1422.633   1499.944    -77.312    498.564   1488.463    510.019    498.564    498.564
 98.370   1518.000   1478.106     39.894    498.272   1467.064    509.305    498.272    498.272
 98.470   1569.000   1440.926    128.074    497.980   1430.497    508.416    497.980    497.980
 98.570   1345.000   1391.605    -46.605    497.688   1381.922    507.392    497.688    497.688
 98.670   1370.000   1333.921     36.079    497.396   1325.070    506.278    497.396    497.396
 98.770   1301.000   1271.562     29.438    497.104   1263.587    505.116    497.104    497.104
 98.870   1213.000   1207.991      5.009    496.812   1200.900    503.943    496.812    496.812
 98.970   1129.500   1146.327    -16.827    496.520   1140.095    502.793    496.520    496.520
 99.070   1104.000   1089.263     14.737    496.229   1083.841    501.689    496.229    496.229
 99.170   1028.000   1039.065    -11.065    495.938   1034.385    500.651    495.938    495.938
 99.270    998.000    997.591      0.409    495.647    993.573    499.691    495.647    495.647
 99.370    916.000    966.325    -50.325    495.356    962.885    498.815    495.356    495.356
 99.470    900.175    946.406    -46.231    495.066    943.456    498.027    495.066    495.066
 99.570    946.000    938.671      7.329    494.776    936.126    497.324    494.776    494.776
 99.670    883.015    943.653    -60.638    494.486    941.434    496.701    494.486    494.486
 99.770    899.784    961.589    -61.805    494.197    959.624    496.151    494.197    494.197
 99.870   1002.323    992.438      9.885    493.908    990.666    495.665    493.908    493.908
 99.970   1105.000   1035.873     69.127    493.619   1034.240    495.235    493.619    493.619
100.070   1100.000   1091.265      8.735    493.331   1089.726    494.851    493.331    493.331
100.170   1264.000   1157.653    106.347    493.043   1156.173    494.505    493.043    493.043
100.270   1284.927   1233.707     51.220    492.756   1232.261    494.189    492.756    492.756
100.370   1295.000   1317.690    -22.690    492.469   1316.256    493.896    492.469    492.469
100.470   1380.193   1407.416    -27.224    492.183   1405.982    493.620    492.183    492.183
100.570   1487.000   1500.247    -13.247    491.897   1498.805    493.356    491.897    491.897
100.670   1587.000   1593.144     -6.144    491.612   1591.693    493.097    491.612    491.612
100.770   1628.641   1682.826    -54.185    491.328   1681.365    492.842    491.328    491.328
100.870   1860.000   1766.030     93.970    491.044   1764.563    492.586    491.044    491.044
100.970   1900.809   1839.848     60.961    490.761   1838.377    492.328    490.761    490.761
101.070   1865.235   1901.993    -36.757    490.478   1900.522    492.069    490.478    490.478
101.170   1962.000   1950.892     11.108    490.196   1949.420    491.808    490.196    490.196
101.270   1982.000   1985.560     -3.560    489.915   1984.086    491.548    489.915    489.915
101.370   2028.000   2005.364     22.636    489.635   2003.880    491.293    489.635    489.635
101.470   1969.000   2009.852    -40.852    489.355   2008.351    491.045    489.355    489.355
101.570   1976.617   1998.791    -22.173    489.076   1997.260    490.806    489.076    489.076
101.670   1940.000   1972.396    -32.396    488.798   1970.822    490.579    488.798    488.798
101.770   1970.000   1931.652     38.348    488.521   1930.019    490.364    488.521    488.521
101.870   1954.000   1878.501     75.499    488.245   1876.793    490.162    488.245    488.245
101.970   1840.000   1815.777     24.223    487.970   1813.982    489.972    487.970    487.970
102.070   1631.000   1746.893   -115.893    487.695   1744.998    489.790    487.695    487.695
102.170   1734.072   1675.392     58.681    487.422   1673.388    489.615    487.422    487.422
102.270   1601.000   1604.529     -3.529    487.150   1602.415    489.442    487.150    487.150
102.370   1452.000   1536.979    -84.979    486.878   1534.757    489.266    486.878    486.878
102.470   1437.000   1474.766    -37.766    486.608   1472.445    489.082    486.608    486.608
102.570   1392.507   1419.106    -26.599    486.339   1416.700    488.886    486.339    486.339
102.670   1347.000   1370.496    -23.496    486.070   1368.024    488.673    486.070    486.070
102.770   1235.000   1328.758    -93.758    485.803   1326.240    488.442    485.803    485.803
102.870   1267.000   1293.110    -26.110    485.537   1290.569    488.191    485.537    485.537
102.970   1261.000   1262.258     -1.258    485.273   1259.718    487.920    485.273    485.273
103.070   1131.000   1234.537   -103.537    485.009   1232.022    487.627    485.009    485.009
103.170   1208.632   1208.102      0.529    484.747   1205.637    487.312    484.747    484.747
103.270   1142.000   1181.173    -39.173    484.486   1178.781    486.977    484.486    484.486
103.370   1147.000   1152.294     -5.294    484.226   1149.996    486.621    484.226    484.226
103.470   1032.000   1120.537    -88.537    483.968   1118.355    486.247    483.968    483.968
103.570   1037.000   1085.591    -48.591    483.711   1083.540    485.857    483.711    483.711
103.670   1032.000   1047.703    -15.703    483.456   1045.794    485.456    483.456    483.456
103.770   1011.000   1007.524      3.476    483.202   1005.764    485.050    483.202    483.202
103.870    960.000    965.931     -5.931    482.949    964.322    484.641    482.949    482.949
103.970    885.674    923.867    -38.193    482.698    922.407    484.236    482.698    482.698
104.070    845.000    882.242    -37.242    482.448    880.926    483.837    482.448    482.448
104.170    856.341    841.873     14.469    482.200    840.692    483.447    482.200    482.200
104.270    781.000    803.452    -22.452    481.953    802.397    483.069    481.953    481.953
104.370    745.143    767.537    -22.394    481.708    766.596    482.703    481.708    481.708
104.470    735.000    734.540      0.460    481.465    733.700    482.352    481.465    481.465
104.570    707.000    704.730      2.270    481.223    703.980    482.014    481.223    481.223
104.670    706.000    678.239     27.761    480.984    677.566    481.691    480.984    480.984
104.770    663.880    655.071      8.808    480.745    654.465    481.381    480.745    480.745
104.870    685.666    635.134     50.533    480.509    634.583    481.085    480.509    480.509
104.970    648.000    618.250     29.750    480.274    617.744    480.800    480.274    480.274
105.070    616.482    604.178     12.303    480.042    603.709    480.527    480.042    480.042
105.170    567.675    592.649    -24.974    479.811    592.208    480.265    479.811    479.811
105.270    632.000    583.379     48.621    479.582    582.958    480.012    479.582    479.582
105.370    643.000    576.093     66.907    479.355    575.687    479.768    479.355    479.355
105.470    612.000    570.538     41.462    479.130    570.140    479.532    479.130    479.130
105.570    585.000    566.494     18.506    478.906    566.099    479.304    478.906    478.906
105.670    550.279    563.778    -13.500    478.685    563.380    479.084    478.685    478.685
105.770    569.000    562.249      6.751    478.466    561.843    478.871    478.466    478.466
105.870    528.617    561.806    -33.189    478.249    561.385    478.666    478.249    478.249
105.970    569.000    562.383      6.617    478.035    561.943    478.469    478.035    478.035
106.070    589.000    563.950     25.050    477.822    563.483    478.281    477.822    477.822
106.170    605.000    566.500     38.500    477.612    566.000    478.101    477.612    477.612
106.270    550.950    570.045    -19.095    477.404    569.504    477.931    477.404    477.404
106.370    551.295    574.597    -23.302    477.198    574.008    477.771    477.198    477.198
106.470    565.000    580.204    -15.204    476.994    579.559    477.621    476.994    476.994
106.570    582.961    586.903     -3.942    476.793    586.191    477.483    476.793    476.793
106.670    582.079    594.690    -12.611    476.594    593.904    477.356    476.594    476.594
106.770    601.036    603.551     -2.515    476.398    602.680    477.240    476.398    476.398
106.870    624.000    613.435     10.565    476.204    612.472    477.134    476.204    476.204
106.970    668.000    624.251     43.749    476.013    623.190    477.038    476.013    476.013
107.070    680.000    635.862     44.138    475.824    634.696    476.950    475.824    475.824
107.170    652.000    648.077      3.923    475.637    646.804    476.869    475.637    475.637
107.270    625.000    660.657    -35.657    475.454    659.274    476.791    475.454    475.454
107.370    645.000    673.309    -28.309    475.272    671.820    476.714    475.272    475.272
107.470    686.249    685.697      0.552    475.094    684.107    476.635    475.094    475.094
107.570    665.000    697.447    -32.447    474.918    695.765    476.550    474.918    474.918
107.670    654.770    708.170    -53.400    474.745    706.410    476.454    474.745    474.745
107.770    713.086    717.491     -4.405    474.575    715.670    476.345    474.575    474.575
107.870    729.000    725.094      3.906    474.408    723.234    476.219    474.408    474.408
107.970    682.754    730.771    -48.017    474.244    728.894    476.073    474.244    474.244
108.070    742.000    734.462      7.538    474.082    732.594    475.906    474.082    474.082
108.170    695.103    736.277    -41.174    473.923    734.440    475.720    473.923    473.923
108.270    749.223    736.476     12.747    473.768    734.692    475.515    473.768    473.768
108.370    703.000    735.432    -32.432    473.615    733.720    475.296    473.615    473.615
108.470    691.702    733.575    -41.873    473.466    731.949    475.065    473.466    473.466
108.570    711.000    731.334    -20.334    473.319    729.804    474.827    473.319    473.319
108.670    703.000    729.096    -26.096    473.176    727.669    474.585    473.176    473.176
108.770    701.000    727.177    -26.177    473.036    725.855    474.343    473.036    473.036
108.870    724.000    725.800     -1.800    472.899    724.584    474.105    472.899    472.899
108.970    701.198    725.093    -23.894    472.766    723.979    473.873    472.766    472.766
109.070    700.000    725.078    -25.078    472.635    724.063    473.648    472.635    472.635
109.170    671.617    725.676    -54.059    472.508    724.752    473.433    472.508    472.508
109.270    776.000    726.710     49.290    472.385    725.871    473.228    472.385    472.385
109.370    705.000    727.914    -22.914    472.265    727.152    473.034    472.265    472.265
109.470    664.000    728.951    -64.951    472.148    728.259    472.851    472.148    472.148
109.570    721.000    729.442     -8.442    472.035    728.811    472.679    472.035    472.035
109.670    697.000    729.000    -32.000    471.925    728.423    472.518    471.925    471.925
109.770    732.976    727.282      5.694    471.819    726.753    472.366    471.819    471.819
109.870    750.000    724.032     25.968    471.717    723.546    472.223    471.717    471.717
109.970    731.923    719.121     12.802    471.618    718.672    472.089    471.618    471.618
110.070    719.000    712.557      6.443    471.523    712.140    471.963    471.523    471.523
110.170    649.891    704.477    -54.585    471.432    704.088    471.843    471.432    471.432
110.270    720.000    695.117     24.883    471.345    694.754    471.731    471.345    471.345
110.370    736.173    684.776     51.397    471.261    684.435    471.625    471.261    471.261
110.470    650.000    673.773    -23.773    471.182    673.452    471.525    471.182    471.182
110.570    612.190    662.427    -50.237    471.106    662.123    471.431    471.106    471.106
110.670    677.492    651.034     26.458    471.035    650.745    471.342    471.035    471.035
110.770    628.000    639.859    -11.859    470.967    639.582    471.260    470.967    470.967
110.870    677.000    629.129     47.871    470.903    628.864    471.183    470.903    470.903
110.970    623.000    619.034      3.966    470.844    618.779    471.112    470.844    470.844
111.070    561.694    609.722    -48.028    470.789    609.476    471.046    470.789    470.789
111.170    597.023    601.304     -4.282    470.738    601.065    470.986    470.738    470.738
111.270    616.525    593.852     22.673    470.691    593.619    470.931    470.691    470.691
111.370    575.343    587.404    -12.061    470.648    587.175    470.882    470.648    470.648
111.470    627.000    581.965     45.035    470.610    581.740    470.837    470.610    470.610
111.570    568.461    577.509     -9.048    470.576    577.291    470.796    470.576    470.576
111.670    525.454    574.009    -48.555    470.547    573.793    470.763    470.547    470.547
111.770    539.000    571.400    -32.400    470.522    571.184    470.735    470.522    470.522
111.870    555.000    569.611    -14.611    470.502    569.395    470.713    470.502    470.502
111.970    576.000    568.565      7.435    470.486    568.349    470.697    470.486    470.486
112.070    614.000    568.183     45.817    470.475    567.967    470.685    470.475    470.475
112.170    567.000    568.388     -1.388    470.469    568.171    470.679    470.469    470.469
112.270    562.938    569.102     -6.164    470.467    568.884    470.678    470.467    470.467
112.370    586.000    570.255     15.745    470.470    570.035    470.681    470.470    470.470
112.470    526.014    571.804    -45.790    470.478    571.582    470.690    470.478    470.478
112.570    560.000    573.691    -13.691    470.491    573.467    470.704    470.491    470.491
112.670    559.000    575.879    -16.879    470.509    575.653    470.723    470.509    470.509
112.770    574.000    578.346     -4.346    470.531    578.118    470.748    470.531    470.531
112.870    580.618    581.082     -0.464    470.559    580.852    470.777    470.559    470.559
112.970    598.000    584.092     13.908    470.592    583.860    470.812    470.592    470.592
113.070    564.072    587.394    -23.322    470.630    587.159    470.852    470.630    470.630
113.170    581.000    591.021    -10.021    470.673    590.783    470.898    470.673    470.673
113.270    577.484    595.022    -17.538    470.721    594.780    470.950    470.721    470.721
113.370    589.000    599.462    -10.462    470.775    599.215    471.007    470.775    470.775
113.470    646.919    604.425     42.495    470.833    604.172    471.071    470.833    470.833
113.570    565.000    610.020    -45.020    470.898    609.761    471.142    470.898    470.898
113.670    598.000    616.389    -18.389    470.967    616.121    471.220    470.967    470.967
113.770    609.000    623.711    -14.711    471.042    623.432    471.305    471.042    471.042
113.870    616.000    632.215    -16.215    471.123    631.921    471.397    471.123    471.123
113.970    610.414    642.191    -31.777    471.209    641.881    471.498    471.209    471.209
114.070    657.000    654.008      2.992    471.301    653.678    471.607    471.301    471.301
114.170    699.840    668.124     31.715    471.398    667.770    471.725    471.398    471.398
114.270    713.679    685.112     28.567    471.502    684.729    471.853    471.502    471.502
114.370    660.000    705.671    -45.671    471.611    705.254    471.990    471.611    471.611
114.470    675.424    730.650    -55.226    471.725    730.194    472.138    471.725    471.725
114.570    741.193    761.065    -19.872    471.846    760.562    472.296    471.846    471.846
114.670    836.000    798.110     37.890    471.973    797.555    472.465    471.973    471.973
114.770    822.000    843.174    -21.174    472.105    842.558    472.645    472.105    472.105
114.870    877.000    897.836    -20.836    472.244    897.152    472.837    472.244    472.244
114.970    948.103    963.860    -15.757    472.389    963.099    473.040    472.389    472.389
115.070   1056.000   1043.177     12.823    472.540   1042.331    473.254    472.540    472.540
115.170   1075.000   1137.849    -62.849    472.697   1136.909    473.480    472.697    472.697
115.270   1216.515   1250.016    -33.502    472.860   1248.973    473.717    472.860    472.860
115.370   1439.000   1381.830     57.170    473.030   1380.677    473.965    473.030    473.030
115.470   1497.174   1535.364    -38.190    473.206   1534.093    474.223    473.206    473.206
115.570   1800.072   1712.511     87.561    473.389   1711.114    474.490    473.389    473.389
115.670   2035.000   1914.861    120.139    473.578   1913.334    474.766    473.578    473.578
115.770   2248.000   2143.577    104.423    473.773   2141.917    475.050    473.773    473.773
115.870   2513.000   2399.257    113.743    473.975   2397.461    475.341    473.975    473.975
115.970   2778.000   2681.804     96.196    474.184   2679.873    475.638    474.184    474.184
116.070   2944.950   2990.302    -45.352    474.400   2988.238    475.939    474.400    474.400
116.170   3348.000   3322.907     25.093    474.622   3320.716    476.244    474.622    474.622
116.270   3731.000   3676.770     54.230    474.851   3674.459    476.552    474.851    474.851
116.370   4090.000   4047.970     42.030    475.087   4045.549    476.863    475.087    475.087
116.470   4465.000   4431.495     33.505    475.330   4428.977    477.175    475.330    475.330
116.570   4776.382   4821.242    -44.860    475.580   4818.641    477.490    475.580    475.580
116.670   5249.467   5210.062     39.405    475.837   5207.390    477.809    475.837    475.837
116.770   5555.000   5589.830    -34.830    476.101   5587.106    478.131    476.101    476.101
116.870   5803.174   5951.592   -148.417    476.372   5948.829    478.459    476.372    476.372
116.970   6272.000   6285.763    -13.763    476.650   6282.978    478.794    476.650    476.650
117.070   6617.000   6582.461     34.539    476.936   6579.670    479.136    476.936    476.936
117.170   6828.000   6831.968     -3.968    477.229   6829.186    479.486    477.229    477.229
117.270   7045.000   7025.347     19.653    477.530   7022.587    479.845    477.530    477.530
117.370   7049.403   7155.174   -105.771    477.838   7152.448    480.211    477.838    477.838
117.470   7375.450   7216.273    159.177    478.153   7213.590    480.586    478.153    478.153
117.570   7044.278   7206.301   -162.023    478.476   7203.665    480.968    478.476    478.476
117.670   7145.000   7126.021     18.979    478.807   7123.434    481.355    478.807    478.807
117.770   6933.000   6979.174    -46.174    479.146   6976.635    481.745    479.146    479.146
117.870   6699.000   6772.179    -73.179    479.492   6769.684    482.138    479.492    479.492
117.970   6483.000   6513.217    -30.217    479.846   6510.763    482.530    479.846    479.846
118.070   6089.572   6211.598   -122.026    480.208   6209.181    482.920    480.208    480.208
118.170   5615.000   5877.080   -262.080    480.578   5874.699    483.304    480.578    480.578
118.270   5537.000   5519.318     17.682    480.956   5516.974    483.682    480.956    480.956
118.370   5239.139   5147.473     91.665    481.341   5145.168    484.052    481.341    481.341
118.470   4698.483   4769.951    -71.468    481.736   4767.689    484.413    481.736    481.736
118.570   4362.000   4394.230    -32.230    482.138   4392.016    484.765    482.138    482.138
118.670   4091.000   4026.764     64.236    482.548   4024.605    485.111    482.548    482.548
118.770   3572.864   3672.929   -100.065    482.967   3670.829    485.451    482.967    482.967
118.870   3268.087   3337.009    -68.922    483.395   3334.973    485.788    483.395    483.395
118.970   3062.000   3022.221     39.779    483.830   3020.254    486.125    483.830    483.830
119.070   2684.000   2730.776    -46.776    484.275   2728.881    486.465    484.275    484.275
119.170   2561.651   2463.963     97.688    484.728   2462.141    486.809    484.728    484.728
119.270   2192.492   2222.257    -29.765    485.189   2220.509    487.162    485.189    485.189
119.370   1994.000   2005.444    -11.444    485.659   2003.769    487.525    485.659    485.659
119.470   1770.131   1812.742    -42.611    486.138   1811.138    487.902    486.138    486.138
119.570   1646.000   1642.930      3.070    486.626   1641.393    488.293    486.626    486.626
119.670   1502.258   1494.463      7.796    487.123   1492.987    488.701    487.123    487.123
119.770   1381.000   1365.579     15.421    487.629   1364.159    489.127    487.629    487.629
119.870   1272.000   1254.400     17.600    488.143   1253.029    489.573    488.143    488.143
119.970   1226.309   1159.013     67.296    488.667   1157.682    490.041    488.667    488.667
120.070   1059.000   1077.542    -18.542    489.200   1076.241    490.529    489.200    489.200
120.170   1029.000   1008.196     20.804    489.743   1006.916    491.040    489.743    489.743
120.270    974.000    949.319     24.681    490.294    948.048    491.574    490.294    490.294
120.370    890.000    899.404     -9.404    490.855    898.132    492.131    490.855    490.855
120.470    891.000    857.116     33.884    491.426    855.829    492.712    491.426    491.426
120.570    845.000    821.286     23.714    492.005    819.973    493.315    492.005    492.005
120.670    846.977    790.912     56.065    492.595    789.559    493.943    492.595    492.595
120.770    820.506    765.145     55.361    493.194    763.740    494.594    493.194    493.194
120.870    755.000    743.274     11.726    493.803    741.803    495.268    493.803    493.803
120.970    709.000    724.709    -15.709    494.422    723.160    495.966    494.422    494.422
121.070    715.000    708.969      6.031    495.050    707.326    496.689    495.050    495.050
121.170    687.000    695.657     -8.657    495.688    693.908    497.435    495.688    495.688
121.270    683.000    684.453     -1.453    496.337    682.582    498.206    496.337    496.337
121.370    685.000    675.095      9.905    496.995    673.089    499.001    496.995    496.995
121.470    720.457    667.371     53.086    497.664    665.215    499.822    497.664    497.664
121.570    617.000    661.107    -44.107    498.343    658.785    500.668    498.343    498.343
121.670    670.557    656.159     14.398    499.032    653.654    501.541    499.032    499.032
121.770    659.636    652.406      7.230    499.731    649.702    502.441    499.731    499.731
121.870    635.000    649.743    -14.743    500.441    646.822    503.369    500.441    500.441
121.970    689.544    648.080     41.464    501.161    644.925    504.326    501.161    501.161
122.070    591.000    647.334    -56.334    501.892    643.925    505.312    501.892    501.892
122.170    668.000    647.426     20.574    502.634    643.745    506.327    502.634    502.634
122.270    580.000    648.283    -68.283    503.386    644.310    507.373    503.386    503.386
122.370    658.070    649.829      8.241    504.149    645.544    508.449    504.149    504.149
122.470    666.065    651.987     14.079    504.923    647.373    509.554    504.923    504.923
122.570    640.000    654.676    -14.676    505.708    649.717    510.687    505.708    505.708
122.670    661.005    657.813      3.192    506.503    652.493    511.846    506.503    506.503
122.770    611.107    661.306    -50.199    507.310    655.614    513.028    507.310    507.310
122.870    662.148    665.059     -2.910    508.128    658.986    514.229    508.128    508.128
122.970    673.000    668.967      4.033    508.957    662.510    515.446    508.957    508.957
123.070    645.000    672.923    -27.923    509.798    666.083    516.672    509.798    509.798
123.170    665.000    676.812    -11.812    510.650    669.595    517.903    510.650    510.650
123.270    643.002    680.513    -37.511    511.513    672.934    519.132    511.513    511.513
123.370    720.286    683.908     36.378    512.388    675.986    520.352    512.388    512.388
123.470    682.298    686.878     -4.580    513.274    678.641    521.556    513.274    513.274
123.570    715.000    689.314     25.686    514.172    680.796    522.738    514.172    514.172
123.670    658.000    691.119    -33.119    515.082    682.360    523.891    515.082    515.082
123.770    704.211    692.215     11.996    516.003    683.261    525.009    516.003    516.003
123.870    653.543    692.549    -39.006    516.937    683.450    526.089    516.937    516.937
123.970    720.000    692.093     27.907    517.882    682.904    527.127    517.882    517.882
124.070    724.418    690.851     33.568    518.840    681.625    528.121    518.840    518.840
124.170    687.321    688.848     -1.527    519.810    679.641    529.072    519.810    519.810
124.270    672.000    686.135    -14.135    520.791    677.001    529.980    520.791    520.791
124.370    649.370    682.778    -33.408    521.786    673.770    530.847    521.786    521.786
124.470    685.000    678.854      6.146    522.792    670.021    531.677    522.792    522.792
124.570    665.296    674.447     -9.152    523.811    665.836    532.473    523.811    523.811
124.670    705.000    669.646     35.354    524.842    661.298    533.238    524.842    524.842
124.770    714.532    664.538     49.994    525.887    656.492    533.979    525.887    525.887
124.870    667.000    659.209      7.791    526.943    651.497    534.699    526.943    526.943
124.970    677.000    653.745     23.255    528.013    646.394    535.404    528.013    528.013
