neutron_powder_diffraction_0200
R_wp: 3.824
Temperature (K): 1074.000
Counts: 84229.00
Wavelength (Ã…): 2.52098
COMMENTS
Test file for demonstrating the .xyy file format in Reel1.0
END OF HEADER
   tth       Y_obs     Y_calc      Y_res    Background    Phase_1_Nuc    Phase_1_Mag    Phase_2_Nuc    Phase_2_Mag
  9.970    524.516    571.148    -46.632    570.482    571.101    570.482    570.529    570.482
 10.070    594.000    571.256     22.744    570.533    571.208    570.533    570.580    570.533
 10.170    522.993    571.363    -48.370    570.579    571.315    570.579    570.626    570.579
 10.270    604.838    571.474     33.364    570.619    571.426    570.619    570.667    570.619
 10.370    563.000    571.592     -8.592    570.654    571.543    570.654    570.702    570.654
 10.470    539.279    571.719    -32.440    570.685    571.670    570.685    570.733    570.685
 10.570    602.000    571.863     30.137    570.710    571.808    570.710    570.764    570.710
 10.670    606.735    572.020     34.715    570.730    571.964    570.730    570.785    570.730
 10.770    601.519    572.199     29.319    570.745    572.143    570.745    570.800    570.745
 10.870    573.000    572.410      0.590    570.755    572.354    570.755    570.811    570.755
 10.970    610.000    572.665     37.335    570.761    572.608    570.761    570.817    570.761
 11.070    601.314    572.978     28.336    570.761    572.921    570.761    570.818    570.761
 11.170    593.000    573.377     19.623    570.757    573.319    570.757    570.814    570.757
 11.270    594.572    573.896     20.676    570.748    573.838    570.748    570.805    570.748
 11.370    625.000    574.601     50.399    570.735    574.542    570.735    570.792    570.735
 11.470    618.507    575.631     42.876    570.717    575.571    570.717    570.774    570.717
 11.570    623.094    577.377     45.717    570.694    577.316    570.694    570.751    570.694
 11.670    615.000    580.975     34.025    570.667    580.912    570.667    570.724    570.667
 11.770    568.000    589.137    -21.137    570.635    589.068    570.635    570.693    570.635
 11.870    643.000    606.346     36.654    570.599    606.267    570.599    570.657    570.599
 11.970    669.000    636.212     32.788    570.558    636.116    570.558    570.618    570.558
 12.070    692.000    674.983     17.017    570.513    674.862    570.513    570.576    570.513
 12.170    673.000    705.601    -32.601    570.464    705.461    570.464    570.528    570.464
 12.270    671.000    706.551    -35.551    570.411    706.410    570.411    570.475    570.411
 12.370    691.886    676.925     14.961    570.353    676.800    570.353    570.418    570.353
 12.470    634.000    637.864     -3.864    570.291    637.760    570.291    570.357    570.291
 12.570    632.000    607.194     24.806    570.225    607.108    570.225    570.291    570.225
 12.670    552.000    589.275    -37.275    570.155    589.198    570.155    570.221    570.155
 12.770    554.217    580.673    -26.455    570.081    580.600    570.081    570.148    570.081
 12.870    579.000    576.830      2.170    570.003    576.759    570.003    570.070    570.003
 12.970    593.000    574.928     18.072    569.921    574.858    569.921    569.988    569.921
 13.070    580.000    573.774      6.226    569.835    573.705    569.835    569.903    569.835
 13.170    601.000    572.956     28.044    569.745    572.887    569.745    569.813    569.745
 13.270    533.957    572.329    -38.372    569.652    572.259    569.652    569.720    569.652
 13.370    497.000    571.827    -74.827    569.554    571.757    569.554    569.623    569.554
 13.470    614.110    571.411     42.699    569.453    571.341    569.453    569.522    569.453
 13.570    588.623    571.057     17.566    569.348    570.987    569.348    569.418    569.348
 13.670    599.857    570.749     29.108    569.240    570.678    569.240    569.310    569.240
 13.770    545.000    570.474    -25.474    569.128    570.403    569.128    569.198    569.128
 13.870    557.000    570.223    -13.223    569.012    570.152    569.012    569.083    569.012
 13.970    544.979    569.992    -25.013    568.893    569.921    568.893    568.964    568.893
 14.070    613.181    569.775     43.406    568.771    569.703    568.771    568.842    568.771
 14.170    564.121    569.568     -5.447    568.644    569.497    568.644    568.716    568.644
 14.270    549.000    569.370    -20.370    568.515    569.298    568.515    568.587    568.515
 14.370    598.303    569.178     29.124    568.382    569.106    568.382    568.455    568.382
 14.470    600.000    568.991     31.009    568.246    568.918    568.246    568.319    568.246
 14.570    548.000    568.807    -20.807    568.107    568.734    568.107    568.180    568.107
 14.670    554.000    568.627    -14.627    567.964    568.552    567.964    568.039    567.964
 14.770    560.000    568.450     -8.450    567.818    568.374    567.818    567.894    567.818
 14.870    576.000    568.273      7.727    567.669    568.196    567.669    567.745    567.669
 14.970    510.000    568.094    -58.094    567.517    568.017    567.517    567.594    567.517
 15.070    533.271    567.915    -34.644    567.362    567.838    567.362    567.439    567.362
 15.170    563.242    567.736     -4.494    567.204    567.658    567.204    567.281    567.204
 15.270    554.000    567.555    -13.555    567.043    567.477    567.043    567.120    567.043
 15.370    585.000    567.374     17.626    566.878    567.296    566.878    566.957    566.878
 15.470    518.000    567.192    -49.192    566.711    567.113    566.711    566.790    566.711
 15.570    597.000    567.009     29.991    566.541    566.930    566.541    566.620    566.541
 15.670    574.105    566.824      7.281    566.369    566.744    566.369    566.448    566.369
 15.770    540.163    566.637    -26.474    566.193    566.557    566.193    566.273    566.193
 15.870    544.000    566.449    -22.449    566.014    566.369    566.014    566.095    566.014
 15.970    550.000    566.260    -16.260    565.833    566.179    565.833    565.914    565.833
 16.070    590.000    566.071     23.929    565.649    565.989    565.649    565.731    565.649
 16.170    570.050    565.877      4.173    565.463    565.795    565.463    565.545    565.463
 16.270    591.502    565.682     25.820    565.274    565.600    565.274    565.356    565.274
 16.370    556.358    565.485     -9.127    565.082    565.402    565.082    565.165    565.082
 16.470    586.000    565.286     20.714    564.888    565.202    564.888    564.971    564.888
 16.570    559.000    565.085     -6.085    564.691    565.001    564.691    564.775    564.691
 16.670    583.928    564.882     19.046    564.492    564.797    564.492    564.576    564.492
 16.770    573.000    564.677      8.323    564.290    564.592    564.290    564.375    564.290
 16.870    534.418    564.470    -30.052    564.086    564.385    564.086    564.172    564.086
 16.970    567.234    564.262      2.972    563.880    564.175    563.880    563.966    563.880
 17.070    564.000    564.051     -0.051    563.671    563.964    563.671    563.758    563.671
 17.170    556.592    563.839     -7.247    563.460    563.751    563.460    563.547    563.460
 17.270    555.000    563.629     -8.629    563.246    563.536    563.246    563.339    563.246
 17.370    527.000    563.415    -36.415    563.031    563.320    563.031    563.126    563.031
 17.470    543.000    563.200    -20.200    562.813    563.103    562.813    562.909    562.813
 17.570    597.831    562.980     34.851    562.593    562.883    562.593    562.690    562.593
 17.670    566.000    562.759      3.241    562.371    562.661    562.371    562.468    562.371
 17.770    528.434    562.535    -34.101    562.147    562.437    562.147    562.245    562.147
 17.870    542.328    562.310    -19.982    561.920    562.211    561.920    562.019    561.920
 17.970    543.000    562.083    -19.083    561.692    561.983    561.692    561.792    561.692
 18.070    533.000    561.854    -28.854    561.462    561.754    561.462    561.562    561.462
 18.170    572.000    561.624     10.376    561.230    561.523    561.230    561.331    561.230
 18.270    557.000    561.392     -4.392    560.995    561.290    560.995    561.097    560.995
 18.370    546.000    561.158    -15.158    560.759    561.056    560.759    560.862    560.759
 18.470    539.000    560.923    -21.923    560.522    560.820    560.522    560.625    560.522
 18.570    568.000    560.686      7.314    560.282    560.582    560.282    560.386    560.282
 18.670    539.000    560.448    -21.448    560.040    560.343    560.040    560.145    560.040
 18.770    591.000    560.208     30.792    559.797    560.103    559.797    559.902    559.797
 18.870    564.483    559.967      4.516    559.552    559.861    559.552    559.658    559.552
 18.970    545.000    559.724    -14.724    559.305    559.617    559.305    559.412    559.305
 19.070    550.000    559.481     -9.481    559.057    559.373    559.057    559.165    559.057
 19.170    552.000    559.236     -7.236    558.807    559.127    558.807    558.916    558.807
 19.270    599.951    558.990     40.961    558.555    558.881    558.555    558.665    558.555
 19.370    561.000    558.743      2.257    558.302    558.633    558.302    558.413    558.302
 19.470    539.000    558.494    -19.494    558.047    558.383    558.047    558.159    558.047
 19.570    576.000    558.244     17.756    557.791    558.132    557.791    557.903    557.791
 19.670    562.000    557.993      4.007    557.533    557.879    557.533    557.647    557.533
 19.770    520.883    557.740    -36.857    557.274    557.626    557.274    557.388    557.274
 19.870    592.566    557.487     35.080    557.013    557.371    557.013    557.129    557.013
 19.970    548.000    557.233     -9.233    556.751    557.117    556.751    556.868    556.751
 20.070    575.000    556.991     18.009    556.488    556.874    556.488    556.605    556.488
 20.170    544.000    556.745    -12.745    556.223    556.626    556.223    556.342    556.223
 20.270    544.834    556.489    -11.655    555.957    556.369    555.957    556.077    555.957
 20.370    574.315    556.231     18.085    555.690    556.110    555.690    555.811    555.690
 20.470    579.848    555.972     23.876    555.422    555.851    555.422    555.543    555.422
 20.570    537.000    555.713    -18.713    555.152    555.590    555.152    555.275    555.152
 20.670    564.000    555.453      8.547    554.881    555.329    554.881    555.005    554.881
 20.770    513.000    555.193    -42.193    554.609    555.068    554.609    554.734    554.609
 20.870    569.739    554.933     14.807    554.335    554.806    554.335    554.462    554.335
 20.970    536.000    554.672    -18.672    554.061    554.544    554.061    554.189    554.061
 21.070    565.294    554.410     10.883    553.786    554.281    553.786    553.915    553.786
 21.170    581.090    554.149     26.941    553.509    554.019    553.509    553.640    553.509
 21.270    564.000    553.888     10.112    553.232    553.756    553.232    553.364    553.232
 21.370    595.000    553.626     41.374    552.953    553.493    552.953    553.087    552.953
 21.470    628.000    553.366     74.634    552.674    553.231    552.674    552.809    552.674
 21.570    551.000    553.107     -2.107    552.393    552.968    552.393    552.532    552.393
 21.670    555.000    552.848      2.152    552.112    552.707    552.112    552.253    552.112
 21.770    521.000    552.589    -31.589    551.830    552.446    551.830    551.973    551.830
 21.870    523.313    552.338    -29.025    551.547    552.194    551.547    551.692    551.547
 21.970    531.000    552.165    -21.165    551.263    552.018    551.263    551.409    551.263
 22.070    563.000    551.932     11.068    550.978    551.784    550.978    551.126    550.978
 22.170    527.000    551.701    -24.701    550.693    551.552    550.693    550.843    550.693
 22.270    545.824    551.478     -5.654    550.407    551.326    550.407    550.559    550.407
 22.370    517.000    551.232    -34.232    550.120    551.079    550.120    550.274    550.120
 22.470    564.000    550.987     13.013    549.832    550.832    549.832    549.988    549.832
 22.570    562.000    550.752     11.248    549.544    550.595    549.544    549.702    549.544
 22.670    564.053    550.565     13.488    549.255    550.405    549.255    549.415    549.255
 22.770    566.000    550.353     15.647    548.965    550.190    548.965    549.128    548.965
 22.870    570.000    550.131     19.869    548.675    549.966    548.675    548.840    548.675
 22.970    566.724    549.916     16.808    548.384    549.749    548.384    548.551    548.384
 23.070    546.000    549.712     -3.712    548.093    549.543    548.093    548.263    548.093
 23.170    522.383    549.521    -27.138    547.801    549.349    547.801    547.973    547.801
 23.270    562.000    549.347     12.653    547.509    549.173    547.509    547.684    547.509
 23.370    547.000    549.195     -2.195    547.216    549.017    547.216    547.394    547.216
 23.470    546.000    549.071     -3.071    546.922    548.890    546.922    547.103    546.922
 23.570    556.000    548.985      7.015    546.629    548.802    546.629    546.813    546.629
 23.670    565.000    548.946     16.054    546.334    548.760    546.334    546.522    546.334
 23.770    586.000    548.974     37.026    546.040    548.785    546.040    546.231    546.040
 23.870    557.000    549.099      7.901    545.745    548.906    545.745    545.939    545.745
 23.970    515.060    549.374    -34.314    545.450    549.178    545.450    545.648    545.450
 24.070    585.000    549.923     35.077    545.154    549.723    545.154    545.356    545.154
 24.170    583.000    551.104     31.896    544.858    550.902    544.858    545.064    544.858
 24.270    510.804    553.889    -43.085    544.562    553.684    544.562    544.772    544.562
 24.370    588.000    560.339     27.661    544.266    560.135    544.266    544.480    544.266
 24.470    617.830    573.350     44.480    543.969    573.151    543.969    544.189    543.969
 24.570    553.000    594.400    -41.400    543.672    594.210    543.672    543.897    543.672
 24.670    649.000    619.376     29.624    543.375    619.200    543.375    543.605    543.375
 24.770    602.408    635.945    -33.537    543.078    635.775    543.078    543.313    543.078
 24.870    645.000    631.891     13.109    542.781    631.713    542.781    543.022    542.781
 24.970    587.664    610.536    -22.872    542.483    610.336    542.483    542.731    542.483
 25.070    563.000    585.597    -22.597    542.186    585.373    542.186    542.440    542.186
 25.170    557.000    566.665     -9.665    541.888    566.420    541.888    542.149    541.888
 25.270    563.000    555.569      7.431    541.590    555.309    541.590    541.859    541.590
 25.370    541.106    550.072     -8.966    541.293    549.801    541.293    541.569    541.293
 25.470    585.000    547.451     37.549    540.995    547.169    540.995    541.280    540.995
 25.570    521.000    546.045    -25.045    540.697    545.753    540.697    540.991    540.697
 25.670    523.907    545.130    -21.223    540.400    544.828    540.400    540.703    540.400
 25.770    550.000    544.450      5.550    540.102    544.138    540.102    540.416    540.102
 25.870    547.000    543.913      3.087    539.804    543.589    539.804    540.129    539.804
 25.970    555.000    543.473     11.527    539.507    543.136    539.507    539.844    539.507
 26.070    528.238    543.105    -14.867    539.209    542.755    539.209    539.559    539.209
 26.170    546.000    542.798      3.202    538.912    542.435    538.912    539.276    538.912
 26.270    519.000    542.545    -23.545    538.615    542.166    538.615    538.994    538.615
 26.370    580.000    542.342     37.658    538.318    541.947    538.318    538.714    538.318
 26.470    504.734    542.191    -37.457    538.021    541.777    538.021    538.435    538.021
 26.570    538.000    542.116     -4.116    537.725    541.682    537.725    538.158    537.725
 26.670    517.000    542.095    -25.095    537.428    541.639    537.428    537.884    537.428
 26.770    566.000    542.117     23.883    537.132    541.637    537.132    537.611    537.132
 26.870    581.000    542.215     38.785    536.836    541.709    536.836    537.342    536.836
 26.970    585.773    542.409     43.364    536.540    541.874    536.540    537.075    536.540
 27.070    541.000    542.729     -1.729    536.245    542.161    536.245    536.812    536.245
 27.170    576.722    543.216     33.506    535.950    542.612    535.950    536.554    535.950
 27.270    519.000    543.923    -24.923    535.655    543.278    535.655    536.299    535.655
 27.370    584.000    544.929     39.071    535.361    544.238    535.361    536.051    535.361
 27.470    543.219    546.405     -3.186    535.067    545.662    535.067    535.809    535.067
 27.570    611.000    548.725     62.275    534.773    547.922    534.773    535.574    534.773
 27.670    557.403    553.321      4.082    534.480    552.449    534.480    535.349    534.480
 27.770    579.450    564.907     14.543    534.187    563.953    534.187    535.134    534.187
 27.870    621.866    595.227     26.639    533.895    594.171    533.895    534.932    533.895
 27.970    687.000    662.258     24.742    533.603    661.075    533.603    534.746    533.603
 28.070    739.000    773.653    -34.653    533.312    772.312    533.312    534.579    533.312
 28.170    864.000    897.951    -33.951    533.021    896.433    533.021    534.437    533.021
 28.270    966.000    959.322      6.678    532.730    957.627    532.730    534.325    532.730
 28.370    885.000    907.574    -22.574    532.440    905.697    532.440    534.253    532.440
 28.470    822.000    796.150     25.850    532.151    794.040    532.151    534.234    532.151
 28.570    679.210    710.046    -30.836    531.862    707.606    531.862    534.288    531.862
 28.670    707.000    693.025     13.975    531.574    690.130    531.574    534.453    531.574
 28.770    736.900    740.280     -3.381    531.286    736.755    531.286    534.790    531.286
 28.870    815.000    811.158      3.842    530.999    806.735    530.999    535.405    530.999
 28.970    819.000    844.765    -25.765    530.712    839.009    530.712    536.467    530.712
 29.070    743.000    805.010    -62.010    530.426    797.240    530.426    538.207    530.426
 29.170    719.167    723.620     -4.453    530.141    712.884    530.141    540.888    530.141
 29.270    631.000    649.353    -18.353    529.856    634.487    529.856    544.728    529.856
 29.370    578.000    604.045    -26.045    529.572    583.882    529.572    549.737    529.572
 29.470    599.000    584.673     14.327    529.289    558.525    529.289    555.435    529.289
 29.570    611.000    579.009     31.991    529.006    547.567    529.006    560.445    529.006
 29.670    629.000    576.590     52.410    528.725    542.715    528.725    562.596    528.725
 29.770    551.000    572.220    -21.220    528.443    540.101    528.443    560.559    528.443
 29.870    528.394    565.581    -37.187    528.163    538.396    528.163    555.345    528.163
 29.970    525.737    558.417    -32.680    527.883    537.195    527.883    549.102    527.883
 30.070    520.000    552.128    -32.128    527.604    536.364    527.604    543.366    527.604
 30.170    620.000    547.302     72.698    527.326    535.876    527.326    538.750    527.326
 30.270    543.000    544.098     -1.098    527.049    535.833    527.049    535.311    527.049
 30.370    561.000    542.752     18.248    526.772    536.662    526.772    532.858    526.772
 30.470    593.000    544.145     48.855    526.497    539.506    526.497    531.129    526.497
 30.570    587.000    550.186     36.814    526.222    546.511    526.222    529.884    526.222
 30.670    569.000    563.075      5.925    525.948    560.055    525.948    528.945    525.948
 30.770    558.421    582.671    -24.250    525.675    580.114    525.675    528.194    525.675
 30.870    623.000    603.096     19.904    525.402    600.884    525.402    527.563    525.402
 30.970    634.381    612.418     21.964    525.131    610.482    525.131    527.011    525.131
 31.070    603.000    602.727      0.273    524.860    601.026    524.860    526.515    524.860
 31.170    560.000    581.354    -21.354    524.591    579.853    524.591    526.062    524.591
 31.270    533.000    560.225    -27.225    524.322    558.889    524.322    525.642    524.322
 31.370    549.000    545.456      3.544    524.054    544.255    524.054    525.247    524.054
 31.470    551.000    537.283     13.717    523.787    536.194    523.787    524.873    523.787
 31.570    546.000    533.370     12.630    523.521    532.374    523.521    524.515    523.521
 31.670    585.000    531.518     53.482    523.257    530.600    523.257    524.172    523.257
 31.770    531.000    530.511      0.489    522.993    529.661    522.993    523.841    522.993
 31.870    539.000    529.861      9.139    522.730    529.070    522.730    523.519    522.730
 31.970    532.000    529.402      2.598    522.468    528.663    522.468    523.206    522.468
 32.070    502.852    529.081    -26.229    522.207    528.387    522.207    522.900    522.207
 32.170    538.602    528.876      9.726    521.947    528.222    521.947    522.600    521.947
 32.270    570.000    528.777     41.223    521.688    528.157    521.688    522.306    521.688
 32.370    549.000    528.781     20.219    521.430    528.194    521.430    522.017    521.430
 32.470    573.476    528.901     44.575    521.173    528.341    521.173    521.732    521.173
 32.570    540.135    529.152     10.983    520.918    528.617    520.918    521.451    520.918
 32.670    592.000    529.559     62.441    520.663    529.046    520.663    521.174    520.663
 32.770    576.000    530.159     45.841    520.409    529.667    520.409    520.901    520.409
 32.870    558.000    531.008     26.992    520.157    530.534    520.157    520.630    520.157
 32.970    533.000    532.185      0.815    519.905    531.727    519.905    520.362    519.905
 33.070    540.000    533.815      6.185    519.655    533.372    519.655    520.097    519.655
 33.170    567.000    536.123     30.877    519.406    535.693    519.406    519.834    519.406
 33.270    502.550    539.628    -37.078    519.158    539.210    519.158    519.574    519.158
 33.370    549.000    545.749      3.251    518.911    545.341    518.911    519.315    518.911
 33.470    543.411    558.266    -14.855    518.666    557.866    518.666    519.059    518.666
 33.570    588.737    585.485      3.252    518.421    585.089    518.421    518.805    518.421
 33.670    613.000    640.720    -27.720    518.178    640.323    518.178    518.553    518.178
 33.770    791.000    736.248     54.752    517.935    735.842    517.935    518.303    517.935
 33.870    869.028    868.547      0.481    517.694    868.130    517.694    518.055    517.694
 33.970   1027.000   1001.585     25.415    517.455   1001.165    517.455    517.809    517.455
 34.070   1062.000   1066.860     -4.860    517.216   1066.454    517.216    517.564    517.216
 34.170    982.000   1017.825    -35.825    516.979   1017.452    516.979    517.321    516.979
 34.270    897.876    890.955      6.921    516.742    890.612    516.742    517.080    516.742
 34.370    761.781    755.206      6.574    516.507    754.880    516.507    516.840    516.507
 34.470    623.000    652.388    -29.388    516.274    652.068    516.274    516.603    516.274
 34.570    558.290    590.481    -32.191    516.041    590.162    516.041    516.366    516.041
 34.670    534.000    558.848    -24.848    515.810    558.528    515.810    516.131    515.810
 34.770    520.000    543.873    -23.873    515.580    543.555    515.580    515.898    515.580
 34.870    574.000    536.400     37.600    515.351    536.085    515.351    515.667    515.351
 34.970    539.451    532.019      7.431    515.124    531.706    515.124    515.437    515.124
 35.070    533.000    529.008      3.992    514.898    528.697    514.898    515.208    514.898
 35.170    515.000    526.737    -11.737    514.673    526.429    514.673    514.981    514.673
 35.270    546.000    524.944     21.056    514.449    524.638    514.449    514.756    514.449
 35.370    494.000    523.490    -29.490    514.227    523.185    514.227    514.532    514.227
 35.470    523.000    522.285      0.715    514.006    521.981    514.006    514.309    514.006
 35.570    521.193    521.269     -0.075    513.787    520.967    513.787    514.089    513.787
 35.670    500.591    520.399    -19.807    513.568    520.098    513.568    513.869    513.568
 35.770    543.000    519.643     23.357    513.351    519.343    513.351    513.651    513.351
 35.870    532.000    518.979     13.021    513.136    518.680    513.136    513.435    513.136
 35.970    545.247    518.390     26.857    512.922    518.092    512.922    513.220    512.922
 36.070    557.123    517.863     39.260    512.709    517.565    512.709    513.007    512.709
 36.170    540.108    517.388     22.720    512.497    517.090    512.497    512.795    512.497
 36.270    555.000    516.958     38.042    512.287    516.660    512.287    512.584    512.287
 36.370    529.000    516.568     12.432    512.078    516.271    512.078    512.375    512.078
 36.470    502.000    516.215    -14.215    511.870    515.918    511.870    512.168    511.870
 36.570    518.000    515.898      2.102    511.664    515.600    511.664    511.962    511.664
 36.670    502.800    515.617    -12.817    511.460    515.319    511.460    511.758    511.460
 36.770    505.000    515.379    -10.379    511.256    515.080    511.256    511.555    511.256
 36.870    523.000    515.200      7.800    511.054    514.902    511.054    511.353    511.054
 36.970    494.808    515.132    -20.323    510.854    514.832    510.854    511.153    510.854
 37.070    490.000    515.293    -25.293    510.655    514.993    510.655    510.955    510.655
 37.170    498.000    515.920    -17.920    510.457    515.619    510.457    510.758    510.457
 37.270    482.395    517.354    -34.959    510.261    517.053    510.261    510.563    510.261
 37.370    504.389    519.884    -15.495    510.066    519.582    510.066    510.369    510.066
 37.470    500.000    523.425    -23.425    509.872    523.122    509.872    510.177    509.872
 37.570    543.422    527.163     16.259    509.680    526.860    509.680    509.986    509.680
 37.670    554.000    529.522     24.478    509.490    529.220    509.490    509.796    509.490
 37.770    513.859    529.185    -15.326    509.300    528.883    509.300    509.609    509.300
 37.870    534.000    526.487      7.513    509.113    526.185    509.113    509.422    509.113
 37.970    489.000    522.861    -33.861    508.926    522.560    508.926    509.238    508.926
 38.070    498.469    519.423    -20.955    508.742    519.121    508.742    509.055    508.742
 38.170    514.000    516.613     -2.613    508.558    516.308    508.558    508.873    508.558
 38.270    496.472    514.529    -18.057    508.376    514.219    508.376    508.693    508.376
 38.370    468.490    513.093    -44.603    508.196    512.779    508.196    508.514    508.196
 38.470    540.280    512.143     28.137    508.017    511.824    508.017    508.338    508.017
 38.570    510.000    511.516     -1.516    507.839    511.195    507.839    508.162    507.839
 38.670    526.000    511.087     14.913    507.663    510.762    507.663    507.988    507.663
 38.770    522.000    510.767     11.233    507.488    510.440    507.488    507.816    507.488
 38.870    464.000    510.505    -46.505    507.315    510.175    507.315    507.645    507.315
 38.970    534.901    510.276     24.625    507.144    509.943    507.144    507.476    507.144
 39.070    504.000    510.066     -6.066    506.973    509.731    506.973    507.309    506.973
 39.170    515.172    509.872      5.300    506.805    509.534    506.805    507.143    506.805
 39.270    526.000    509.690     16.310    506.637    509.349    506.637    506.978    506.637
 39.370    491.000    509.518    -18.518    506.472    509.174    506.472    506.816    506.472
 39.470    512.000    509.355      2.645    506.307    509.008    506.307    506.654    506.307
 39.570    536.012    509.201     26.811    506.145    508.851    506.145    506.495    506.145
 39.670    513.000    509.054      3.946    505.983    508.701    505.983    506.337    505.983
 39.770    536.419    508.915     27.504    505.824    508.559    505.824    506.180    505.824
 39.870    504.000    508.784     -4.784    505.665    508.424    505.665    506.026    505.665
 39.970    505.777    508.661     -2.884    505.509    508.297    505.509    505.872    505.509
 40.070    534.000    508.545     25.455    505.353    508.178    505.353    505.721    505.353
 40.170    494.000    508.438    -14.438    505.200    508.067    505.200    505.571    505.200
 40.270    482.000    508.340    -26.340    505.047    507.965    505.047    505.423    505.047
 40.370    476.000    508.252    -32.252    504.897    507.872    504.897    505.276    504.897
 40.470    510.515    508.174      2.341    504.747    507.791    504.747    505.131    504.747
 40.570    509.000    508.108      0.892    504.600    507.720    504.600    504.988    504.600
 40.670    488.000    508.056    -20.056    504.453    507.664    504.453    504.846    504.453
 40.770    529.055    508.020     21.035    504.309    507.623    504.309    504.706    504.309
 40.870    502.546    508.002     -5.456    504.166    507.600    504.166    504.568    504.166
 40.970    509.000    508.006      0.994    504.024    507.599    504.024    504.431    504.024
 41.070    546.000    508.036     37.964    503.884    507.624    503.884    504.296    503.884
 41.170    472.000    508.098    -36.098    503.745    507.682    503.745    504.163    503.745
 41.270    515.300    508.201      7.099    503.608    507.779    503.608    504.031    503.608
 41.370    484.000    508.356    -24.356    503.473    507.928    503.473    503.901    503.473
 41.470    482.000    508.577    -26.577    503.338    508.143    503.338    503.773    503.338
 41.570    466.500    508.888    -42.388    503.206    508.449    503.206    503.646    503.206
 41.670    473.270    509.335    -36.065    503.075    508.890    503.075    503.522    503.075
 41.770    513.000    510.013      2.987    502.945    509.562    502.945    503.398    502.945
 41.870    500.000    511.161    -11.161    502.817    510.703    502.817    503.277    502.817
 41.970    510.000    513.328     -3.328    502.691    512.865    502.691    503.158    502.691
 42.070    503.000    517.628    -14.628    502.566    517.159    502.566    503.040    502.566
 42.170    501.550    525.852    -24.302    502.443    525.380    502.443    502.924    502.443
 42.270    521.000    540.078    -19.078    502.321    539.605    502.321    502.809    502.321
 42.370    557.000    561.409     -4.409    502.200    560.938    502.200    502.697    502.200
 42.470    567.000    588.093    -21.093    502.081    587.628    502.081    502.586    502.081
 42.570    564.000    613.895    -49.895    501.964    613.435    501.964    502.478    501.964
 42.670    599.000    628.662    -29.662    501.848    628.204    501.848    502.371    501.848
 42.770    637.452    624.649     12.803    501.734    624.183    501.734    502.265    501.734
 42.870    544.000    604.214    -60.214    501.621    603.730    501.621    502.162    501.621
 42.970    594.520    577.021     17.499    501.510    576.513    501.510    502.061    501.510
 43.070    553.000    551.903      1.097    501.400    551.371    501.400    501.961    501.400
 43.170    571.529    533.219     38.310    501.292    532.665    501.292    501.864    501.292
 43.270    516.000    521.390     -5.390    501.185    520.817    501.185    501.768    501.185
 43.370    521.815    514.761      7.054    501.080    514.173    501.080    501.675    501.080
 43.470    527.000    511.293     15.707    500.976    510.690    500.976    501.583    500.976
 43.570    488.969    509.458    -20.489    500.874    508.841    500.874    501.494    500.874
 43.670    529.000    508.391     20.609    500.773    507.760    500.773    501.406    500.773
 43.770    518.116    507.683     10.432    500.674    507.038    500.674    501.321    500.674
 43.870    535.660    507.164     28.496    500.576    506.504    500.576    501.238    500.576
 43.970    548.000    506.762     41.238    500.480    506.087    500.480    501.157    500.480
 44.070    513.000    506.443      6.557    500.386    505.752    500.386    501.078    500.386
 44.170    488.000    506.187    -18.187    500.292    505.479    500.292    501.001    500.292
 44.270    528.000    505.980     22.020    500.201    505.255    500.201    500.927    500.201
 44.370    526.693    505.814     20.879    500.111    505.070    500.111    500.855    500.111
 44.470    489.701    505.680    -15.980    500.022    504.917    500.022    500.786    500.022
 44.570    518.000    505.575     12.425    499.935    504.791    499.935    500.719    499.935
 44.670    488.000    505.495    -17.495    499.849    504.689    499.849    500.655    499.849
 44.770    512.000    505.436      6.564    499.765    504.608    499.765    500.593    499.765
 44.870    495.000    505.397    -10.397    499.682    504.545    499.682    500.534    499.682
 44.970    540.760    505.377     35.383    499.601    504.500    499.601    500.478    499.601
 45.070    521.000    505.374     15.626    499.521    504.470    499.521    500.425    499.521
 45.170    516.000    505.389     10.611    499.443    504.456    499.443    500.376    499.443
 45.270    468.707    505.420    -36.713    499.366    504.457    499.366    500.329    499.366
 45.370    473.000    505.468    -32.468    499.291    504.472    499.291    500.286    499.291
 45.470    477.425    505.533    -28.108    499.217    504.504    499.217    500.246    499.217
 45.570    555.000    505.616     49.384    499.144    504.550    499.144    500.210    499.144
 45.670    480.484    505.719    -25.236    499.073    504.614    499.073    500.179    499.073
 45.770    491.000    505.842    -14.842    499.004    504.695    499.004    500.151    499.004
 45.870    509.000    505.988      3.012    498.936    504.795    498.936    500.128    498.936
 45.970    452.000    506.157    -54.157    498.869    504.916    498.869    500.110    498.869
 46.070    498.000    506.355     -8.355    498.804    505.061    498.804    500.097    498.804
 46.170    511.492    506.583      4.909    498.741    505.233    498.741    500.090    498.741
 46.270    539.991    506.847     33.144    498.678    505.436    498.678    500.089    498.678
 46.370    485.197    507.153    -21.955    498.618    505.674    498.618    500.095    498.618
 46.470    516.676    507.507      9.169    498.558    505.956    498.558    500.108    498.558
 46.570    466.016    507.921    -41.905    498.500    506.291    498.500    500.129    498.500
 46.670    491.000    508.409    -17.409    498.444    506.692    498.444    500.160    498.444
 46.770    564.000    508.999     55.001    498.389    507.186    498.389    500.200    498.389
 46.870    492.000    509.744    -17.744    498.335    507.826    498.335    500.252    498.335
 46.970    547.157    510.766     36.390    498.283    508.730    498.283    500.316    498.283
 47.070    490.000    512.329    -22.329    498.232    510.162    498.232    500.395    498.232
 47.170    488.665    514.951    -26.286    498.183    512.638    498.183    500.491    498.183
 47.270    486.000    519.479    -33.479    498.135    517.000    498.135    500.605    498.135
 47.370    499.617    526.981    -27.364    498.088    524.313    498.088    500.742    498.088
 47.470    525.000    538.329    -13.329    498.043    535.446    498.043    500.904    498.043
 47.570    569.000    553.451     15.549    497.999    550.320    497.999    501.097    497.999
 47.670    584.000    570.522     13.478    497.957    567.108    497.957    501.325    497.957
 47.770    559.000    585.525    -26.525    497.916    581.789    497.916    501.597    497.916
 47.870    616.004    593.100     22.904    497.876    588.997    497.876    501.921    497.876
 47.970    606.000    590.070     15.930    497.838    585.545    497.838    502.310    497.838
 48.070    587.000    578.615      8.385    497.801    573.593    497.801    502.780    497.801
 48.170    533.504    563.967    -30.463    497.766    558.342    497.766    503.359    497.766
 48.270    578.000    550.657     27.343    497.731    544.280    497.731    504.087    497.731
 48.370    514.874    541.137    -26.263    497.699    533.789    497.699    505.033    497.699
 48.470    582.000    536.011     45.989    497.667    527.357    497.667    506.313    497.667
 48.570    539.000    534.816      4.184    497.637    524.332    497.637    508.115    497.637
 48.670    490.000    536.842    -46.842    497.608    523.718    497.608    510.728    497.608
 48.770    558.722    541.671     17.051    497.581    524.690    497.581    514.557    497.581
 48.870    522.000    549.330    -27.330    497.555    526.773    497.555    520.106    497.555
 48.970    574.000    560.204     13.796    497.530    529.825    497.530    527.904    497.530
 49.070    567.000    574.857     -7.857    497.507    534.007    497.507    538.350    497.507
 49.170    600.000    593.973      6.027    497.484    539.950    497.484    551.498    497.484
 49.270    589.000    618.689    -29.689    497.464    549.383    497.464    566.757    497.464
 49.370    672.707    651.735     20.972    497.444    566.663    497.444    582.497    497.444
 49.470    695.261    699.879     -4.618    497.426    601.524    497.426    595.750    497.426
 49.570    854.000    777.655     76.345    497.409    672.270    497.409    602.742    497.409
 49.670    921.000    909.978     11.022    497.393    806.332    497.393    600.955    497.393
 49.770   1156.000   1126.850     29.150    497.379   1032.995    497.379    591.105    497.379
 49.870   1452.000   1444.417      7.583    497.366   1365.116    497.366    576.495    497.366
 49.970   1853.676   1838.419     15.256    497.354   1774.886    497.354    560.696    497.354
 50.070   2143.407   2227.103    -83.697    497.344   2178.150    497.344    546.138    497.344
 50.170   2467.000   2483.871    -16.871    497.334   2447.133    497.334    534.003    497.334
 50.270   2466.000   2498.419    -32.419    497.326   2471.198    497.326    524.601    497.326
 50.370   2282.000   2259.744     22.256    497.319   2239.495    497.319    517.715    497.319
 50.470   1884.000   1867.189     16.811    497.314   1851.808    497.314    512.878    497.314
 50.570   1448.000   1452.336     -4.336    497.310   1440.257    497.310    509.558    497.310
 50.670   1066.000   1108.937    -42.937    497.307   1099.088    497.307    507.286    497.307
 50.770    794.000    873.256    -79.256    497.305    864.948    497.305    505.703    497.305
 50.870    736.566    736.216      0.351    497.304    729.021    497.304    504.560    497.304
 50.970    642.000    667.217    -25.217    497.305    660.867    497.305    503.701    497.305
 51.070    620.000    634.444    -14.444    497.306    628.758    497.306    503.031    497.306
 51.170    614.000    615.362     -1.362    497.309    610.213    497.309    502.492    497.309
 51.270    574.025    598.967    -24.942    497.314    594.259    497.314    502.051    497.314
 51.370    570.374    582.726    -12.353    497.319    578.383    497.319    501.685    497.319
 51.470    563.312    567.701     -4.389    497.325    563.665    497.325    501.378    497.325
 51.570    530.116    555.292    -25.176    497.333    551.515    497.333    501.121    497.333
 51.670    506.893    546.129    -39.236    497.342    542.574    497.342    500.905    497.342
 51.770    552.136    540.044     12.092    497.352    536.678    497.352    500.723    497.352
 51.870    569.302    536.416     32.886    497.363    533.212    497.363    500.570    497.363
 51.970    501.701    534.546    -32.846    497.375    531.482    497.375    500.442    497.375
 52.070    576.000    533.903     42.097    497.389    530.958    497.389    500.336    497.389
 52.170    555.000    534.191     20.809    497.404    531.348    497.404    500.248    497.404
 52.270    544.507    535.354      9.153    497.419    532.597    497.419    500.177    497.419
 52.370    571.000    537.599     33.401    497.436    534.915    497.436    500.121    497.436
 52.470    586.353    541.553     44.800    497.454    538.930    497.454    500.078    497.454
 52.570    559.000    548.618     10.382    497.473    546.044    497.473    500.047    497.473
 52.670    578.000    561.515     16.485    497.493    558.981    497.493    500.026    497.493
 52.770    566.000    584.815    -18.815    497.514    582.311    497.514    500.016    497.514
 52.870    584.095    624.914    -40.819    497.537    622.432    497.537    500.015    497.537
 52.970    741.000    688.719     52.281    497.560    686.250    497.560    500.023    497.560
 53.070    806.000    780.579     25.421    497.584    778.117    497.584    500.039    497.584
 53.170    929.000    897.978     31.022    497.610    895.518    497.610    500.063    497.610
 53.270   1027.278   1027.429     -0.151    497.636   1024.969    497.636    500.094    497.636
 53.370   1175.000   1142.643     32.357    497.664   1140.180    497.664    500.133    497.664
 53.470   1234.000   1209.299     24.701    497.693   1206.831    497.693    500.179    497.693
 53.570   1183.972   1202.249    -18.277    497.722   1199.770    497.722    500.231    497.722
 53.670   1062.000   1124.657    -62.657    497.753   1122.156    497.753    500.291    497.753
 53.770   1006.000   1005.062      0.938    497.785   1002.527    497.785    500.358    497.785
 53.870    851.000    876.959    -25.959    497.817    874.378    497.817    500.431    497.817
 53.970    756.000    764.284     -8.284    497.851    761.648    497.851    500.512    497.851
 54.070    719.000    678.262     40.738    497.886    675.566    497.886    500.600    497.886
 54.170    604.000    619.827    -15.827    497.921    617.064    497.921    500.695    497.921
 54.270    595.000    583.883     11.117    497.958    581.049    497.958    500.798    497.958
 54.370    579.000    563.471     15.529    497.995    560.561    497.995    500.909    497.995
 54.470    555.000    552.499      2.501    498.034    549.506    498.034    501.029    498.034
 54.570    592.703    546.764     45.939    498.074    543.682    498.074    501.157    498.074
 54.670    578.000    543.826     34.174    498.114    540.645    498.114    501.295    498.114
 54.770    622.000    542.446     79.554    498.155    539.159    498.155    501.443    498.155
 54.870    531.815    542.058    -10.242    498.198    538.654    498.198    501.602    498.198
 54.970    555.000    542.425     12.575    498.241    538.894    498.241    501.772    498.241
 55.070    589.000    543.461     45.539    498.285    539.792    498.285    501.954    498.285
 55.170    551.903    545.157      6.746    498.330    541.337    498.330    502.150    498.330
 55.270    546.867    547.551     -0.684    498.376    543.567    498.376    502.361    498.376
 55.370    567.000    550.734     16.266    498.423    546.570    498.423    502.587    498.423
 55.470    570.000    554.866     15.134    498.470    550.506    498.470    502.831    498.470
 55.570    590.674    560.259     30.415    498.519    555.683    498.519    503.095    498.519
 55.670    584.498    567.554     16.944    498.568    562.742    498.568    503.380    498.568
 55.770    587.000    578.148      8.852    498.619    573.077    498.619    503.688    498.619
 55.870    610.000    595.018     14.982    498.670    589.661    498.670    504.024    498.670
 55.970    619.000    624.043     -5.043    498.722    618.369    498.722    504.389    498.722
 56.070    636.952    675.575    -38.623    498.774    669.548    498.774    504.788    498.774
 56.170    721.000    765.305    -44.305    498.828    758.884    498.828    505.225    498.828
 56.270    963.996    912.714     51.283    498.882    905.851    498.882    505.706    498.882
 56.370   1147.000   1135.400     11.600    498.937   1128.046    498.937    506.236    498.937
 56.470   1384.000   1439.156    -55.156    498.993   1431.258    498.993    506.824    498.993
 56.570   1804.276   1806.499     -2.224    499.050   1798.006    499.050    507.477    499.050
 56.670   2134.000   2188.302    -54.302    499.108   2179.161    499.108    508.206    499.108
 56.770   2498.346   2503.986     -5.641    499.166   2494.139    499.166    509.026    499.166
 56.870   2745.888   2661.181     84.707    499.225   2650.550    499.225    509.950    499.225
 56.970   2555.000   2604.372    -49.372    499.285   2592.836    499.285    511.000    499.285
 57.070   2446.217   2356.238     89.979    499.345   2343.618    499.345    512.201    499.345
 57.170   1983.000   1998.560    -15.560    499.407   1984.626    499.407    513.587    499.407
 57.270   1624.828   1620.790      4.037    499.469   1605.274    499.469    515.206    499.469
 57.370   1291.000   1287.583      3.417    499.531   1270.161    499.531    517.129    499.531
 57.470   1081.389   1030.871     50.518    499.595   1011.122    499.595    519.470    499.595
 57.570    806.674    854.899    -48.224    499.659    832.228    499.659    522.411    499.659
 57.670    767.000    746.951     20.049    499.724    720.475    499.724    526.248    499.724
 57.770    696.000    688.659      7.341    499.789    657.027    499.789    531.446    499.789
 57.870    679.000    664.032     14.968    499.855    625.196    499.855    538.700    499.855
 57.970    708.000    663.066     44.934    499.922    614.014    499.922    548.972    499.922
 58.070    646.497    681.913    -35.416    499.989    618.408    499.989    563.482    499.989
 58.170    725.000    721.199      3.801    500.058    637.633    500.058    583.600    500.058
 58.270    816.000    783.608     32.392    500.126    673.087    500.126    610.611    500.126
 58.370    868.661    871.399     -2.738    500.196    726.176    500.196    645.368    500.196
 58.470    964.951    983.951    -19.000    500.266    796.322    500.266    687.834    500.266
 58.570   1067.698   1115.875    -48.176    500.336    879.600    500.336    736.543    500.336
 58.670   1223.309   1255.989    -32.680    500.407    968.375    500.407    787.953    500.407
 58.770   1443.000   1388.361     54.639    500.479   1053.014    500.479    835.767    500.479
 58.870   1556.000   1495.434     60.566    500.551   1124.927    500.551    871.014    500.551
 58.970   1512.020   1561.126    -49.105    500.624   1177.122    500.624    884.603    500.624
 59.070   1547.957   1574.159    -26.202    500.698   1202.469    500.698    872.386    500.698
 59.170   1581.000   1533.443     47.557    500.772   1196.054    500.772    838.177    500.772
 59.270   1444.000   1451.394     -7.394    500.846   1161.320    500.846    790.942    500.846
 59.370   1303.889   1349.665    -45.776    500.921   1110.880    500.921    739.720    500.921
 59.470   1274.000   1250.567     23.433    500.997   1060.608    500.997    690.946    500.997
 59.570   1198.000   1172.683     25.317    501.073   1025.425    501.073    648.287    501.073
 59.670   1079.305   1131.468    -52.163    501.149   1019.232    501.149    613.298    501.149
 59.770   1090.696   1138.527    -47.830    501.226   1053.538    501.226    586.076    501.226
 59.870   1245.000   1196.961     48.039    501.304   1132.266    501.304    565.803    501.304
 59.970   1310.000   1296.719     13.281    501.382   1246.643    501.382    551.206    501.382
 60.070   1421.000   1413.207      7.793    501.461   1373.458    501.461    540.917    501.461
 60.170   1558.000   1510.031     47.969    501.539   1477.560    501.539    533.705    501.539
 60.270   1639.000   1548.604     90.396    501.619   1521.345    501.619    528.595    501.619
 60.370   1578.733   1506.413     72.319    501.699   1483.001    501.699    524.883    501.699
 60.470   1388.169   1390.748     -2.579    501.779   1370.269    501.779    522.096    501.779
 60.570   1250.000   1231.455     18.545    501.860   1213.278    501.860    519.936    501.860
 60.670   1077.000   1062.816     14.184    501.941   1046.480    501.941    518.223    501.941
 60.770    916.000    911.316      4.684    502.022    896.463    502.022    516.851    502.022
 60.870    826.203    791.611     34.592    502.104    777.947    502.104    515.758    502.104
 60.970    726.364    707.497     18.867    502.186    694.768    502.186    514.910    502.186
 61.070    683.000    655.643     27.357    502.269    643.617    502.269    514.288    502.269
 61.170    642.000    630.201     11.799    502.352    618.663    502.352    513.877    502.352
 61.270    626.000    626.603     -0.603    502.435    615.352    502.435    513.665    502.435
 61.370    611.000    643.618    -32.618    502.519    632.474    502.519    513.630    502.519
 61.470    727.685    683.506     44.179    502.603    672.319    502.603    513.739    502.603
 61.570    793.831    750.439     43.393    502.687    739.113    502.687    513.938    502.687
 61.670    844.000    847.541     -3.541    502.772    836.063    502.772    514.145    502.772
 61.770    914.146    973.220    -59.074    502.857    961.688    502.857    514.251    502.857
 61.870   1108.282   1117.892     -9.610    502.942   1106.515    502.942    514.151    502.942
 61.970   1268.000   1262.306      5.694    503.028   1251.361    503.028    513.785    503.028
 62.070   1338.000   1378.752    -40.752    503.113   1368.501    503.113    513.177    503.113
 62.170   1400.000   1437.668    -37.668    503.199   1428.289    503.199    512.414    503.199
 62.270   1390.000   1421.079    -31.079    503.286   1412.647    503.286    511.596    503.286
 62.370   1298.000   1333.918    -35.918    503.372   1326.413    503.372    510.803    503.372
 62.470   1191.000   1200.467     -9.467    503.459   1193.806    503.459    510.085    503.459
 62.570   1080.000   1050.630     29.370    503.546   1044.700    503.546    509.468    503.546
 62.670    856.244    909.095    -52.851    503.633    903.774    503.633    508.960    503.633
 62.770    821.471    791.090     30.382    503.721    786.266    503.721    508.556    503.721
 62.870    689.978    702.372    -12.394    503.808    697.947    503.808    508.244    503.808
 62.970    621.000    641.484    -20.484    503.896    637.379    503.896    508.008    503.896
 63.070    602.000    602.971     -0.971    503.984    599.126    503.984    507.832    503.984
 63.170    559.347    580.353    -21.006    504.072    576.723    504.072    507.701    504.072
 63.270    544.000    568.060    -24.060    504.161    564.611    504.161    507.605    504.161
 63.370    520.000    562.261    -42.261    504.249    558.969    504.249    507.535    504.249
 63.470    555.000    560.928     -5.928    504.338    557.774    504.338    507.485    504.338
 63.570    568.000    563.591      4.409    504.426    560.558    504.426    507.449    504.426
 63.670    574.220    571.053      3.166    504.515    568.129    504.515    507.426    504.515
 63.770    595.628    585.135     10.492    504.604    582.306    504.604    507.413    504.604
 63.870    647.762    608.308     39.453    504.693    605.562    504.693    507.409    504.693
 63.970    658.000    643.085     14.915    504.782    640.411    504.782    507.413    504.782
 64.070    719.000    691.093     27.907    504.872    688.479    504.872    507.423    504.872
 64.170    814.000    751.937     62.063    504.961    749.375    504.961    507.440    504.961
 64.270    849.000    822.137     26.863    505.050    819.621    505.050    507.462    505.050
 64.370    930.000    894.453     35.547    505.140    891.980    505.140    507.490    505.140
 64.470   1033.000    958.132     74.868    505.229    955.706    505.229    507.522    505.229
 64.570   1023.000   1001.197     21.803    505.318    998.825    505.318    507.559    505.318
 64.670   1084.000   1015.154     68.846    505.408   1012.845    505.408    507.600    505.408
 64.770   1029.000    998.833     30.167    505.497    996.593    505.497    507.644    505.497
 64.870    943.000    957.863    -14.863    505.587    955.694    505.587    507.692    505.587
 64.970    925.000    901.633     23.367    505.676    899.530    505.676    507.744    505.676
 65.070    838.000    840.195     -2.195    505.766    838.151    505.766    507.798    505.766
 65.170    796.402    781.570     14.831    505.855    779.577    505.855    507.855    505.855
 65.270    756.106    730.271     25.835    505.945    728.318    505.945    507.915    505.945
 65.370    673.000    687.589    -14.589    506.034    685.670    506.034    507.978    506.034
 65.470    632.000    653.018    -21.018    506.123    651.123    506.123    508.044    506.123
 65.570    623.441    625.556     -2.115    506.213    623.679    506.213    508.111    506.213
 65.670    645.863    604.203     41.660    506.302    602.341    506.302    508.181    506.302
 65.770    555.000    588.014    -33.014    506.391    586.163    506.391    508.253    506.391
 65.870    599.000    576.120     22.880    506.480    574.279    506.480    508.328    506.480
 65.970    563.838    567.767     -3.929    506.569    565.935    506.569    508.404    506.569
 66.070    560.000    562.308     -2.308    506.658    560.484    506.658    508.482    506.658
 66.170    570.000    559.191     10.809    506.746    557.374    506.746    508.563    506.746
 66.270    538.000    557.959    -19.959    506.835    556.148    506.835    508.645    506.835
 66.370    524.243    558.273    -34.030    506.923    556.467    506.923    508.729    506.923
 66.470    586.582    559.947     26.634    507.011    558.143    507.011    508.815    507.011
 66.570    539.000    563.010    -24.010    507.099    561.206    507.099    508.903    507.099
 66.670    581.000    567.811     13.189    507.187    566.005    507.187    508.993    507.187
 66.770    556.000    575.221    -19.221    507.275    573.411    507.275    509.085    507.275
 66.870    598.000    586.970     11.030    507.363    585.153    507.363    509.179    507.363
 66.970    616.504    606.117     10.387    507.450    604.290    507.450    509.275    507.450
 67.070    660.063    637.576     22.487    507.537    635.736    507.537    509.372    507.537
 67.170    673.918    688.451    -14.533    507.624    686.593    507.624    509.472    507.624
 67.270    805.412    767.792     37.620    507.711    765.913    507.711    509.574    507.711
 67.370    879.000    885.342     -6.342    507.797    883.441    507.797    509.678    507.797
 67.470   1009.000   1049.010    -40.010    507.883   1047.087    507.883    509.783    507.883
 67.570   1250.000   1261.291    -11.291    507.969   1259.350    507.969    509.892    507.969
 67.670   1519.000   1515.427      3.573    508.055   1513.475    508.055    510.003    508.055
 67.770   1785.000   1792.463     -7.463    508.140   1790.512    508.140    510.117    508.140
 67.870   2140.489   2060.312     80.177    508.225   2058.376    508.225    510.234    508.225
 67.970   2301.000   2276.285     24.715    508.310   2274.376    508.310    510.354    508.310
 68.070   2367.000   2396.110    -29.110    508.394   2394.234    508.394    510.477    508.394
 68.170   2386.000   2390.742     -4.742    508.479   2388.887    508.479    510.603    508.479
 68.270   2367.000   2261.663    105.337    508.563   2259.802    508.563    510.734    508.563
 68.370   2036.000   2039.955     -3.955    508.646   2038.050    508.646    510.868    508.646
 68.470   1856.000   1770.247     85.753    508.729   1768.266    508.729    511.006    508.729
 68.570   1509.514   1494.520     14.994    508.812   1492.438    508.812    511.149    508.812
 68.670   1253.000   1243.777      9.223    508.895   1241.580    508.895    511.297    508.895
 68.770   1043.000   1035.872      7.128    508.977   1033.554    508.977    511.450    508.977
 68.870    833.555    876.652    -43.097    509.058    874.212    509.058    511.609    509.058
 68.970    761.000    763.023     -2.023    509.140    760.463    509.140    511.775    509.140
 69.070    686.691    686.801     -0.110    509.221    684.123    509.221    511.948    509.221
 69.170    678.000    638.229     39.771    509.301    635.433    509.301    512.129    509.301
 69.270    633.382    608.388     24.995    509.381    605.471    509.381    512.318    509.381
 69.370    617.474    590.353     27.121    509.461    587.310    509.461    512.518    509.461
 69.470    614.792    579.365     35.427    509.540    576.187    509.540    512.728    509.540
 69.570    549.000    572.461    -23.461    509.619    569.137    509.619    512.950    509.619
 69.670    604.000    567.945     36.055    509.698    564.461    509.698    513.186    509.698
 69.770    611.679    564.905     46.774    509.776    561.247    509.776    513.437    509.776
 69.870    535.000    562.876    -27.876    509.853    559.027    509.853    513.705    509.853
 69.970    564.644    561.630      3.014    509.930    557.569    509.930    513.992    509.930
 70.070    592.683    561.060     31.623    510.007    556.765    510.007    514.302    510.007
 70.170    520.608    561.133    -40.525    510.083    556.579    510.083    514.637    510.083
 70.270    531.409    561.879    -30.470    510.158    557.035    510.158    515.000    510.158
 70.370    528.079    563.407    -35.328    510.233    558.240    510.233    515.397    510.233
 70.470    555.000    565.959    -10.959    510.308    560.431    510.308    515.833    510.308
 70.570    590.464    570.014     20.450    510.382    564.077    510.382    516.313    510.382
 70.670    587.000    576.443     10.557    510.455    570.043    510.455    516.847    510.455
 70.770    610.633    586.753     23.880    510.528    579.825    510.528    517.444    510.528
 70.870    602.009    603.344     -1.335    510.600    595.805    510.600    518.121    510.600
 70.970    671.076    629.741     41.336    510.672    621.485    510.672    518.899    510.672
 71.070    648.000    670.640    -22.640    510.743    661.529    510.743    519.813    510.743
 71.170    749.000    731.583     17.417    510.814    721.419    510.814    520.916    510.814
 71.270    857.060    818.072     38.988    510.884    806.575    510.884    522.295    510.884
 71.370    890.000    934.116    -44.116    510.953    920.870    510.953    524.083    510.953
 71.470   1051.000   1080.360    -29.360    511.022   1064.748    511.022    526.487    511.022
 71.570   1197.000   1252.243    -55.243    511.090   1233.352    511.090    529.803    511.090
 71.670   1348.000   1438.673    -90.673    511.158   1415.187    511.158    534.440    511.158
 71.770   1644.214   1621.691     22.523    511.225   1591.776    511.225    540.921    511.225
 71.870   1715.500   1777.702    -62.201    511.291   1738.916    511.291    549.861    511.291
 71.970   1963.000   1881.555     81.445    511.357   1830.810    511.357    561.906    511.357
 72.070   1917.000   1914.458      2.542    511.422   1848.093    511.422    577.626    511.422
 72.170   1836.000   1872.689    -36.689    511.486   1786.682    511.486    597.372    511.486
 72.270   1831.000   1769.718     61.282    511.550   1660.076    511.550    621.108    511.550
 72.370   1703.186   1629.249     73.937    511.613   1492.571    511.613    648.238    511.613
 72.470   1407.610   1475.712    -68.103    511.675   1309.905    511.675    677.449    511.675
 72.570   1368.000   1328.201     39.799    511.737   1133.335    511.737    706.582    511.737
 72.670   1190.194   1198.184     -7.990    511.797    977.380    511.797    732.587    511.797
 72.770   1063.596   1089.558    -25.962    511.858    849.616    511.858    751.788    511.858
 72.870    950.000   1000.506    -50.506    511.917    751.656    511.917    760.754    511.917
 72.970    840.000    926.550    -86.550    511.976    680.857    511.976    757.656    511.976
 73.070    779.000    863.419    -84.419    512.034    632.260    512.034    743.180    512.034
 73.170    790.000    808.356    -18.356    512.091    600.283    512.091    720.153    512.091
 73.270    801.206    759.987     41.219    512.148    579.865    512.148    692.261    512.148
 73.370    730.932    717.740     13.193    512.203    567.033    512.203    662.903    512.203
 73.470    606.000    681.423    -75.423    512.258    559.000    512.258    634.677    512.258
 73.570    673.462    650.980     22.483    512.312    553.996    512.312    609.294    512.312
 73.670    597.000    626.316    -29.316    512.366    550.999    512.366    587.683    512.366
 73.770    575.785    607.180    -31.394    512.418    549.467    512.418    570.135    512.418
 73.870    631.000    593.118     37.882    512.470    549.131    512.470    556.465    512.470
 73.970    543.931    583.488    -39.557    512.521    549.829    512.521    546.193    512.521
 74.070    611.754    577.511     34.243    512.572    551.405    512.572    538.695    512.572
 74.170    553.088    574.325    -21.238    512.621    553.637    512.621    533.333    512.621
 74.270    647.000    573.037     73.963    512.669    556.203    512.669    529.534    512.669
 74.370    551.571    572.752    -21.181    512.717    558.672    512.717    526.833    512.717
 74.470    620.000    572.617     47.383    512.764    560.541    512.764    524.881    512.764
 74.570    603.534    571.903     31.630    512.810    561.328    512.810    523.430    512.810
 74.670    602.194    570.141     32.053    512.855    560.728    512.855    522.313    512.855
 74.770    617.000    567.236     49.764    512.900    558.754    512.900    521.423    512.900
 74.870    631.000    563.448     67.552    512.943    555.736    512.943    520.692    512.943
 74.970    589.404    559.249     30.155    512.985    552.189    512.985    520.077    512.985
 75.070    542.000    555.174    -13.174    513.027    548.676    513.027    519.551    513.027
 75.170    542.000    551.741     -9.741    513.068    545.733    513.068    519.095    513.068
 75.270    550.000    549.438      0.562    513.108    543.862    513.108    518.697    513.108
 75.370    552.000    548.743      3.257    513.147    543.549    513.147    518.348    513.147
 75.470    567.000    550.148     16.852    513.185    545.296    513.185    518.039    513.185
 75.570    569.000    554.176     14.824    513.222    549.628    513.222    517.765    513.222
 75.670    564.733    561.352      3.381    513.258    557.077    513.258    517.522    513.258
 75.770    600.000    572.123     27.877    513.293    568.094    513.293    517.305    513.293
 75.870    620.000    586.722     33.278    513.328    582.913    513.328    517.112    513.328
 75.970    621.000    604.994     16.006    513.361    601.384    513.361    516.938    513.361
 76.070    597.556    626.233    -28.676    513.394    622.802    513.394    516.781    513.394
 76.170    649.978    649.066      0.912    513.425    645.799    513.425    516.641    513.425
 76.270    657.000    671.429    -14.429    513.456    668.313    513.456    516.513    513.456
 76.370    709.000    690.671     18.329    513.485    687.693    513.485    516.398    513.485
 76.470    679.800    703.885    -24.085    513.514    701.039    513.514    516.294    513.514
 76.570    708.000    708.638     -0.638    513.541    705.917    513.541    516.199    513.541
 76.670    715.595    703.913     11.682    513.568    701.311    513.568    516.113    513.568
 76.770    680.000    690.605    -10.605    513.593    688.115    513.593    516.034    513.593
 76.870    620.000    671.073    -51.073    513.618    668.690    513.618    515.961    513.618
 76.970    672.000    648.200     23.800    513.641    645.916    513.641    515.895    513.641
 77.070    635.000    624.647     10.353    513.664    622.454    513.664    515.834    513.664
 77.170    606.000    602.489      3.511    513.686    600.380    513.686    515.778    513.686
 77.270    577.237    583.098     -5.861    513.706    581.067    513.706    515.726    513.706
 77.370    537.805    567.157    -29.352    513.725    565.197    513.725    515.678    513.725
 77.470    560.000    554.766      5.234    513.744    552.871    513.744    515.634    513.744
 77.570    504.000    545.606    -41.606    513.761    543.772    513.761    515.592    513.761
 77.670    513.000    539.130    -26.130    513.778    537.351    513.778    515.554    513.778
 77.770    496.000    534.715    -38.715    513.793    532.988    513.793    515.518    513.793
 77.870    509.222    531.784    -22.562    513.807    530.106    513.807    515.484    513.807
 77.970    527.485    529.864     -2.379    513.820    528.232    513.820    515.452    513.820
 78.070    548.272    528.604     19.668    513.832    527.014    513.832    515.421    513.832
 78.170    570.383    527.761     42.622    513.843    526.210    513.843    515.393    513.843
 78.270    555.000    527.163     27.837    513.853    525.650    513.853    515.366    513.853
 78.370    562.573    526.733     35.840    513.862    525.254    513.862    515.340    513.862
 78.470    558.000    526.455     31.545    513.870    525.009    513.870    515.315    513.870
 78.570    511.000    526.285    -15.285    513.876    524.868    513.876    515.292    513.876
 78.670    533.595    526.214      7.380    513.882    524.825    513.882    515.270    513.882
 78.770    523.000    526.252     -3.252    513.886    524.888    513.886    515.249    513.886
 78.870    564.000    526.414     37.586    513.890    525.073    513.890    515.230    513.890
 78.970    510.000    526.727    -16.727    513.892    525.406    513.892    515.212    513.892
 79.070    501.000    527.219    -26.219    513.893    525.914    513.893    515.197    513.893
 79.170    522.000    527.922     -5.922    513.893    526.629    513.893    515.184    513.893
 79.270    542.000    528.866     13.134    513.892    527.580    513.892    515.175    513.892
 79.370    579.000    530.078     48.922    513.889    528.795    513.889    515.170    513.889
 79.470    489.000    531.587    -42.587    513.886    530.299    513.886    515.170    513.886
 79.570    526.000    533.428     -7.428    513.881    532.128    513.881    515.177    513.881
 79.670    505.000    535.654    -30.654    513.875    534.333    513.875    515.191    513.875
 79.770    548.269    538.356      9.913    513.868    537.006    513.868    515.214    513.868
 79.870    532.000    541.683     -9.683    513.860    540.294    513.860    515.244    513.860
 79.970    529.964    545.871    -15.907    513.851    544.433    513.851    515.283    513.851
 80.070    581.328    551.262     30.066    513.841    549.768    513.841    515.329    513.841
 80.170    591.687    558.308     33.379    513.829    556.753    513.829    515.380    513.829
 80.270    535.837    567.517    -31.680    513.816    565.899    513.816    515.432    513.816
 80.370    587.091    579.352      7.739    513.802    577.675    513.802    515.481    513.802
 80.470    604.000    594.113      9.887    513.787    592.384    513.787    515.520    513.787
 80.570    575.000    611.816    -36.816    513.771    610.054    513.771    515.542    513.771
 80.670    625.646    632.112     -6.466    513.753    630.338    513.753    515.540    513.753
 80.770    652.000    654.230     -2.230    513.734    652.472    513.734    515.511    513.734
 80.870    706.569    677.009     29.560    513.714    675.293    513.714    515.455    513.714
 80.970    678.000    699.017    -21.017    513.693    697.365    513.693    515.375    513.693
 81.070    719.000    718.759      0.241    513.671    717.189    513.671    515.278    513.671
 81.170    739.402    734.886      4.516    513.647    733.406    513.647    515.171    513.647
 81.270    742.000    746.314     -4.314    513.623    744.927    513.623    515.060    513.623
 81.370    757.000    752.318      4.682    513.597    751.021    513.597    514.950    513.597
 81.470    771.278    752.620     18.658    513.570    751.406    513.570    514.845    513.570
 81.570    748.622    747.399      1.223    513.541    746.260    513.541    514.745    513.541
 81.670    760.473    737.232     23.241    513.511    736.157    513.511    514.654    513.511
 81.770    761.000    723.040     37.960    513.481    722.018    513.481    514.570    513.481
 81.870    689.947    706.047    -16.099    513.448    705.068    513.448    514.494    513.448
 81.970    698.918    687.608     11.310    513.415    686.663    513.415    514.425    513.415
 82.070    670.000    668.937      1.063    513.381    668.019    513.381    514.361    513.381
 82.170    661.000    650.888     10.112    513.345    649.989    513.345    514.302    513.345
 82.270    662.535    633.913     28.622    513.308    633.028    513.308    514.246    513.308
 82.370    642.442    618.180     24.262    513.269    617.305    513.269    514.193    513.269
 82.470    621.000    603.758     17.242    513.230    602.890    513.230    514.142    513.230
 82.570    537.000    590.747    -53.747    513.189    589.884    513.189    514.091    513.189
 82.670    589.537    579.310     10.228    513.147    578.448    513.147    514.041    513.147
 82.770    545.930    569.625    -23.694    513.104    568.763    513.104    513.991    513.104
 82.870    585.038    561.855     23.183    513.059    560.992    513.059    513.941    513.059
 82.970    536.000    556.125    -20.125    513.013    555.259    513.013    513.890    513.013
 83.070    535.000    552.509    -17.509    512.966    551.640    512.966    513.839    512.966
 83.170    552.000    551.008      0.992    512.918    550.135    512.918    513.787    512.918
 83.270    560.747    551.527      9.220    512.868    550.650    512.868    513.734    512.868
 83.370    572.878    553.857     19.021    512.817    552.975    512.817    513.681    512.817
 83.470    596.932    557.659     39.272    512.765    556.772    512.765    513.627    512.765
 83.570    550.000    562.466    -12.466    512.712    561.573    512.712    513.572    512.712
 83.670    521.861    567.690    -45.829    512.657    566.793    512.657    513.516    512.657
 83.770    596.000    572.659     23.341    512.601    571.758    512.601    513.459    512.601
 83.870    560.000    576.664    -16.664    512.544    575.760    512.544    513.401    512.544
 83.970    544.000    579.053    -35.053    512.486    578.148    512.486    513.342    512.486
 84.070    544.220    579.368    -35.147    512.426    578.464    512.426    513.283    512.426
 84.170    589.000    577.473     11.527    512.365    576.571    512.365    513.222    512.365
 84.270    543.000    573.587    -30.587    512.302    572.689    512.302    513.161    512.302
 84.370    615.489    568.194     47.295    512.239    567.299    512.239    513.098    512.239
 84.470    546.000    561.892    -15.892    512.174    561.002    512.174    513.035    512.174
 84.570    560.000    555.270      4.730    512.108    554.383    512.108    512.971    512.108
 84.670    571.000    548.827     22.173    512.040    547.943    512.040    512.905    512.040
 84.770    521.000    542.938    -21.938    511.972    542.056    511.972    512.839    511.972
 84.870    534.000    537.843     -3.843    511.902    536.961    511.902    512.772    511.902
 84.970    509.355    533.651    -24.295    511.830    532.769    511.830    512.703    511.830
 85.070    557.000    530.366     26.634    511.758    529.483    511.758    512.634    511.758
 85.170    515.000    527.916    -12.916    511.684    527.031    511.684    512.564    511.684
 85.270    516.566    526.188     -9.622    511.609    525.299    511.609    512.493    511.609
 85.370    515.766    525.055     -9.289    511.532    524.162    511.532    512.421    511.532
 85.470    495.000    524.403    -29.403    511.455    523.505    511.455    512.348    511.455
 85.570    554.000    524.146     29.854    511.376    523.243    511.376    512.274    511.376
 85.670    524.000    524.234     -0.234    511.295    523.326    511.295    512.199    511.295
 85.770    539.520    524.660     14.860    511.214    523.745    511.214    512.123    511.214
 85.870    533.000    525.458      7.542    511.131    524.536    511.131    512.046    511.131
 85.970    501.831    526.710    -24.879    511.047    525.779    511.047    511.968    511.047
 86.070    500.000    528.536    -28.536    510.962    527.596    510.962    511.890    510.962
 86.170    534.000    531.095      2.905    510.875    530.144    510.875    511.810    510.875
 86.270    551.283    534.571     16.712    510.787    533.608    510.787    511.730    510.787
 86.370    506.541    539.152    -32.611    510.698    538.176    510.698    511.649    510.698
 86.470    550.000    545.006      4.994    510.607    544.013    510.607    511.566    510.607
 86.570    520.000    552.240    -32.240    510.516    551.229    510.516    511.483    510.516
 86.670    594.000    560.862     33.138    510.423    559.832    510.423    511.400    510.423
 86.770    579.000    570.740      8.260    510.328    569.689    510.328    511.315    510.328
 86.870    549.656    581.566    -31.910    510.233    580.493    510.233    511.230    510.233
 86.970    607.000    592.835     14.165    510.136    591.739    510.136    511.144    510.136
 87.070    643.000    603.880     39.120    510.038    602.762    510.038    511.057    510.038
 87.170    632.000    613.870     18.130    509.938    612.732    509.938    510.969    509.938
 87.270    605.849    621.881    -16.032    509.838    620.725    509.838    510.881    509.838
 87.370    625.000    627.062     -2.062    509.736    625.890    509.736    510.792    509.736
 87.470    603.000    628.822    -25.822    509.633    627.640    509.633    510.703    509.633
 87.570    681.000    627.008     53.992    509.528    625.818    509.528    510.613    509.528
 87.670    613.000    621.948     -8.948    509.423    620.753    509.423    510.522    509.423
 87.770    658.000    614.349     43.651    509.316    613.151    509.316    510.431    509.316
 87.870    565.769    605.122    -39.354    509.207    603.921    509.207    510.339    509.207
 87.970    565.519    595.234    -29.715    509.098    594.028    509.098    510.248    509.098
 88.070    631.000    585.598     45.402    508.987    584.387    508.987    510.155    508.987
 88.170    588.716    577.008     11.708    508.875    575.789    508.875    510.063    508.875
 88.270    602.000    570.092     31.908    508.762    568.864    508.762    509.970    508.762
 88.370    584.000    565.285     18.715    508.648    564.045    508.648    509.877    508.648
 88.470    565.168    562.822      2.346    508.532    561.568    508.532    509.784    508.532
 88.570    552.455    562.738    -10.283    508.415    561.468    508.415    509.691    508.415
 88.670    569.000    564.881      4.119    508.297    563.594    508.297    509.598    508.297
 88.770    585.000    568.930     16.070    508.178    567.623    508.178    509.505    508.178
 88.870    592.000    574.410     17.590    508.057    573.083    508.057    509.413    508.057
 88.970    617.656    580.722     36.934    507.936    579.374    507.936    509.321    507.936
 89.070    580.000    587.169     -7.169    507.813    585.796    507.813    509.229    507.813
 89.170    623.000    592.996     30.004    507.688    591.597    507.688    509.139    507.688
 89.270    605.000    597.457      7.543    507.563    596.028    507.563    509.049    507.563
 89.370    643.001    599.910     43.091    507.436    598.448    507.436    508.960    507.436
 89.470    598.000    599.946     -1.946    507.309    598.446    507.309    508.872    507.309
 89.570    562.000    597.480    -35.480    507.180    595.937    507.180    508.786    507.180
 89.670    621.352    592.763     28.589    507.049    591.173    507.049    508.702    507.049
 89.770    596.000    586.294      9.706    506.918    584.650    506.918    508.620    506.918
 89.870    576.000    578.686     -2.686    506.786    576.985    506.786    508.540    506.786
 89.970    544.663    570.558    -25.895    506.652    568.793    506.652    508.462    506.652
 90.070    526.099    562.456    -36.357    506.517    560.624    506.517    508.388    506.517
 90.170    552.518    554.819     -2.301    506.381    552.916    506.381    508.317    506.381
 90.270    506.000    547.963    -41.963    506.244    545.983    506.244    508.250    506.244
 90.370    548.000    542.078      5.922    506.105    540.014    506.105    508.189    506.105
 90.470    559.000    537.237     21.763    505.966    535.084    505.966    508.134    505.966
 90.570    537.000    533.426      3.574    505.825    531.175    505.825    508.086    505.825
 90.670    551.113    530.563     20.550    505.683    528.206    505.683    508.048    505.683
 90.770    489.046    528.533    -39.487    505.540    526.057    505.540    508.021    505.540
 90.870    554.001    527.208     26.793    505.396    524.598    505.396    508.009    505.396
 90.970    527.000    526.474      0.526    505.251    523.710    505.251    508.016    505.251
 91.070    535.917    526.235      9.682    505.104    523.292    505.104    508.048    505.104
 91.170    513.000    526.403    -13.403    504.957    523.246    504.957    508.113    504.957
 91.270    517.000    527.033    -10.033    504.808    523.618    504.808    508.221    504.808
 91.370    509.000    528.151    -19.151    504.659    524.420    504.659    508.387    504.659
 91.470    498.000    529.825    -31.825    504.508    525.702    504.508    508.627    504.508
 91.570    515.000    532.185    -17.185    504.356    527.572    504.356    508.963    504.356
 91.670    516.000    535.409    -19.409    504.203    530.184    504.203    509.421    504.203
 91.770    545.000    539.722      5.278    504.049    533.733    504.049    510.028    504.049
 91.870    540.261    545.372     -5.111    503.894    538.434    503.894    510.819    503.894
 91.970    526.000    552.621    -26.621    503.738    544.517    503.738    511.825    503.738
 92.070    564.000    561.725      2.275    503.581    552.204    503.581    513.080    503.581
 92.170    525.000    572.899    -47.899    503.422    561.680    503.422    514.614    503.422
 92.270    588.442    586.291      2.151    503.263    573.071    503.263    516.450    503.263
 92.370    617.944    601.946     15.998    503.103    586.409    503.103    518.599    503.103
 92.470    598.750    619.778    -21.028    502.941    601.613    502.941    521.059    502.941
 92.570    626.000    639.546    -13.546    502.779    618.460    502.779    523.809    502.779
 92.670    660.000    660.838     -0.838    502.616    636.584    502.616    526.807    502.616
 92.770    709.147    683.069     26.078    502.451    655.468    502.451    529.983    502.451
 92.870    728.000    705.495     22.505    502.286    674.466    502.286    533.240    502.286
 92.970    759.927    727.266     32.661    502.120    692.860    502.120    536.447    502.120
 93.070    736.402    747.544    -11.141    501.952    709.971    501.952    539.443    501.952
 93.170    717.259    765.627    -48.369    501.784    725.291    501.784    542.037    501.784
 93.270    769.561    781.066    -11.505    501.615    738.573    501.615    544.025    501.615
 93.370    846.000    793.719     52.281    501.444    749.862    501.444    545.220    501.444
 93.470    858.666    803.719     54.947    501.273    759.422    501.273    545.490    501.273
 93.570    799.000    811.386    -12.386    501.101    767.620    501.101    544.790    501.101
 93.670    808.769    817.174     -8.405    500.928    774.848    500.928    543.179    500.928
 93.770    850.000    821.642     28.358    500.754    781.525    500.754    540.799    500.754
 93.870    814.000    825.463    -11.463    500.579    788.132    500.579    537.842    500.579
 93.970    899.000    829.398     69.602    500.403    795.223    500.403    534.511    500.403
 94.070    872.922    834.186     38.736    500.227    803.353    500.227    530.995    500.227
 94.170    818.226    840.378    -22.152    500.049    812.913    500.049    527.451    500.049
 94.270    884.000    848.155     35.845    499.871    823.960    499.871    524.004    499.871
 94.370    874.000    857.213     16.787    499.691    836.098    499.691    520.748    499.691
 94.470    858.000    866.746     -8.746    499.511    848.453    499.511    517.748    499.511
 94.570    830.329    875.499    -45.170    499.330    859.733    499.330    515.044    499.330
 94.670    913.000    881.916     31.084    499.148    868.365    499.148    512.654    499.148
 94.770    938.000    884.369     53.631    498.966    872.719    498.966    510.578    498.966
 94.870    902.000    881.463     20.537    498.782    871.413    498.782    508.802    498.782
 94.970    953.000    872.366     80.634    498.598    863.640    498.598    507.302    498.598
 95.070    844.000    857.034    -13.034    498.413    849.388    498.413    506.047    498.413
 95.170    915.000    836.238     78.762    498.227    829.454    498.227    505.006    498.227
 95.270    767.973    811.380    -43.407    498.040    805.275    498.040    504.146    498.040
 95.370    832.661    784.234     48.427    497.853    778.658    497.853    503.435    497.853
 95.470    816.000    756.706     59.294    497.665    751.535    497.665    502.843    497.665
 95.570    720.000    730.722    -10.722    497.476    725.859    497.476    502.347    497.476
 95.670    686.000    708.051    -22.051    497.287    703.419    497.287    501.925    497.287
 95.770    633.000    690.285    -57.285    497.096    685.823    497.096    501.562    497.096
 95.870    706.799    678.817     27.981    496.905    674.477    496.905    501.244    496.905
 95.970    703.000    674.835     28.165    496.714    670.579    496.714    500.961    496.714
 96.070    713.147    679.329     33.817    496.521    675.127    496.521    500.707    496.521
 96.170    693.501    693.097      0.404    496.328    688.924    496.328    500.475    496.328
 96.270    730.214    716.731     13.482    496.135    712.567    496.135    500.262    496.135
 96.370    756.000    750.576      5.424    495.940    746.403    495.940    500.065    495.940
 96.470    807.327    794.655     12.672    495.745    790.457    495.745    499.883    495.745
 96.570    890.000    848.570     41.430    495.550    844.335    495.550    499.714    495.550
 96.670    874.802    911.407    -36.605    495.354    907.120    495.354    499.557    495.354
 96.770    952.000    981.619    -29.619    495.157    977.270    495.157    499.412    495.157
 96.870   1069.217   1056.979     12.238    494.960   1052.559    494.960    499.279    494.960
 96.970   1094.000   1134.559    -40.559    494.762   1130.057    494.762    499.158    494.762
 97.070   1177.000   1210.768    -33.768    494.563   1206.175    494.563    499.049    494.563
 97.170   1225.000   1281.473    -56.473    494.364   1276.781    494.364    498.953    494.364
 97.270   1343.000   1342.248      0.752    494.165   1337.448    494.165    498.869    494.165
 97.370   1346.000   1388.793    -42.793    493.965   1383.876    493.965    498.800    493.965
 97.470   1442.000   1417.540     24.460    493.764   1412.495    493.764    498.746    493.764
 97.570   1430.000   1426.300      3.700    493.563   1421.113    493.563    498.708    493.563
 97.670   1483.000   1414.708     68.292    493.362   1409.360    493.362    498.688    493.362
 97.770   1386.773   1384.242      2.531    493.160   1378.713    493.160    498.689    493.160
 97.870   1342.000   1337.834      4.166    492.958   1332.098    492.958    498.712    492.958
 97.970   1311.000   1279.290     31.710    492.755   1273.315    492.755    498.763    492.755
 98.070   1260.683   1212.759     47.925    492.552   1206.509    492.552    498.846    492.552
 98.170   1102.000   1142.356    -40.356    492.348   1135.786    492.348    498.968    492.348
 98.270   1107.000   1071.912     35.088    492.144   1064.971    492.144    499.138    492.144
 98.370   1021.000   1004.830     16.170    491.940    997.452    491.940    499.369    491.940
 98.470    926.375    944.005    -17.630    491.735    936.109    491.735    499.678    491.735
 98.570    854.299    891.804    -37.505    491.530    883.289    491.530    500.086    491.530
 98.670    865.000    850.095     14.905    491.325    840.830    491.325    500.622    491.325
 98.770    786.247    820.296    -34.049    491.119    810.116    491.119    501.322    491.119
 98.870    815.426    803.450     11.975    490.913    792.146    490.913    502.231    490.913
 98.970    784.000    800.310    -16.310    490.707    787.615    490.707    503.405    490.707
 99.070    836.000    811.383     24.617    490.501    796.968    490.501    504.909    490.501
 99.170    834.000    837.017     -3.017    490.294    820.475    490.294    506.821    490.294
 99.270    927.000    877.337     49.663    490.087    858.174    490.087    509.228    490.087
 99.370    989.872    932.214     57.658    489.880    909.844    489.880    512.222    489.880
 99.470   1016.000   1001.204     14.796    489.673    974.943    489.673    515.903    489.673
 99.570   1064.000   1083.445    -19.445    489.465   1052.512    489.465    520.367    489.465
 99.670   1115.761   1177.552    -61.791    489.258   1141.077    489.258    525.703    489.258
 99.770   1322.790   1281.527     41.264    489.050   1238.569    489.050    531.984    489.050
 99.870   1434.753   1392.691     42.062    488.842   1342.260    488.842    539.260    488.842
 99.970   1490.999   1507.671    -16.672    488.634   1448.762    488.634    547.543    488.634
100.070   1556.869   1622.468    -65.600    488.426   1554.107    488.426    556.806    488.426
100.170   1763.000   1732.660     30.340    488.218   1653.952    488.218    566.966    488.218
100.270   1879.910   1833.729     46.181    488.010   1743.920    488.010    577.883    488.010
100.370   1863.000   1921.474    -58.474    487.802   1820.017    487.802    589.349    487.802
100.470   1967.000   1992.357    -25.357    487.594   1878.984    487.594    601.082    487.594
100.570   2115.000   2043.670     71.330    487.386   1918.471    487.386    612.725    487.386
100.670   2068.000   2073.516     -5.516    487.177   1937.014    487.177    623.841    487.177
100.770   2072.000   2080.757     -8.757    486.969   1933.978    486.969    633.927    486.969
100.870   2088.000   2065.106     22.894    486.761   1909.627    486.761    642.433    486.761
100.970   2078.332   2027.379     50.952    486.553   1865.323    486.553    648.812    486.553
101.070   2000.000   1969.745     30.255    486.345   1803.704    486.345    652.592    486.345
101.170   1886.000   1895.747     -9.747    486.138   1728.625    486.138    653.462    486.138
101.270   1844.054   1809.991     34.063    485.930   1644.784    485.930    651.333    485.930
101.370   1749.000   1717.604     31.396    485.723   1557.150    485.723    646.362    485.723
101.470   1582.383   1623.636    -41.253    485.515   1470.408    485.515    638.916    485.515
101.570   1637.000   1532.580    104.420    485.308   1388.550    485.308    629.495    485.308
101.670   1420.000   1448.051    -28.051    485.101   1314.638    485.101    618.656    485.101
101.770   1383.000   1372.620     10.380    484.895   1250.702    484.895    606.939    484.895
101.870   1280.455   1307.764    -27.309    484.688   1197.733    484.688    594.830    484.688
101.970   1248.000   1253.896     -5.896    484.482   1155.734    484.482    582.744    484.482
102.070   1156.000   1210.462    -54.462    484.277   1123.813    484.277    571.016    484.277
102.170   1177.915   1176.073      1.841    484.071   1100.322    484.071    559.905    484.071
102.270   1156.000   1148.691      7.309    483.866   1083.036    483.866    549.599    483.866
102.370   1163.000   1125.850     37.150    483.661   1069.366    483.661    540.221    483.661
102.470   1063.000   1104.941    -41.941    483.457   1056.637    483.457    531.836    483.457
102.570   1154.000   1083.524     70.476    483.253   1042.393    483.253    524.460    483.253
102.670   1056.287   1059.645     -3.358    483.049   1024.705    483.049    518.068    483.049
102.770   1059.000   1032.076     26.924    482.846   1002.400    482.846    512.603    482.846
102.870    992.243   1000.387     -8.144    482.644    975.126    482.644    507.986    482.644
102.970    926.000    964.864    -38.864    482.442    943.261    482.442    504.125    482.442
103.070    956.707    926.309     30.398    482.240    907.705    482.240    500.922    482.240
103.170    935.431    885.816     49.615    482.039    869.649    482.039    498.281    482.039
103.270    832.000    844.584    -12.584    481.839    830.385    481.839    496.108    481.839
103.370    850.576    803.787     46.789    481.639    791.170    481.639    494.320    481.639
103.470    758.000    764.479     -6.479    481.439    753.133    481.439    492.843    481.439
103.570    762.000    727.542     34.458    481.241    717.220    481.241    491.614    481.241
103.670    727.000    693.650     33.350    481.043    684.156    481.043    490.581    481.043
103.770    671.000    663.252      7.748    480.846    654.434    480.846    489.700    480.846
103.870    628.751    636.578     -7.828    480.649    628.319    480.649    488.940    480.649
103.970    570.000    613.666    -43.666    480.453    605.873    480.453    488.272    480.453
104.070    631.000    594.384     36.616    480.258    586.985    480.258    487.677    480.258
104.170    592.000    578.467     13.533    480.064    571.407    480.064    487.140    480.064
104.270    590.000    565.591     24.409    479.870    558.825    479.870    486.648    479.870
104.370    559.000    555.369      3.631    479.677    548.861    479.677    486.195    479.677
104.470    583.000    547.409     35.591    479.485    541.129    479.485    485.772    479.485
104.570    576.000    541.342     34.658    479.294    535.265    479.294    485.375    479.294
104.670    573.000    536.834     36.166    479.104    530.939    479.104    485.001    479.104
104.770    489.573    533.602    -44.029    478.915    527.871    478.915    484.647    478.915
104.870    500.000    531.420    -31.420    478.727    525.835    478.727    484.311    478.727
104.970    528.256    530.115     -1.859    478.540    524.662    478.540    483.991    478.540
105.070    543.000    529.573     13.427    478.353    524.238    478.353    483.685    478.353
105.170    536.000    529.729      6.271    478.168    524.499    478.168    483.393    478.168
105.270    543.000    530.562     12.438    477.984    525.426    477.984    483.113    477.984
105.370    541.231    532.095      9.136    477.801    527.043    477.801    482.845    477.801
105.470    571.000    534.385     36.615    477.619    529.406    477.619    482.588    477.619
105.570    530.000    537.515     -7.515    477.438    532.600    477.438    482.341    477.438
105.670    529.423    541.585    -12.163    477.258    536.725    477.258    482.104    477.258
105.770    561.000    546.704     14.296    477.080    541.890    477.080    481.876    477.080
105.870    530.328    552.966    -22.638    476.902    548.191    476.902    481.657    476.902
105.970    581.011    560.442     20.569    476.726    555.698    476.726    481.447    476.726
106.070    530.000    569.162    -39.162    476.551    564.442    476.551    481.245    476.551
106.170    567.593    579.106    -11.513    476.378    574.403    476.378    481.051    476.378
106.270    562.942    590.187    -27.245    476.206    585.494    476.206    480.865    476.206
106.370    602.000    602.250     -0.250    476.035    597.562    476.035    480.686    476.035
106.470    595.000    615.069    -20.069    475.865    610.379    475.865    480.515    475.865
106.570    638.035    628.346      9.688    475.697    623.649    475.697    480.351    475.697
106.670    641.000    641.722     -0.722    475.531    637.013    475.531    480.195    475.531
106.770    660.000    654.785      5.215    475.366    650.058    475.366    480.045    475.366
106.870    700.000    667.092     32.908    475.202    662.343    475.202    479.903    475.202
106.970    683.135    678.194      4.940    475.040    673.418    475.040    479.768    475.040
107.070    643.000    687.680    -44.680    474.879    682.872    474.879    479.640    474.879
107.170    649.000    695.221    -46.221    474.720    690.378    474.720    479.519    474.720
107.270    653.000    700.633    -47.633    474.563    695.748    474.563    479.405    474.563
107.370    673.000    703.908    -30.908    474.407    698.978    474.407    479.298    474.407
107.470    714.061    705.228      8.833    474.253    700.252    474.253    479.194    474.253
107.570    750.196    704.948     45.248    474.100    699.916    474.100    479.102    474.100
107.670    709.102    703.513      5.588    473.950    698.419    473.950    479.018    473.950
107.770    701.775    701.408      0.366    473.801    696.246    473.801    478.942    473.801
107.870    671.000    699.091    -28.091    473.654    693.853    473.654    478.874    473.654
107.970    716.000    696.946     19.054    473.508    691.627    473.508    478.814    473.508
108.070    644.000    695.253    -51.253    473.365    689.846    473.365    478.763    473.365
108.170    713.714    694.170     19.544    473.223    688.668    473.223    478.721    473.223
108.270    698.042    693.722      4.320    473.084    688.117    473.084    478.687    473.084
108.370    662.655    693.801    -31.146    472.946    688.086    472.946    478.663    472.946
108.470    717.000    694.178     22.822    472.810    688.347    472.810    478.648    472.810
108.570    685.112    694.514     -9.402    472.677    688.566    472.677    478.633    472.677
108.670    684.000    694.425    -10.425    472.545    688.344    472.545    478.639    472.545
108.770    685.511    693.480     -7.969    472.415    687.254    472.415    478.656    472.415
108.870    669.912    691.284    -21.372    472.288    684.904    472.288    478.685    472.288
108.970    723.462    687.537     35.925    472.163    680.993    472.163    478.727    472.163
109.070    655.000    682.077    -27.077    472.039    675.357    472.039    478.781    472.039
109.170    655.000    674.902    -19.902    471.918    667.994    471.918    478.849    471.918
109.270    623.875    666.156    -42.281    471.800    659.048    471.800    478.930    471.800
109.370    676.572    656.100     20.472    471.683    648.779    471.683    479.027    471.683
109.470    615.000    645.066    -30.066    471.569    637.517    471.569    479.140    471.569
109.570    617.000    633.414    -16.414    471.457    625.621    471.457    479.270    471.457
109.670    587.146    621.482    -34.336    471.348    613.431    471.348    479.418    471.348
109.770    598.414    609.641    -11.227    471.241    601.313    471.241    479.586    471.241
109.870    623.000    598.210     24.790    471.136    589.587    471.136    479.775    471.136
109.970    566.040    587.429    -21.388    471.034    578.490    471.034    479.987    471.034
110.070    550.946    577.499    -26.552    470.935    568.221    470.935    480.224    470.935
110.170    554.000    568.571    -14.571    470.838    558.930    470.838    480.488    470.838
110.270    581.000    560.743     20.257    470.743    550.710    470.743    480.784    470.743
110.370    540.000    554.061    -14.061    470.651    543.603    470.651    481.114    470.651
110.470    539.000    548.527     -9.527    470.562    537.609    470.562    481.484    470.562
110.570    554.000    544.108      9.892    470.476    532.687    470.476    481.899    470.476
110.670    602.000    540.744     61.256    470.392    528.769    470.392    482.368    470.392
110.770    509.112    538.356    -29.244    470.311    525.767    470.311    482.899    470.311
110.870    570.000    536.856     33.144    470.233    523.581    470.233    483.505    470.233
110.970    514.000    536.153    -22.153    470.157    522.106    470.157    484.200    470.157
111.070    505.090    536.162    -31.072    470.085    521.238    470.085    485.004    470.085
111.170    531.000    536.808     -5.808    470.015    520.879    470.015    485.939    470.015
111.270    552.000    538.029     13.971    469.948    520.937    469.948    487.034    469.948
111.370    541.000    539.780      1.220    469.885    521.334    469.885    488.323    469.885
111.470    518.000    542.031    -24.031    469.824    521.999    469.824    489.848    469.824
111.570    561.000    544.774     16.226    469.767    522.874    469.767    491.657    469.767
111.670    564.862    548.019     16.843    469.712    523.912    469.712    493.810    469.712
111.770    568.271    551.798     16.473    469.661    525.076    469.661    496.373    469.661
111.870    543.000    556.161    -13.161    469.613    526.341    469.613    499.421    469.613
111.970    585.000    561.178     23.822    469.568    527.694    469.568    503.040    469.568
112.070    599.104    566.939     32.164    469.526    529.130    469.526    507.323    469.526
112.170    508.000    573.551    -65.551    469.487    530.655    469.487    512.371    469.487
112.270    560.000    581.133    -21.133    469.452    532.285    469.452    518.288    469.452
112.370    563.000    589.816    -26.816    469.420    534.042    469.420    525.181    469.420
112.470    649.000    599.735     49.265    469.392    535.957    469.392    533.156    469.392
112.570    615.000    611.028      3.972    469.367    538.070    469.367    542.311    469.367
112.670    615.000    623.831     -8.831    469.346    540.428    469.346    552.734    469.346
112.770    610.000    638.277    -28.277    469.328    543.093    469.328    564.495    469.328
112.870    709.000    654.490     54.510    469.314    546.143    469.314    577.643    469.314
112.970    697.000    672.590     24.410    469.303    549.680    469.303    592.194    469.303
113.070    706.000    692.691     13.309    469.296    553.835    469.296    608.131    469.296
113.170    732.000    714.908     17.092    469.292    558.782    469.292    625.396    469.292
113.270    736.000    739.365     -3.365    469.293    564.753    469.293    643.880    469.293
113.370    769.719    766.206      3.514    469.297    572.047    469.297    663.428    469.297
113.470    783.000    795.611    -12.611    469.305    581.061    469.305    683.824    469.305
113.570    855.918    827.818     28.100    469.317    592.303    469.317    704.796    469.317
113.670    887.000    863.141     23.859    469.332    606.426    469.332    726.008    469.332
113.770    935.000    902.003     32.997    469.352    624.249    469.352    747.060    469.352
113.870    938.989    944.960     -5.971    469.376    646.792    469.376    767.490    469.376
113.970   1044.916    992.734     52.182    469.403    675.299    469.403    786.775    469.403
114.070   1049.381   1046.249      3.131    469.435    711.259    469.435    804.350    469.435
114.170   1073.000   1106.667    -33.667    469.471    756.426    469.471    819.622    469.471
114.270   1181.849   1175.422      6.426    469.511    812.816    469.511    832.009    469.511
114.370   1224.228   1254.261    -30.033    469.555    882.697    469.555    840.990    469.555
114.470   1258.000   1345.254    -87.254    469.603    968.550    469.603    846.154    469.603
114.570   1469.000   1450.792     18.208    469.656   1073.013    469.656    847.251    469.656
114.670   1613.000   1573.529     39.471    469.713   1198.794    469.713    844.229    469.713
114.770   1747.000   1716.272     30.728    469.774   1348.547    469.774    837.241    469.774
114.870   1964.475   1881.815     82.660    469.840   1524.733    469.840    826.619    469.840
114.970   2085.000   2072.721     12.279    469.910   1729.442    469.910    812.837    469.910
115.070   2403.000   2291.082    111.918    469.985   1964.208    469.985    796.454    469.985
115.170   2636.000   2538.262     97.738    470.064   2229.805    470.064    778.061    470.064
115.270   2810.250   2814.661     -4.411    470.148   2526.050    470.148    758.243    470.148
115.370   3125.000   3119.506      5.494    470.237   2851.625    470.237    737.545    470.237
115.470   3522.355   3450.684     71.671    470.330   3203.925    470.330    716.463    470.330
115.570   3764.000   3804.628    -40.628    470.428   3578.954    470.428    695.427    470.428
115.670   4034.000   4176.264   -142.264    470.531   3971.272    470.531    674.806    470.531
115.770   4425.000   4559.029   -134.029    470.638   4374.013    470.638    654.905    470.638
115.870   4913.013   4944.947    -31.934    470.751   4778.962    470.751    635.966    470.751
115.970   5425.418   5324.792    100.626    470.868   5176.708    470.868    618.177    470.868
116.070   5634.314   5688.317    -54.003    470.990   5556.874    470.990    601.669    470.990
116.170   6059.000   6024.579     34.421    471.118   5908.436    471.118    586.523    471.118
116.270   6246.996   6322.370    -75.374    471.250   6220.149    471.250    572.779    471.250
116.370   6684.000   6570.778    113.222    471.388   6481.101    471.388    560.436    471.388
116.470   6716.000   6759.889    -43.889    471.530   6681.412    471.530    549.460    471.530
116.570   7010.000   6881.585    128.415    471.678   6813.019    471.678    539.792    471.678
116.670   6952.000   6930.315     21.685    471.831   6870.447    471.831    531.353    471.831
116.770   6857.000   6903.720    -46.720    471.990   6851.427    471.990    524.048    471.990
116.870   6824.000   6802.928     21.072    472.153   6757.184    472.153    517.775    472.153
116.970   6544.189   6632.312    -88.123    472.323   6592.192    472.323    512.427    472.323
117.070   6417.000   6399.042     17.958    472.497   6363.724    472.497    507.898    472.497
117.170   6238.413   6112.323    126.090    472.677   6081.084    472.677    504.086    472.677
117.270   5785.000   5782.596      2.404    472.863   5754.807    472.863    500.893    472.863
117.370   5232.000   5420.815   -188.815    473.054   5395.936    473.054    498.231    473.054
117.470   4952.328   5037.851    -85.524    473.251   5015.424    473.251    496.017    473.251
117.570   4718.000   4644.040     73.960    473.454   4623.676    473.454    494.182    473.454
117.670   4283.000   4248.834     34.166    473.662   4230.209    473.662    492.663    473.662
117.770   3993.000   3860.558    132.442    473.876   3843.404    473.876    491.406    473.876
117.870   3634.000   3486.247    147.753    474.096   3470.341    474.096    490.366    474.096
117.970   3306.000   3131.553    174.447    474.322   3116.714    474.322    489.505    474.322
118.070   2795.192   2800.732     -5.540    474.554   2786.811    474.554    488.793    474.554
118.170   2578.000   2496.694     81.306    474.792   2483.569    474.792    488.203    474.792
118.270   2228.000   2221.101      6.899    475.036   2208.675    475.036    487.714    475.036
118.370   1977.745   1974.513      3.233    475.286   1962.706    475.286    487.311    475.286
118.470   1767.000   1756.554     10.446    475.542   1745.301    475.542    486.980    475.542
118.570   1545.000   1566.092    -21.092    475.805   1555.339    475.805    486.711    475.805
118.670   1352.000   1401.420    -49.420    476.073   1391.123    476.073    486.494    476.073
118.770   1242.000   1260.433    -18.433    476.348   1250.556    476.348    486.324    476.348
118.870   1114.000   1140.790    -26.790    476.630   1131.300    476.630    486.195    476.630
118.970   1018.000   1040.052    -22.052    476.917   1030.923    476.917    486.104    476.917
119.070    905.728    955.803    -50.075    477.212    947.010    477.212    486.046    477.212
119.170    867.979    885.737    -17.758    477.513    877.258    477.513    486.020    477.513
119.270    869.000    827.721     41.279    477.820    819.536    477.820    486.024    477.820
119.370    756.275    779.837    -23.562    478.134    771.928    478.134    486.055    478.134
119.470    729.000    740.398    -11.398    478.455    732.746    478.455    486.113    478.455
119.570    689.873    707.949    -18.076    478.782    700.538    478.782    486.197    478.782
119.670    673.697    681.260     -7.563    479.116    674.072    479.116    486.306    479.116
119.770    624.000    659.305    -35.305    479.458    652.324    479.458    486.439    479.458
119.870    620.000    641.240    -21.240    479.806    634.448    479.806    486.597    479.806
119.970    582.422    626.380    -43.958    480.161    619.760    480.161    486.780    480.161
120.070    657.839    614.172     43.667    480.523    607.708    480.523    486.987    480.523
120.170    572.000    604.178    -32.178    480.892    597.850    480.892    487.219    480.892
120.270    633.000    596.047     36.953    481.268    589.839    481.268    487.477    481.268
120.370    603.000    589.506     13.494    481.652    583.399    481.652    487.760    481.652
120.470    570.000    584.339    -14.339    482.043    578.313    482.043    488.070    482.043
120.570    587.050    580.379      6.671    482.441    574.413    482.441    488.408    482.441
120.670    597.949    577.494     20.455    482.846    571.568    482.846    488.774    482.846
120.770    644.000    575.582     68.418    483.259    569.675    483.259    489.169    483.259
120.870    598.898    574.562     24.336    483.679    568.652    483.679    489.594    483.679
120.970    555.181    574.370    -19.189    484.107    568.433    484.107    490.050    484.107
121.070    590.150    574.952     15.198    484.543    568.964    484.543    490.537    484.543
121.170    572.550    576.259     -3.709    484.986    570.197    484.986    491.055    484.986
121.270    566.392    578.246    -11.854    485.437    572.086    485.437    491.606    485.437
121.370    569.000    580.866    -11.866    485.896    574.584    485.896    492.188    485.896
121.470    558.000    584.069    -26.069    486.362    577.641    486.362    492.802    486.362
121.570    603.000    587.798     15.202    486.837    581.202    486.837    493.447    486.837
121.670    608.000    591.989     16.011    487.319    585.203    487.319    494.121    487.319
121.770    580.000    596.568    -16.568    487.809    589.573    487.809    494.824    487.809
121.870    591.000    601.454    -10.454    488.308    594.232    488.308    495.552    488.308
121.970    565.000    606.554    -41.554    488.815    599.089    488.815    496.304    488.815
122.070    614.000    611.765      2.235    489.329    604.046    489.329    497.075    489.329
122.170    610.585    616.978     -6.393    489.852    608.997    489.852    497.863    489.852
122.270    582.495    622.077    -39.582    490.384    613.830    490.384    498.663    490.384
122.370    599.209    626.940    -27.731    490.924    618.430    490.924    499.470    490.924
122.470    674.143    631.448     42.694    491.472    622.680    491.472    500.278    491.472
122.570    592.000    635.484    -43.484    492.029    626.472    492.029    501.081    492.029
122.670    647.000    638.940      8.060    492.594    629.703    492.594    501.873    492.594
122.770    614.000    641.726    -27.726    493.168    632.290    493.168    502.648    493.168
122.870    664.000    643.771     20.229    493.751    634.170    493.751    503.397    493.751
122.970    679.000    645.035     33.965    494.342    635.307    494.342    504.116    494.342
123.070    629.634    645.502    -15.868    494.942    635.694    494.942    504.797    494.942
123.170    682.309    645.189     37.120    495.551    635.350    495.551    505.437    495.551
123.270    652.000    644.136      7.864    496.169    634.320    496.169    506.032    496.169
123.370    661.084    642.406     18.678    496.796    632.666    496.796    506.581    496.796
123.470    642.346    640.076      2.269    497.433    630.466    497.433    507.086    497.433
123.570    646.000    637.234      8.766    498.078    627.805    498.078    507.548    498.078
123.670    681.012    633.973     47.039    498.732    624.771    498.732    507.973    498.732
123.770    647.168    630.385     16.783    499.396    621.451    499.396    508.365    499.396
123.870    602.000    626.560    -24.560    500.069    617.930    500.069    508.731    500.069
123.970    611.000    622.583    -11.583    500.752    614.286    500.752    509.079    500.752
124.070    621.000    618.529      2.471    501.444    610.586    501.444    509.414    501.444
124.170    576.000    614.463    -38.463    502.145    606.889    502.145    509.742    502.145
124.270    596.000    610.436    -14.436    502.857    603.243    502.857    510.070    502.857
124.370    645.000    606.493     38.507    503.577    599.684    503.577    510.404    503.577
124.470    625.000    602.663     22.337    504.308    596.236    504.308    510.750    504.308
124.570    621.000    598.963     22.037    505.048    592.913    505.048    511.111    505.048
124.670    551.391    595.402    -44.011    505.798    589.720    505.798    511.491    505.798
124.770    590.183    591.981     -1.798    506.558    586.655    506.558    511.893    506.558
124.870    579.000    588.695     -9.695    507.329    583.711    507.329    512.320    507.329
124.970    550.341    585.534    -35.193    508.109    580.875    508.109    512.773    508.109
