neutron_powder_diffraction_0029
R_wp: 3.712
Temperature (K): 538.356
Counts: 83765.00
Wavelength (Ã…): 2.52098
COMMENTS
Test file for demonstrating the .xyy file format in Reel1.0
END OF HEADER
   tth       Y_obs     Y_calc      Y_res    Background    Phase_1_Nuc    Phase_1_Mag    Phase_2_Nuc    Phase_2_Mag
  9.970    707.000    710.541     -3.541    708.883    709.939    709.485    708.883    708.883
 10.070    738.000    709.649     28.351    707.900    709.040    708.508    707.900    707.900
 10.170    732.074    708.772     23.302    706.920    708.157    707.534    706.920    706.920
 10.270    716.000    707.914      8.086    705.945    707.292    706.565    705.945    705.945
 10.370    709.255    707.076      2.179    704.973    706.448    705.601    704.973    704.973
 10.470    672.431    706.263    -33.832    704.005    705.628    704.640    704.005    704.005
 10.570    704.688    705.478     -0.790    703.042    704.836    703.683    703.042    703.042
 10.670    691.000    704.729    -13.729    702.082    704.080    702.730    702.082    702.082
 10.770    746.234    704.023     42.212    701.126    703.366    701.781    701.126    701.126
 10.870    755.435    703.370     52.065    700.174    702.706    700.837    700.174    700.174
 10.970    731.000    702.784     28.216    699.227    702.112    699.896    699.227    699.227
 11.070    668.000    702.285    -34.285    698.283    701.605    698.960    698.283    698.283
 11.170    714.788    701.900     12.888    697.343    701.213    698.028    697.343    697.343
 11.270    660.000    701.671    -41.671    696.407    700.976    697.100    696.407    696.407
 11.370    780.000    701.667     78.333    695.475    700.963    696.176    695.475    695.475
 11.470    716.000    702.008     13.992    694.547    701.296    695.256    694.547    694.547
 11.570    756.793    702.967     53.826    693.623    702.244    694.340    693.623    693.623
 11.670    741.000    705.140     35.860    692.703    704.408    693.429    692.703    692.703
 11.770    658.685    709.724    -51.039    691.787    708.980    692.521    691.787    691.787
 11.870    753.000    718.649     34.351    690.875    717.891    691.617    690.875    690.875
 11.970    844.000    734.123    109.877    689.967    733.348    690.718    689.967    689.967
 12.070    834.000    757.077     76.923    689.062    756.279    689.823    689.062    689.062
 12.170    862.000    784.367     77.633    688.162    783.544    688.932    688.162    688.162
 12.270    835.000    805.978     29.022    687.266    805.133    688.045    687.266    687.266
 12.370    879.000    808.772     70.228    686.374    807.916    687.162    686.374    686.374
 12.470    825.238    789.775     35.463    685.486    788.920    686.284    685.486    685.486
 12.570    778.000    760.808     17.192    684.601    759.959    685.409    684.601    684.601
 12.670    729.000    734.142     -5.142    683.721    733.297    684.539    683.721    683.721
 12.770    757.000    714.716     42.284    682.845    713.871    683.673    682.845    682.845
 12.870    719.000    702.380     16.620    681.972    701.531    682.811    681.972    681.972
 12.970    659.565    695.050    -35.485    681.104    694.194    681.953    681.104    681.104
 13.070    661.000    690.607    -29.607    680.240    689.743    681.099    680.240    680.240
 13.170    686.000    687.639     -1.639    679.379    686.764    680.250    679.379    679.379
 13.270    683.000    685.406     -2.406    678.523    684.521    679.404    678.523    678.523
 13.370    654.000    683.573    -29.573    677.670    682.678    678.563    677.670    677.670
 13.470    614.000    681.988    -67.988    676.822    681.082    677.726    676.822    676.822
 13.570    686.000    680.574      5.426    675.977    679.656    676.893    675.977    675.977
 13.670    697.292    679.284     18.008    675.137    678.355    676.065    675.137    675.137
 13.770    691.000    678.088     12.912    674.300    677.146    675.240    674.300    674.300
 13.870    692.000    676.966     15.034    673.467    676.012    674.420    673.467    673.467
 13.970    712.197    675.924     36.273    672.639    674.956    673.605    672.639    672.639
 14.070    707.000    674.910     32.090    671.814    673.930    672.793    671.814    671.814
 14.170    637.241    673.926    -36.686    670.993    672.933    671.986    670.993    670.993
 14.270    658.000    672.973    -14.973    670.176    671.966    671.183    670.176    670.176
 14.370    635.000    672.045    -37.045    669.364    671.024    670.384    669.364    669.364
 14.470    670.000    671.140     -1.140    668.555    670.105    669.589    668.555    668.555
 14.570    680.055    670.253      9.803    667.750    669.204    668.798    667.750    667.750
 14.670    664.000    669.383     -5.383    666.949    668.319    668.012    666.949    666.949
 14.770    659.000    668.527     -9.527    666.152    667.448    667.230    666.152    666.152
 14.870    694.388    667.685     26.704    665.359    666.590    666.452    665.359    665.359
 14.970    686.000    666.856     19.144    664.570    665.746    665.679    664.570    664.570
 15.070    641.000    666.040    -25.040    663.784    664.914    664.910    663.784    663.784
 15.170    658.000    665.230     -7.230    663.003    664.088    664.145    663.003    663.003
 15.270    623.101    664.429    -41.328    662.226    663.270    663.385    662.226    662.226
 15.370    615.683    663.637    -47.954    661.452    662.461    662.628    661.452    661.452
 15.470    652.899    662.853     -9.954    660.683    661.659    661.876    660.683    660.683
 15.570    657.000    662.076     -5.076    659.917    660.864    661.129    659.917    659.917
 15.670    606.000    661.307    -55.307    659.156    660.077    660.386    659.156    659.156
 15.770    639.000    660.545    -21.545    658.398    659.296    659.647    658.398    658.398
 15.870    692.000    659.789     32.211    657.644    658.521    658.912    657.644    657.644
 15.970    627.000    659.040    -32.040    656.895    657.752    658.182    656.895    656.895
 16.070    678.130    658.297     19.833    656.149    656.989    657.456    656.149    656.149
 16.170    650.000    657.560     -7.560    655.407    656.232    656.735    655.407    655.407
 16.270    670.469    656.829     13.640    654.669    655.480    656.018    654.669    654.669
 16.370    603.000    656.105    -53.105    653.934    654.733    655.305    653.934    653.934
 16.470    703.363    655.391     47.972    653.204    653.998    654.597    653.204    653.204
 16.570    664.000    654.679      9.321    652.478    653.263    653.894    652.478    652.478
 16.670    670.000    653.971     16.029    651.755    652.532    653.194    651.755    651.755
 16.770    632.000    653.269    -21.269    651.037    651.806    652.500    651.037    651.037
 16.870    689.000    652.573     36.427    650.322    651.085    651.810    650.322    650.322
 16.970    589.000    651.897    -62.897    649.611    650.384    651.125    649.611    649.611
 17.070    597.000    651.248    -54.248    648.904    649.708    650.445    648.904    648.904
 17.170    625.000    650.611    -25.611    648.201    649.044    649.769    648.201    648.201
 17.270    610.000    649.940    -39.940    647.502    648.345    649.097    647.502    647.502
 17.370    629.670    649.270    -19.600    646.807    647.647    648.430    646.807    646.807
 17.470    597.000    648.605    -51.605    646.116    646.954    647.767    646.116    646.116
 17.570    654.000    647.952      6.048    645.428    646.272    647.109    645.428    645.428
 17.670    628.000    647.322    -19.322    644.745    645.611    646.455    644.745    644.745
 17.770    627.000    646.675    -19.675    644.065    644.934    645.806    644.065    644.065
 17.870    628.000    646.031    -18.031    643.389    644.258    645.162    643.389    643.389
 17.970    645.000    645.392     -0.392    642.717    643.587    644.522    642.717    642.717
 18.070    627.000    644.759    -17.759    642.049    642.920    643.888    642.049    642.049
 18.170    652.741    644.131      8.610    641.384    642.257    643.258    641.384    641.384
 18.270    654.000    643.508     10.492    640.724    641.598    642.633    640.724    640.724
 18.370    696.000    642.890     53.110    640.067    640.944    642.012    640.067    640.067
 18.470    627.000    642.278    -15.278    639.414    640.295    641.397    639.414    639.414
 18.570    688.946    641.678     47.267    638.765    639.656    640.787    638.765    638.765
 18.670    634.000    641.083     -7.083    638.120    639.021    640.182    638.120    638.120
 18.770    646.000    640.488      5.512    637.478    638.385    639.581    637.478    637.478
 18.870    680.563    639.898     40.665    636.841    637.752    638.986    636.841    636.841
 18.970    612.000    639.313    -27.313    636.207    637.124    638.396    636.207    636.207
 19.070    634.000    638.733     -4.733    635.577    636.500    637.811    635.577    635.577
 19.170    644.000    638.166      5.834    634.951    635.885    637.233    634.951    634.951
 19.270    598.731    637.665    -38.934    634.328    635.316    636.677    634.328    634.328
 19.370    645.000    637.114      7.886    633.710    634.713    636.110    633.710    633.710
 19.470    654.265    636.566     17.699    633.095    634.114    635.547    633.095    633.095
 19.570    599.000    636.036    -37.036    632.484    633.531    634.989    632.484    632.484
 19.670    627.000    635.495     -8.495    631.877    632.935    634.436    631.877    631.877
 19.770    645.796    634.958     10.838    631.273    632.342    633.889    631.273    631.273
 19.870    611.000    634.429    -23.429    630.673    631.755    633.348    630.673    630.673
 19.970    666.608    633.923     32.685    630.077    631.180    632.820    630.077    630.077
 20.070    653.223    633.454     19.769    629.485    630.633    632.305    629.485    629.485
 20.170    582.000    632.973    -50.973    628.897    630.086    631.783    628.897    628.897
 20.270    593.147    632.527    -39.380    628.312    629.572    631.266    628.312    628.312
 20.370    671.256    632.048     39.207    627.731    629.024    630.755    627.731    627.731
 20.470    675.540    631.577     43.963    627.153    628.480    630.250    627.153    627.153
 20.570    646.381    631.111     15.271    626.580    627.939    629.751    626.580    626.580
 20.670    628.000    630.668     -2.668    626.010    627.419    629.259    626.010    626.010
 20.770    621.000    630.204     -9.204    625.444    626.874    628.773    625.444    625.444
 20.870    596.000    629.744    -33.744    624.881    626.331    628.294    624.881    624.881
 20.970    637.000    629.298      7.702    624.323    625.797    627.824    624.323    624.323
 21.070    622.000    628.864     -6.864    623.768    625.269    627.363    623.768    623.768
 21.170    651.029    628.435     22.594    623.216    624.745    626.906    623.216    623.216
 21.270    593.507    628.015    -34.508    622.669    624.229    626.455    622.669    622.669
 21.370    566.000    627.609    -61.609    622.125    623.721    626.012    622.125    622.125
 21.470    590.863    627.202    -36.339    621.584    623.209    625.577    621.584    621.584
 21.570    657.644    626.804     30.840    621.048    622.701    625.150    621.048    621.048
 21.670    618.000    626.416     -8.416    620.514    622.199    624.731    620.514    620.514
 21.770    620.456    626.039     -5.583    619.985    621.703    624.321    619.985    619.985
 21.870    639.449    625.674     13.775    619.459    621.214    623.920    619.459    619.459
 21.970    644.000    625.322     18.678    618.937    620.731    623.528    618.937    618.937
 22.070    641.000    624.980     16.020    618.419    620.254    623.145    618.419    618.419
 22.170    642.826    624.652     18.174    617.904    619.784    622.772    617.904    617.904
 22.270    647.000    624.339     22.661    617.393    619.322    622.410    617.393    617.393
 22.370    672.901    624.041     48.860    616.885    618.869    622.058    616.885    616.885
 22.470    637.000    623.759     13.241    616.381    618.423    621.717    616.381    616.381
 22.570    656.309    623.495     32.814    615.881    617.987    621.389    615.881    615.881
 22.670    657.000    623.254     33.746    615.384    617.565    621.073    615.384    615.384
 22.770    668.538    623.028     45.509    614.891    617.150    620.769    614.891    614.891
 22.870    656.000    622.824     33.176    614.401    616.747    620.478    614.401    614.401
 22.970    652.000    622.644     29.356    613.915    616.358    620.201    613.915    613.915
 23.070    601.000    622.492    -21.492    613.432    615.986    619.939    613.432    613.432
 23.170    595.402    622.371    -26.969    612.953    615.633    619.692    612.953    612.953
 23.270    590.000    622.285    -32.285    612.478    615.301    619.463    612.478    612.478
 23.370    638.000    622.239     15.761    612.006    614.996    619.250    612.006    612.006
 23.470    588.965    622.240    -33.275    611.538    614.723    619.055    611.538    611.538
 23.570    631.000    622.296      8.704    611.073    614.489    618.881    611.073    611.073
 23.670    576.252    622.419    -46.167    610.612    614.305    618.727    610.612    610.612
 23.770    665.000    622.624     42.376    610.154    614.183    618.595    610.154    610.154
 23.870    659.364    622.931     36.433    609.700    614.145    618.487    609.700    609.700
 23.970    580.000    623.374    -43.374    609.249    614.219    618.405    609.249    609.249
 24.070    595.030    624.002    -28.972    608.801    614.455    618.351    608.801    608.801
 24.170    645.000    624.913     20.087    608.358    614.946    618.327    608.358    608.358
 24.270    600.000    626.310    -26.310    607.917    615.896    618.335    607.917    607.917
 24.370    614.343    628.637    -14.295    607.480    617.746    618.377    607.480    607.480
 24.470    626.000    632.740     -6.740    607.047    621.337    618.458    607.047    607.047
 24.570    626.000    639.912    -13.912    606.617    627.963    618.579    606.617    606.617
 24.670    697.000    651.528     45.472    606.190    638.993    618.746    606.190    606.190
 24.770    704.579    668.000     36.579    605.767    654.838    618.962    605.767    605.767
 24.870    697.552    687.004     10.547    605.348    673.165    619.233    605.348    605.348
 24.970    723.000    701.852     21.148    604.931    687.276    619.564    604.931    604.931
 25.070    713.000    704.198      8.802    604.518    688.814    619.961    604.518    604.518
 25.170    692.398    692.611     -0.213    604.109    676.338    620.431    604.109    604.109
 25.270    662.842    674.673    -11.831    603.703    657.428    620.984    603.703    603.703
 25.370    623.043    658.196    -35.153    603.300    639.891    621.629    603.300    603.300
 25.470    639.000    646.459     -7.459    602.901    626.997    622.377    602.901    602.901
 25.570    671.716    639.502     32.214    602.505    618.774    623.241    602.505    602.505
 25.670    632.000    636.060     -4.060    602.112    613.939    624.238    602.112    602.112
 25.770    630.000    634.776     -4.776    601.723    611.117    625.385    601.723    601.723
 25.870    615.972    634.717    -18.745    601.337    609.353    626.703    601.337    601.337
 25.970    637.989    635.394      2.595    600.955    608.129    628.220    600.955    600.955
 26.070    649.000    636.602     12.398    600.575    607.207    629.970    600.575    600.575
 26.170    611.653    638.263    -26.610    600.199    606.478    631.984    600.199    600.199
 26.270    630.453    640.370     -9.917    599.827    605.887    634.308    599.827    599.827
 26.370    681.221    642.948     38.273    599.458    605.403    637.002    599.458    599.458
 26.470    654.337    646.054      8.283    599.091    605.010    640.133    599.091    599.091
 26.570    635.000    649.766    -14.766    598.729    604.701    643.791    598.729    598.729
 26.670    654.000    654.191     -0.191    598.369    604.470    648.087    598.369    598.369
 26.770    698.563    659.472     39.091    598.013    604.319    653.162    598.013    598.013
 26.870    676.000    665.801     10.199    597.660    604.253    659.204    597.660    597.660
 26.970    702.000    673.431     28.569    597.310    604.281    666.455    597.310    597.310
 27.070    675.000    682.708     -7.708    596.964    604.420    675.244    596.964    596.964
 27.170    672.919    694.103    -21.184    596.621    604.694    686.021    596.621    596.621
 27.270    720.775    708.278     12.496    596.281    605.136    699.413    596.281    596.281
 27.370    701.000    726.188    -25.188    595.944    605.799    716.321    595.944    595.944
 27.470    739.217    749.262    -10.044    595.610    606.758    738.099    595.610    595.610
 27.570    787.000    779.919      7.081    595.280    608.143    767.036    595.280    595.280
 27.670    829.000    823.480      5.520    594.953    610.240    808.163    594.953    594.953
 27.770    941.765    895.022     46.742    594.629    613.855    875.747    594.629    594.629
 27.870    986.900   1039.057    -52.157    594.308    621.357   1011.910    594.308    594.308
 27.970   1350.604   1365.904    -15.300    593.990    638.616   1321.072    593.990    593.990
 28.070   1973.000   2073.485   -100.485    593.675    676.158   1990.602    593.675    593.675
 28.170   3176.000   3363.890   -187.890    593.364    744.743   3211.858    593.364    593.364
 28.270   5206.901   5189.238     17.663    593.055    841.875   4939.583    593.055    593.055
 28.370   7038.000   6965.926     72.074    592.750    936.644   6621.260    592.750    592.750
 28.470   7729.000   7671.614     57.386    592.448    974.970   7288.639    592.448    592.448
 28.570   7019.000   6798.846    220.154    592.149    930.459   6460.384    592.149    592.149
 28.670   5239.000   5140.694     98.306    591.853    846.431   4886.090    591.853    591.853
 28.770   3976.000   3792.697    183.303    591.560    782.871   3601.346    591.560    591.560
 28.870   3268.000   3283.758    -15.758    591.270    769.329   3105.608    591.270    591.270
 28.970   3624.000   3535.975     88.025    590.984    800.778   3326.098    590.984    590.984
 29.070   4025.000   4077.944    -52.944    590.700    846.764   3821.918    590.700    590.700
 29.170   4376.000   4288.519     87.481    590.419    864.773   4014.378    590.419    590.419
 29.270   3806.000   3828.347    -22.347    590.142    831.397   3587.392    590.142    590.142
 29.370   3043.267   2960.101     83.166    589.867    767.030   2783.208    589.867    589.867
 29.470   2073.695   2107.747    -34.052    589.595    703.642   1993.887    589.595    589.595
 29.570   1535.004   1488.367     46.636    589.327    657.572   1420.231    589.327    589.327
 29.670   1132.000   1120.635     11.365    589.061    630.262   1079.488    589.061    589.061
 29.770    958.669    929.454     29.216    588.799    616.126    902.152    588.799    588.799
 29.870    885.710    833.386     52.324    588.539    609.093    812.845    588.539    588.539
 29.970    813.000    780.759     32.241    588.282    605.317    763.731    588.282    588.282
 30.070    787.097    747.330     39.766    588.028    603.006    732.356    588.028    588.028
 30.170    711.452    723.548    -12.096    587.778    601.472    709.855    587.778    587.778
 30.270    654.347    705.717    -51.371    587.530    600.483    692.764    587.530    587.530
 30.370    716.108    692.251     23.857    587.285    600.008    679.526    587.285    587.285
 30.470    664.713    682.570    -17.857    587.043    600.209    669.399    587.043    587.043
 30.570    726.000    677.004     48.996    586.803    601.560    662.241    586.803    586.803
 30.670    689.000    676.938     12.062    586.567    604.973    658.519    586.567    586.567
 30.770    689.000    684.548      4.452    586.334    611.709    659.152    586.334    586.334
 30.870    683.000    701.520    -18.520    586.103    622.734    664.853    586.103    586.103
 30.970    725.000    726.573     -1.573    585.876    637.490    674.905    585.876    585.876
 31.070    733.000    752.470    -19.470    585.651    652.384    685.668    585.651    585.651
 31.170    750.000    765.355    -15.355    585.429    660.457    690.252    585.429    585.429
 31.270    705.039    754.570    -49.531    585.209    656.361    683.353    585.209    585.209
 31.370    776.000    725.423     50.577    584.993    642.811    667.558    584.993    584.993
 31.470    684.000    691.772     -7.772    584.779    626.843    649.677    584.779    584.779
 31.570    667.000    663.474      3.526    584.569    613.470    634.555    584.569    584.569
 31.670    688.000    643.746     44.254    584.361    604.334    623.761    584.361    584.361
 31.770    711.000    631.562     79.438    584.155    598.936    616.774    584.155    584.155
 31.870    581.797    624.430    -42.633    583.953    596.027    612.352    583.953    583.953
 31.970    664.416    620.140     44.276    583.753    594.499    609.390    583.753    583.753
 32.070    580.919    617.322    -36.402    583.556    593.672    607.203    583.556    583.556
 32.170    637.000    615.302     21.698    583.362    593.213    605.448    583.362    583.362
 32.270    633.000    613.787     19.213    583.170    592.983    603.971    583.170    583.170
 32.370    608.000    612.654     -4.654    582.981    592.929    602.704    582.981    582.981
 32.470    605.000    611.850     -6.850    582.795    593.034    601.609    582.795    582.795
 32.570    646.986    611.353     35.634    582.612    593.295    600.667    582.612    582.612
 32.670    626.000    611.162     14.838    582.431    593.725    599.866    582.431    582.431
 32.770    627.000    611.294     15.706    582.253    594.344    599.200    582.253    582.253
 32.870    656.000    611.785     44.215    582.077    595.188    598.673    582.077    582.077
 32.970    677.000    612.695     64.305    581.904    596.306    598.291    581.904    581.904
 33.070    633.000    614.113     18.887    581.734    597.773    598.072    581.734    581.734
 33.170    591.000    616.180    -25.180    581.566    599.698    598.045    581.566    581.566
 33.270    598.307    619.128    -20.821    581.401    602.262    598.265    581.401    581.401
 33.370    680.000    623.403     56.597    581.239    605.804    598.834    581.239    581.239
 33.470    627.000    629.955     -2.955    581.079    611.047    599.982    581.079    581.079
 33.570    650.569    640.862      9.707    580.922    619.568    602.209    580.922    580.922
 33.670    637.000    660.291    -23.291    580.767    634.525    606.523    580.767    580.767
 33.770    695.485    695.308      0.177    580.615    661.273    614.632    580.615    580.615
 33.870    737.000    755.181    -18.181    580.465    706.838    628.782    580.465    580.465
 33.970    881.290    847.580     33.710    580.318    777.030    650.828    580.318    580.318
 34.070   1010.000    971.081     38.919    580.173    870.776    680.426    580.173    580.173
 34.170   1123.000   1105.235     17.765    580.031    972.586    712.621    580.031    580.031
 34.270   1189.440   1204.638    -15.198    579.891   1048.062    736.416    579.891    579.891
 34.370   1231.000   1218.155     12.845    579.754   1058.456    739.422    579.754    579.754
 34.470   1169.434   1136.640     32.794    579.620    996.829    719.419    579.620    579.620
 34.570    963.000   1004.887    -41.887    579.487    897.118    687.257    579.487    579.487
 34.670    852.992    874.391    -21.399    579.358    798.344    655.409    579.358    579.358
 34.770    763.000    772.188     -9.188    579.230    720.996    630.426    579.230    579.230
 34.870    688.000    703.574    -15.574    579.105    669.090    613.592    579.105    579.105
 34.970    694.000    662.301     31.699    578.983    637.893    603.392    578.983    578.983
 35.070    677.000    638.909     38.091    578.863    620.237    597.534    578.863    578.863
 35.170    630.000    625.538      4.462    578.745    610.166    594.116    578.745    578.745
 35.270    687.000    617.303     69.697    578.629    603.979    591.952    578.629    578.629
 35.370    576.642    611.689    -35.047    578.516    599.770    590.435    578.516    578.516
 35.470    624.545    607.537     17.008    578.406    596.660    589.282    578.406    578.406
 35.570    609.689    604.310      5.379    578.297    594.242    588.365    578.297    578.297
 35.670    608.000    601.734      6.266    578.191    592.307    587.618    578.191    578.191
 35.770    647.000    599.644     47.356    578.088    590.730    587.001    578.088    578.088
 35.870    595.000    597.928     -2.928    577.986    589.427    586.487    577.986    577.986
 35.970    572.457    596.510    -24.053    577.887    588.337    586.060    577.887    577.887
 36.070    591.000    595.333     -4.333    577.790    587.417    585.706    577.790    577.790
 36.170    601.000    594.356      6.644    577.696    586.633    585.418    577.696    577.696
 36.270    635.669    593.550     42.119    577.604    585.962    585.191    577.604    577.604
 36.370    598.000    592.893      5.107    577.514    585.385    585.021    577.514    577.514
 36.470    620.668    592.371     28.297    577.426    584.887    584.910    577.426    577.426
 36.570    610.000    591.976     18.024    577.340    584.458    584.858    577.340    577.340
 36.670    620.146    591.706     28.441    577.257    584.090    584.872    577.257    577.257
 36.770    544.806    591.563    -46.757    577.176    583.779    584.959    577.176    577.176
 36.870    604.000    591.558     12.442    577.097    583.523    585.131    577.097    577.097
 36.970    589.000    591.709     -2.709    577.020    583.322    585.406    577.020    577.020
 37.070    553.541    592.050    -38.508    576.945    583.185    585.809    576.945    576.945
 37.170    588.000    592.641     -4.641    576.872    583.133    586.380    576.872    576.872
 37.270    563.000    593.598    -30.598    576.802    583.216    587.183    576.802    576.802
 37.370    564.000    595.144    -31.144    576.734    583.528    588.350    576.734    576.734
 37.470    579.181    597.702    -18.521    576.668    584.222    590.146    576.668    576.668
 37.570    676.000    602.016     73.984    576.603    585.499    593.119    576.603    576.603
 37.670    644.000    609.266     34.734    576.541    587.528    598.278    576.541    576.541
 37.770    650.000    621.030     28.970    576.482    590.315    607.194    576.482    576.482
 37.870    637.000    638.875     -1.875    576.424    593.513    621.782    576.424    576.424
 37.970    665.550    663.397      2.153    576.368    596.253    643.506    576.368    576.368
 38.070    690.299    693.039     -2.740    576.314    597.352    671.994    576.314    576.314
 38.170    727.891    723.264      4.627    576.262    596.264    703.256    576.262    576.262
 38.270    699.000    745.794    -46.794    576.213    593.667    728.335    576.213    576.213
 38.370    725.483    750.214    -24.731    576.165    590.587    735.792    576.165    576.165
 38.470    686.000    732.679    -46.679    576.119    587.686    721.114    576.119    576.119
 38.570    683.994    701.460    -17.465    576.075    585.317    692.221    576.075    576.075
 38.670    654.548    668.327    -13.779    576.034    583.589    660.775    576.034    576.034
 38.770    621.021    640.519    -19.498    575.994    582.425    634.091    575.994    575.994
 38.870    639.000    620.393     18.607    575.956    581.676    614.675    575.956    575.956
 38.970    609.000    607.330      1.670    575.920    581.198    602.052    575.920    575.920
 39.070    632.000    599.451     32.549    575.886    580.888    594.449    575.886    575.886
 39.170    577.654    594.818    -17.164    575.853    580.678    589.994    575.853    575.853
 39.270    592.109    592.003      0.106    575.823    580.529    587.297    575.823    575.823
 39.370    579.000    590.154    -11.154    575.795    580.419    585.530    575.795    575.795
 39.470    579.000    588.834     -9.834    575.768    580.336    584.266    575.768    575.768
 39.570    580.851    587.830     -6.979    575.743    580.274    583.299    575.743    575.743
 39.670    566.999    587.038    -20.038    575.721    580.231    582.528    575.721    575.721
 39.770    538.630    586.401    -47.772    575.699    580.202    581.899    575.699    575.699
 39.870    622.000    585.884     36.116    575.680    580.187    581.377    575.680    575.680
 39.970    568.000    585.459    -17.459    575.663    580.183    580.939    575.663    575.663
 40.070    622.000    585.110     36.890    575.647    580.190    580.568    575.647    575.647
 40.170    606.000    584.829     21.171    575.633    580.212    580.250    575.633    575.633
 40.270    553.000    584.602    -31.602    575.621    580.247    579.976    575.621    575.621
 40.370    588.000    584.421      3.579    575.611    580.294    579.738    575.611    575.611
 40.470    543.000    584.283    -41.283    575.602    580.355    579.531    575.602    575.602
 40.570    555.000    584.183    -29.183    575.595    580.429    579.349    575.595    575.595
 40.670    545.135    584.118    -38.983    575.590    580.518    579.190    575.590    575.590
 40.770    569.612    584.086    -14.474    575.587    580.624    579.049    575.587    575.587
 40.870    543.595    584.089    -40.494    575.585    580.748    578.926    575.585    575.585
 40.970    599.000    584.126     14.874    575.585    580.893    578.817    575.585    575.585
 41.070    577.000    584.198     -7.198    575.586    581.063    578.722    575.586    575.586
 41.170    556.000    584.309    -28.309    575.589    581.260    578.639    575.589    575.589
 41.270    614.000    584.463     29.537    575.594    581.491    578.567    575.594    575.594
 41.370    556.000    584.666    -28.666    575.600    581.762    578.506    575.600    575.600
 41.470    592.554    584.927      7.627    575.609    582.082    578.454    575.609    575.609
 41.570    551.000    585.256    -34.256    575.618    582.463    578.413    575.618    575.618
 41.670    610.193    585.670     24.523    575.629    582.920    578.381    575.629    575.629
 41.770    582.000    586.193     -4.193    575.642    583.478    578.359    575.642    575.642
 41.870    580.321    586.864     -6.542    575.657    584.174    578.348    575.657    575.657
 41.970    609.000    587.754     21.246    575.672    585.077    578.352    575.672    575.672
 42.070    548.147    589.006    -40.859    575.690    586.325    578.374    575.690    575.690
 42.170    567.000    590.900    -23.900    575.709    588.187    578.425    575.709    575.709
 42.270    598.000    593.953      4.047    575.729    591.162    578.525    575.729    575.729
 42.370    561.000    599.005    -38.005    575.751    596.057    578.706    575.751    575.751
 42.470    593.000    607.197    -14.197    575.775    603.970    579.012    575.775    575.775
 42.570    590.000    619.695    -29.695    575.800    616.023    579.487    575.800    575.800
 42.670    638.000    637.118      0.882    575.826    632.813    580.154    575.826    575.826
 42.770    702.353    658.686     43.667    575.854    653.588    580.985    575.854    575.854
 42.870    620.000    681.246    -61.246    575.883    675.317    581.857    575.883    575.883
 42.970    678.000    698.703    -20.703    575.914    692.135    582.536    575.914    575.914
 43.070    668.607    703.868    -35.261    575.946    697.129    582.746    575.946    575.946
 43.170    692.000    694.045     -2.045    575.979    687.699    582.383    575.979    575.979
 43.270    698.763    674.040     24.723    576.014    668.472    581.631    576.014    576.014
 43.370    645.000    651.316     -6.316    576.050    646.626    580.778    576.050    576.050
 43.470    655.000    631.048     23.952    576.088    627.141    580.021    576.088    576.088
 43.570    637.000    615.452     21.548    576.127    612.149    579.447    576.127    576.127
 43.670    643.841    604.702     39.139    576.167    601.819    579.063    576.167    576.167
 43.770    588.022    597.896     -9.874    576.209    595.280    578.832    576.209    576.209
 43.870    614.000    593.814     20.186    576.252    591.361    578.709    576.252    576.252
 43.970    646.000    591.397     54.603    576.296    589.044    578.653    576.296    576.296
 44.070    622.000    589.921     32.079    576.341    587.630    578.635    576.341    576.341
 44.170    625.000    588.964     36.036    576.388    586.713    578.640    576.388    576.388
 44.270    617.000    588.304     28.696    576.436    586.082    578.660    576.436    576.436
 44.370    555.904    587.831    -31.927    576.485    585.629    578.689    576.485    576.485
 44.470    599.000    587.490     11.510    576.535    585.301    578.725    576.535    576.535
 44.570    619.000    587.246     31.754    576.587    585.066    578.769    576.587    576.587
 44.670    601.000    587.081     13.919    576.640    584.904    578.818    576.640    576.640
 44.770    549.625    586.979    -37.355    576.694    584.802    578.872    576.694    576.694
 44.870    600.000    586.930     13.070    576.749    584.749    578.931    576.749    576.749
 44.970    609.831    586.926     22.905    576.805    584.737    578.995    576.805    576.805
 45.070    562.576    586.961    -24.385    576.863    584.762    579.063    576.863    576.863
 45.170    608.000    587.032     20.968    576.922    584.818    579.136    576.922    576.922
 45.270    556.364    587.133    -30.770    576.981    584.902    579.213    576.981    576.981
 45.370    549.197    587.265    -38.068    577.042    585.013    579.294    577.042    577.042
 45.470    581.000    587.424     -6.424    577.104    585.148    579.380    577.104    577.104
 45.570    555.000    587.610    -32.610    577.167    585.307    579.470    577.167    577.167
 45.670    594.000    587.823      6.177    577.231    585.489    579.565    577.231    577.231
 45.770    589.000    588.062      0.938    577.297    585.694    579.665    577.297    577.297
 45.870    614.000    588.329     25.671    577.363    585.922    579.770    577.363    577.363
 45.970    574.000    588.625    -14.625    577.430    586.174    579.881    577.430    577.430
 46.070    545.000    588.951    -43.951    577.499    586.452    579.997    577.499    577.499
 46.170    596.000    589.310      6.690    577.568    586.757    580.120    577.568    577.568
 46.270    580.000    589.704     -9.704    577.638    587.092    580.249    577.638    577.638
 46.370    580.588    590.138     -9.550    577.709    587.460    580.386    577.709    577.709
 46.470    582.000    590.616     -8.616    577.782    587.865    580.531    577.782    577.782
 46.570    615.315    591.144     24.170    577.855    588.313    580.685    577.855    577.855
 46.670    597.000    591.731      5.269    577.929    588.809    580.850    577.929    577.929
 46.770    633.076    592.386     40.690    578.004    589.363    581.026    578.004    578.004
 46.870    567.000    593.124    -26.124    578.080    589.987    581.216    578.080    578.080
 46.970    577.683    593.965    -16.282    578.157    590.699    581.421    578.157    578.157
 47.070    629.000    594.943     34.057    578.235    591.528    581.647    578.235    578.235
 47.170    581.000    596.118    -15.118    578.314    592.528    581.901    578.314    578.314
 47.270    600.000    597.603      2.397    578.393    593.799    582.194    578.393    578.393
 47.370    601.000    599.609      1.391    578.474    595.528    582.550    578.474    578.474
 47.470    615.695    602.487     13.208    578.555    598.028    583.007    578.555    578.555
 47.570    577.445    606.769    -29.324    578.637    601.775    583.622    578.637    578.637
 47.670    645.000    613.125     31.875    578.720    607.363    584.468    578.720    578.720
 47.770    609.000    622.204    -13.204    578.804    615.374    585.614    578.804    578.804
 47.870    616.000    634.339    -18.339    578.888    626.102    587.099    578.888    578.888
 47.970    617.000    649.141    -32.141    578.973    639.197    588.881    578.973    578.973
 48.070    676.222    665.046     11.176    579.059    653.259    590.799    579.059    579.059
 48.170    681.000    678.949      2.051    579.146    665.515    592.526    579.146    579.146
 48.270    698.000    686.742     11.258    579.234    672.286    593.631    579.234    579.234
 48.370    722.000    685.783     36.217    579.322    671.211    593.839    579.322    579.322
 48.470    705.000    677.271     27.729    579.411    663.354    593.282    579.411    579.411
 48.570    684.000    665.070     18.930    579.501    652.159    592.374    579.501    579.501
 48.670    659.862    652.912      6.950    579.591    640.954    591.521    579.591    579.591
 48.770    613.363    643.105    -29.741    579.682    631.790    590.977    579.682    579.682
 48.870    622.000    636.610    -14.610    579.774    625.513    590.857    579.774    579.774
 48.970    680.958    633.488     47.469    579.866    622.159    591.185    579.866    579.866
 49.070    620.620    633.335    -12.715    579.959    621.344    591.942    579.959    579.959
 49.170    635.000    635.660     -0.660    580.053    622.598    593.108    580.053    580.053
 49.270    633.356    640.159     -6.802    580.147    625.596    594.703    580.147    580.147
 49.370    689.000    646.936     42.064    580.242    630.339    596.832    580.242    580.242
 49.470    675.607    656.865     18.742    580.337    637.406    599.789    580.337    580.337
 49.570    655.000    672.395    -17.395    580.433    648.524    604.295    580.433    580.433
 49.670    707.000    699.174      7.826    580.530    667.725    611.965    580.530    580.530
 49.770    773.000    748.558     24.442    580.627    703.134    626.026    580.627    580.627
 49.870    865.336    840.059     25.277    580.725    768.722    652.017    580.725    580.725
 49.970    981.000   1001.091    -20.091    580.823    884.119    697.717    580.823    580.823
 50.070   1250.000   1260.278    -10.278    580.922   1069.829    771.246    580.922    580.922
 50.170   1557.000   1632.348    -75.348    581.021   1336.432    876.756    581.021    581.021
 50.270   2041.526   2098.200    -56.674    581.121   1670.330   1008.761    581.121    581.121
 50.370   2570.000   2589.505    -19.505    581.221   2022.390   1148.088    581.221    581.221
 50.470   2906.000   2986.579    -80.579    581.321   2307.016   1260.672    581.321    581.321
 50.570   3054.523   3151.925    -97.401    581.423   2425.764   1307.470    581.423    581.423
 50.670   2962.577   3015.662    -53.085    581.524   2328.598   1268.609    581.524    581.524
 50.770   2595.000   2637.973    -42.973    581.626   2058.645   1161.086    581.626    581.626
 50.870   2166.000   2154.014     11.986    581.728   1712.781   1023.147    581.728    581.728
 50.970   1634.000   1687.071    -53.071    581.831   1379.431    889.660    581.831    581.831
 51.070   1250.740   1311.198    -60.458    581.934   1111.757    781.534    581.934    581.934
 51.170   1088.277   1049.800     38.476    582.038    926.586    705.370    582.038    582.038
 51.270   1006.000    890.345    115.655    582.142    814.865    657.704    582.142    582.142
 51.370    852.000    804.035     47.965    582.246    755.673    630.667    582.246    582.246
 51.470    839.000    761.354     77.646    582.351    727.286    616.463    582.351    582.351
 51.570    777.000    739.737     37.263    582.456    712.744    609.486    582.456    582.456
 51.670    752.184    725.474     26.710    582.561    701.554    606.512    582.561    582.561
 51.770    752.163    712.762     39.402    582.666    689.463    605.990    582.666    582.666
 51.870    702.000    700.897      1.103    582.772    676.469    607.218    582.772    582.772
 51.970    703.485    690.906     12.579    582.878    664.069    609.724    582.878    582.878
 52.070    633.928    683.464    -49.536    582.985    653.553    612.898    582.985    582.985
 52.170    680.000    678.287      1.713    583.091    645.551    615.825    583.091    583.091
 52.270    704.184    674.322     29.863    583.198    640.135    617.379    583.198    583.198
 52.370    645.841    670.433    -24.592    583.305    637.035    616.696    583.305    583.305
 52.470    696.000    666.215     29.785    583.413    635.858    613.764    583.413    583.413
 52.570    687.000    662.162     24.838    583.520    636.276    609.401    583.520    583.520
 52.670    698.834    659.188     39.645    583.628    638.146    604.667    583.628    583.628
 52.770    685.000    658.260     26.740    583.736    641.621    600.373    583.736    583.736
 52.870    623.109    660.399    -37.289    583.844    647.277    596.964    583.844    583.844
 52.970    623.913    666.939    -43.026    583.952    656.318    594.571    583.952    583.952
 53.070    690.339    679.897     10.442    584.061    670.827    593.129    584.061    584.061
 53.170    713.000    702.262     10.738    584.169    693.932    592.497    584.169    584.169
 53.270    749.916    737.953     11.963    584.278    729.676    592.551    584.278    584.278
 53.370    788.000    791.150     -3.150    584.387    782.314    593.216    584.387    584.387
 53.470    863.000    864.876     -1.876    584.495    854.914    594.448    584.495    584.495
 53.570    991.262    958.967     32.295    584.604    947.378    596.182    584.604    584.604
 53.670   1066.195   1067.756     -1.561    584.713   1054.207    598.252    584.713    584.713
 53.770   1152.000   1177.711    -25.711    584.822   1162.232    600.293    584.822    584.822
 53.870   1231.560   1266.655    -35.095    584.932   1249.552    602.031    584.932    584.932
 53.970   1281.000   1308.174    -27.174    585.041   1290.386    602.835    585.041    585.041
 54.070   1257.000   1287.194    -30.194    585.150   1269.978    602.381    585.150    585.150
 54.170   1179.000   1212.136    -33.136    585.259   1196.578    600.840    585.259    585.259
 54.270   1135.000   1107.427     27.573    585.368   1094.114    598.706    585.368    585.368
 54.370    955.000    997.466    -42.466    585.478    986.489    596.478    585.478    585.478
 54.470    869.000    898.605    -29.605    585.587    889.725    594.487    585.587    585.587
 54.570    830.621    818.840     11.781    585.696    811.656    592.895    585.696    585.696
 54.670    766.000    759.873      6.127    585.805    753.952    591.737    585.805    585.805
 54.770    744.000    719.436     24.564    585.914    714.393    590.964    585.914    585.914
 54.870    714.000    693.431     20.569    586.023    688.965    590.494    586.023    586.023
 54.970    727.628    677.575     50.053    586.132    673.473    590.237    586.132    586.132
 55.070    688.636    668.345     20.291    586.241    664.465    590.122    586.241    586.241
 55.170    648.000    663.271    -15.271    586.350    659.524    590.098    586.350    586.350
 55.270    620.773    660.831    -40.058    586.458    657.156    590.133    586.458    586.458
 55.370    675.000    660.182     14.818    586.567    656.538    590.211    586.567    586.567
 55.470    692.403    660.911     31.492    586.675    657.263    590.323    586.675    586.675
 55.570    688.000    662.856     25.144    586.783    659.174    590.466    586.783    586.783
 55.670    661.000    666.012     -5.012    586.891    662.263    590.639    586.891    586.891
 55.770    634.000    670.502    -36.502    586.999    666.654    590.846    586.999    586.999
 55.870    634.000    676.621    -42.621    587.107    672.632    591.094    587.107    587.107
 55.970    638.136    684.961    -46.825    587.214    680.777    591.397    587.214    587.214
 56.070    724.000    696.669     27.331    587.322    692.207    591.781    587.322    587.322
 56.170    692.711    713.891    -21.180    587.429    709.019    592.295    587.429    587.429
 56.270    716.421    740.415    -23.994    587.535    734.915    593.027    587.535    587.535
 56.370    793.000    782.386     10.614    587.642    775.895    594.119    587.642    587.642
 56.470    814.000    848.750    -34.750    587.748    840.698    595.777    587.748    587.748
 56.570    887.000    950.849    -63.849    587.855    940.405    598.261    587.855    587.855
 56.670   1026.000   1100.521    -74.521    587.960   1086.585    601.845    587.960    587.960
 56.770   1211.000   1306.408    -95.408    588.066   1287.679    606.729    588.066    588.066
 56.870   1510.439   1568.838    -58.399    588.171   1544.013    612.920    588.171    588.171
 56.970   1904.690   1874.341     30.348    588.276   1842.433    620.110    588.276    588.276
 57.070   2216.000   2190.928     25.072    588.381   2151.689    627.565    588.381    588.381
 57.170   2419.000   2466.304    -47.304    588.485   2420.694    634.083    588.485    588.485
 57.270   2601.514   2635.913    -34.400    588.589   2586.374    638.181    588.589    588.589
 57.370   2696.000   2649.297     46.703    588.693   2599.411    638.701    588.693    588.693
 57.470   2504.880   2502.234      2.646    588.796   2455.656    635.548    588.796    588.796
 57.570   2263.715   2240.131     23.584    588.899   2199.452    629.772    588.899    588.899
 57.670   1963.000   1927.939     35.061    589.001   1894.252    622.873    589.001    589.001
 57.770   1691.629   1620.834     70.795    589.103   1593.962    616.135    589.103    589.103
 57.870   1370.029   1353.900     16.129    589.205   1332.836    610.395    589.205    589.205
 57.970   1104.000   1143.273    -39.273    589.306   1126.591    606.080    589.306    589.306
 58.070   1003.000    990.778     12.222    589.407    976.901    603.346    589.407    589.407
 58.170    851.876    889.545    -37.669    589.508    876.854    602.236    589.508    589.508
 58.270    809.000    829.439    -20.439    589.608    816.218    602.847    589.608    589.608
 58.370    785.000    801.146    -16.146    589.707    785.429    605.427    589.707    589.707
 58.470    800.000    798.285      1.715    589.806    777.696    610.385    589.806    589.806
 58.570    829.000    817.567     11.433    589.905    789.310    618.138    589.905    589.905
 58.670    810.000    857.639    -47.639    590.003    818.748    628.859    590.003    590.003
 58.770    971.965    917.275     54.690    590.101    865.173    642.157    590.101    590.101
 58.870   1055.747    993.538     62.209    590.198    926.854    656.830    590.198    590.198
 58.970   1055.165   1080.369    -25.204    590.294    999.828    670.782    590.294    590.294
 59.070   1150.000   1168.292    -18.292    590.390   1077.346    681.292    590.390    590.390
 59.170   1257.000   1246.401     10.599    590.486   1150.973    685.886    590.486    590.486
 59.270   1269.000   1306.282    -37.282    590.581   1213.215    683.640    590.581    590.581
 59.370   1365.000   1343.703     21.297    590.675   1258.691    675.700    590.675    590.675
 59.470   1313.266   1356.392    -43.126    590.769   1282.858    664.335    590.769    590.769
 59.570   1275.000   1343.669    -68.669    590.862   1282.817    651.758    590.862    590.862
 59.670   1303.806   1310.450     -6.644    590.955   1261.767    639.681    590.955    590.955
 59.770   1285.039   1268.929     16.110    591.047   1230.757    629.245    591.047    591.047
 59.870   1200.691   1233.788    -33.097    591.139   1203.940    620.982    591.139    591.139
 59.970   1226.000   1216.420      9.580    591.230   1192.743    614.860    591.230    591.230
 60.070   1260.516   1223.095     37.421    591.320   1203.820    610.501    591.320    591.320
 60.170   1244.000   1256.325    -12.325    591.409   1240.155    607.437    591.409    591.409
 60.270   1362.859   1315.844     47.015    591.498   1301.865    605.286    591.498    591.498
 60.370   1424.384   1396.684     27.700    591.586   1384.244    603.793    591.586    591.586
 60.470   1474.000   1486.251    -12.251    591.674   1474.864    602.796    591.674    591.674
 60.570   1540.000   1563.714    -23.714    591.761   1553.013    602.185    591.761    591.761
 60.670   1549.000   1604.038    -55.038    591.847   1593.734    601.888    591.847    591.847
 60.770   1589.695   1587.969      1.726    591.933   1577.819    601.853    591.933    591.933
 60.870   1556.586   1513.033     43.553    592.017   1502.819    602.051    592.017    592.017
 60.970   1407.697   1394.774     12.923    592.102   1384.278    602.463    592.102    592.102
 61.070   1271.361   1256.921     14.441    592.185   1245.917    603.094    592.185    592.185
 61.170   1123.000   1121.134      1.866    592.267   1109.359    603.978    592.267    592.267
 61.270    990.000   1002.563    -12.563    592.349    989.668    605.200    592.349    592.349
 61.370    944.508    909.508     35.000    592.430    894.972    606.933    592.430    592.430
 61.470    889.809    844.801     45.008    592.511    827.785    609.495    592.511    592.511
 61.570    842.069    807.988     34.081    592.590    787.126    613.417    592.590    592.590
 61.670    790.000    797.677     -7.677    592.669    770.797    619.504    592.669    592.669
 61.770    847.000    813.350     33.650    592.747    777.181    628.854    592.747    592.747
 61.870    832.000    856.084    -24.084    592.824    806.049    642.775    592.824    592.824
 61.970    960.112    927.974     32.138    592.901    858.221    662.539    592.901    592.901
 62.070   1074.000   1030.420     43.580    592.976    934.257    688.990    592.976    592.976
 62.170   1102.000   1161.765    -59.765    593.051   1032.605    722.025    593.051    593.051
 62.270   1258.483   1314.944    -56.461    593.125   1147.746    760.101    593.125    593.125
 62.370   1510.000   1475.689     34.311    593.198   1268.784    799.855    593.198    593.198
 62.470   1529.000   1621.833    -92.833    593.270   1378.879    835.968    593.270    593.270
 62.570   1663.000   1725.291    -62.291    593.341   1456.722    861.668    593.341    593.341
 62.670   1701.000   1760.090    -59.090    593.412   1482.613    870.680    593.412    593.412
 62.770   1702.000   1715.870    -13.870    593.481   1448.679    860.506    593.481    593.481
 62.870   1642.660   1604.956     37.705    593.550   1364.242    834.141    593.550    593.550
 62.970   1455.513   1454.119      1.394    593.617   1249.574    798.077    593.617    593.617
 63.070   1341.953   1291.067     50.885    593.684   1125.663    759.032    593.684    593.684
 63.170   1099.877   1137.010    -37.133    593.750   1008.571    722.153    593.750    593.750
 63.270    997.595   1005.041     -7.446    593.815    908.215    690.617    593.815    593.815
 63.370    874.000    900.873    -26.873    593.879    828.919    665.815    593.879    593.879
 63.470    854.000    824.486     29.514    593.942    770.665    647.749    593.942    593.942
 63.570    777.000    772.239      4.761    594.004    730.689    635.540    594.004    594.004
 63.670    792.000    738.983     53.017    594.065    705.089    627.946    594.065    594.065
 63.770    728.000    719.721      8.279    594.126    690.071    623.760    594.126    594.126
 63.870    770.000    710.612     59.388    594.185    682.715    622.065    594.185    594.185
 63.970    742.598    709.417     33.181    594.243    681.284    622.355    594.243    594.243
 64.070    764.890    715.533     49.357    594.300    685.232    624.576    594.300    594.300
 64.170    744.000    729.776     14.224    594.356    694.980    629.120    594.356    594.356
 64.270    794.706    754.134     40.572    594.412    711.675    636.827    594.412    594.412
 64.370    789.000    791.336     -2.336    594.466    736.808    648.935    594.466    594.466
 64.470    857.000    844.216     12.784    594.519    771.717    666.939    594.519    594.519
 64.570    874.000    914.845    -40.845    594.571    816.998    692.316    594.571    594.571
 64.670   1040.000   1003.462     36.538    594.622    871.857    726.096    594.622    594.622
 64.770   1071.368   1107.311    -35.943    594.672    933.495    768.328    594.672    594.672
 64.870   1211.384   1219.607     -8.223    594.721    996.612    817.531    594.721    594.721
 64.970   1389.000   1329.045     59.955    594.769   1053.370    870.239    594.769    594.769
 65.070   1481.000   1420.755     60.245    594.815   1094.582    920.779    594.815    594.815
 65.170   1517.000   1479.515     37.485    594.861   1112.626    961.550    594.861    594.861
 65.270   1472.513   1494.493    -21.981    594.906   1104.721    984.503    594.906    594.906
 65.370   1420.929   1463.300    -42.372    594.949   1073.968    984.141    594.949    594.949
 65.470   1389.000   1393.181     -4.181    594.991   1027.615    960.456    594.991    594.991
 65.570   1336.000   1298.203     37.797    595.033    974.183    918.988    595.033    595.033
 65.670   1224.000   1193.875     30.125    595.073    921.031    867.881    595.073    595.073
 65.770   1129.904   1092.682     37.221    595.112    873.008    814.775    595.112    595.112
 65.870    981.647   1002.357    -20.709    595.150    832.203    765.309    595.150    595.150
 65.970    940.000    926.203     13.797    595.186    798.524    722.882    595.186    595.186
 66.070    854.912    864.463     -9.550    595.222    770.791    688.913    595.222    595.222
 66.170    787.000    815.852    -28.852    595.256    747.826    663.302    595.256    595.256
 66.270    781.374    778.569      2.805    595.290    728.905    644.970    595.290    595.290
 66.370    739.000    750.697    -11.697    595.322    713.639    632.392    595.322    595.322
 66.470    703.000    730.385    -27.385    595.352    701.733    624.013    595.352    595.352
 66.570    738.322    716.021     22.301    595.382    692.907    618.500    595.382    595.382
 66.670    638.000    706.337    -68.337    595.411    686.904    614.845    595.411    595.411
 66.770    654.000    700.425    -46.425    595.438    683.508    612.354    595.438    595.438
 66.870    701.000    697.689      3.311    595.464    682.565    610.586    595.464    595.464
 66.970    720.000    697.825     22.175    595.489    684.028    609.283    595.489    595.489
 67.070    693.000    700.852     -7.852    595.512    688.061    608.301    595.512    595.512
 67.170    669.000    707.230    -38.230    595.535    695.189    607.573    595.535    595.535
 67.270    698.000    718.044    -20.044    595.556    706.517    607.078    595.556    595.556
 67.370    754.000    735.251     18.749    595.576    723.986    606.835    595.576    595.576
 67.470    757.000    761.942     -4.942    595.594    750.627    606.900    595.594    595.594
 67.570    833.390    802.510     30.880    595.612    790.745    607.364    595.612    595.612
 67.670    894.927    862.597     32.330    595.628    849.857    608.349    595.628    595.628
 67.770    948.682    948.619      0.063    595.642    934.238    609.999    595.642    595.642
 67.870   1006.000   1066.748    -60.748    595.656   1049.921    612.454    595.656    595.656
 67.970   1196.000   1221.331    -25.331    595.668   1201.158    615.810    595.668    595.668
 68.070   1360.000   1412.937    -52.937    595.679   1388.512    620.078    595.679    595.679
 68.170   1571.671   1636.363    -64.692    595.689   1606.911    625.128    595.689    595.689
 68.270   1881.315   1878.936      2.379    595.697   1843.989    630.657    595.697    595.697
 68.370   2118.000   2119.377     -1.377    595.704   2078.977    636.157    595.704    595.704
 68.470   2367.629   2327.880     39.749    595.710   2282.777    640.918    595.710    595.710
 68.570   2401.562   2469.629    -68.068    595.714   2421.398    644.113    595.714    595.714
 68.670   2605.000   2514.785     90.215    595.718   2465.696    645.032    595.718    595.718
 68.770   2566.000   2452.488    113.512    595.719   2405.059    643.414    595.719    595.719
 68.870   2311.000   2297.297     13.703    595.720   2253.693    639.604    595.720    595.720
 68.970   2170.000   2080.893     89.107    595.719   2042.531    634.352    595.719    595.719
 69.070   1833.000   1837.915     -4.915    595.716   1805.398    628.479    595.716    595.716
 69.170   1601.000   1596.949      4.051    595.713   1570.211    622.662    595.713    595.713
 69.270   1433.000   1377.824     55.176    595.708   1356.333    617.370    595.708    595.708
 69.370   1125.415   1191.873    -66.458    595.701   1174.835    612.873    595.701    595.701
 69.470    985.029   1043.207    -58.178    595.694   1029.734    609.266    595.694    595.694
 69.570    935.000    930.476      4.524    595.685    919.714    606.518    595.685    595.685
 69.670    945.000    848.875     96.125    595.674    840.085    604.514    595.674    595.674
 69.770    745.972    792.061    -46.089    595.662    784.654    603.103    595.662    595.662
 69.870    772.000    753.641     18.359    595.649    747.179    602.134    595.649    595.649
 69.970    768.296    728.097     40.199    595.634    722.272    601.474    595.634    595.634
 70.070    765.000    711.164     53.836    595.618    705.770    601.022    595.618    595.618
 70.170    719.000    699.828     19.172    595.601    694.732    600.704    595.601    595.601
 70.270    715.000    692.123     22.877    595.582    687.228    600.481    595.582    595.582
 70.370    709.000    686.830     22.170    595.561    682.074    600.320    595.561    595.561
 70.470    690.000    683.244      6.756    595.540    678.580    600.204    595.540    595.540
 70.570    707.000    680.984     26.016    595.516    676.374    600.125    595.516    595.516
 70.670    680.418    679.875      0.543    595.492    675.285    600.079    595.492    595.492
 70.770    716.643    679.889     36.754    595.466    675.285    600.066    595.466    595.466
 70.870    688.000    681.134      6.866    595.438    676.476    600.090    595.438    595.438
 70.970    680.000    683.887     -3.887    595.409    679.127    600.161    595.409    595.409
 71.070    682.000    688.667     -6.667    595.379    683.739    600.295    595.379    595.379
 71.170    682.000    696.341    -14.341    595.347    691.151    600.521    595.347    595.347
 71.270    717.662    708.261      9.402    595.313    702.672    600.882    595.313    595.313
 71.370    772.846    726.397     46.448    595.279    720.209    601.440    595.279    595.279
 71.470    805.078    753.424     51.653    595.242    746.349    602.280    595.242    595.242
 71.570    771.000    792.678    -21.678    595.205    784.323    603.508    595.205    595.205
 71.670    854.000    847.924      6.076    595.165    837.773    605.244    595.165    595.165
 71.770    968.935    922.847     46.088    595.125    910.271    607.605    595.125    595.125
 71.870    996.751   1020.289    -23.538    595.083   1004.564    610.682    595.083    595.083
 71.970   1145.903   1141.269      4.634    595.039   1121.641    614.509    595.039    595.039
 72.070   1310.000   1283.956     26.044    594.994   1259.729    619.028    594.994    594.994
 72.170   1391.271   1442.734    -51.463    594.947   1413.392    624.063    594.947    594.947
 72.270   1638.348   1607.485     30.863    594.899   1572.831    629.299    594.899    594.899
 72.370   1811.519   1763.260     48.259    594.849   1723.575    634.263    594.849    594.849
 72.470   1901.000   1890.963     10.037    594.798   1847.131    638.356    594.798    594.798
 72.570   1863.000   1970.367   -107.367    594.745   1923.912    640.942    594.745    594.745
 72.670   1911.506   1986.277    -74.771    594.691   1939.197    641.543    594.691    594.691
 72.770   1885.000   1935.254    -50.254    594.635   1889.648    640.051    594.635    594.635
 72.870   1884.844   1827.457     57.387    594.578   1785.095    636.790    594.578    594.578
 72.970   1680.000   1681.706     -1.706    594.519   1643.760    632.352    594.519    594.519
 73.070   1481.000   1518.311    -37.311    594.459   1485.316    627.372    594.459    594.459
 73.170   1351.000   1354.405     -3.405    594.397   1326.364    622.380    594.397    594.397
 73.270   1270.192   1202.360     67.832    594.334   1178.903    617.752    594.334    594.334
 73.370   1013.000   1069.799    -56.799    594.269   1050.335    613.706    594.269    594.269
 73.470    902.000    960.191    -58.191    594.202    944.039    610.335    594.202    594.202
 73.570    864.000    873.715     -9.715    594.134    860.198    607.638    594.134    594.134
 73.670    770.137    808.272    -38.135    594.065    796.768    605.557    594.065    594.065
 73.770    765.000    760.505      4.495    593.993    750.477    604.012    593.993    593.993
 73.870    703.000    726.669    -23.669    593.921    717.663    602.919    593.921    593.921
 73.970    661.342    703.254    -41.912    593.847    694.892    602.202    593.847    593.847
 74.070    707.000    687.340     19.660    593.771    679.300    601.806    593.771    593.771
 74.170    690.256    676.715     13.541    593.693    668.711    601.695    593.693    593.693
 74.270    704.088    669.835     34.252    593.615    661.594    601.855    593.615    593.615
 74.370    642.303    665.692    -23.388    593.534    656.943    602.284    593.534    593.534
 74.470    675.497    663.650     11.848    593.452    654.123    602.984    593.452    593.452
 74.570    664.000    663.301      0.699    593.369    652.728    603.951    593.369    593.369
 74.670    691.000    664.339     26.661    593.283    652.470    605.166    593.283    593.283
 74.770    652.000    666.466    -14.466    593.197    653.095    606.587    593.197    593.197
 74.870    675.000    669.335      5.665    593.108    654.328    608.140    593.108    593.108
 74.970    695.000    672.503     22.497    593.018    655.834    609.719    593.018    593.018
 75.070    727.000    675.431     51.569    592.927    657.211    611.183    592.927    592.927
 75.170    708.000    677.520     30.480    592.834    658.019    612.375    592.834    592.834
 75.270    655.472    678.252    -22.780    592.739    657.873    613.161    592.739    592.739
 75.370    744.000    677.388     66.612    592.643    656.581    613.491    592.643    592.643
 75.470    700.000    675.105     24.895    592.545    654.247    613.442    592.545    592.545
 75.570    654.425    671.964    -17.539    592.446    651.236    613.208    592.446    592.446
 75.670    705.000    668.748     36.252    592.345    648.056    613.066    592.345    592.345
 75.770    700.000    666.321     33.679    592.242    645.251    613.334    592.242    592.242
 75.870    698.000    665.565     32.435    592.138    643.354    614.363    592.138    592.138
 75.970    629.468    667.376    -37.908    592.033    642.876    616.538    592.033    592.033
 76.070    678.575    672.660      5.915    591.925    644.310    620.271    591.925    591.925
 76.170    664.000    682.310    -18.310    591.816    648.120    625.993    591.816    591.816
 76.270    724.000    697.138     26.862    591.706    654.712    634.108    591.706    591.706
 76.370    697.000    717.762    -20.762    591.594    664.382    644.938    591.594    591.594
 76.470    730.000    744.458    -14.458    591.480    677.247    658.641    591.480    591.480
 76.570    735.000    776.985    -41.985    591.365    693.163    675.124    591.365    591.365
 76.670    836.000    814.419     21.581    591.248    711.639    693.951    591.248    591.248
 76.770    830.000    855.004    -25.004    591.129    731.767    714.275    591.129    591.129
 76.870    879.000    896.053    -17.053    591.009    752.175    734.785    591.009    591.009
 76.970    974.202    933.932     40.270    590.888    771.012    753.696    590.888    590.888
 77.070    941.897    964.279    -22.383    590.764    786.065    768.863    590.764    590.764
 77.170   1000.823    982.699     18.124    590.640    795.105    778.120    590.640    590.640
 77.270    994.000    986.014      7.986    590.513    796.518    779.901    590.513    590.513
 77.370   1057.000    973.520     83.480    590.385    789.946    773.862    590.385    590.385
 77.470    895.776    947.328    -51.552    590.255    776.457    761.043    590.255    590.255
 77.570    866.000    911.426    -45.426    590.124    758.063    743.417    590.124    590.124
 77.670    844.000    870.304    -26.304    589.991    737.034    723.204    589.991    589.991
 77.770    786.000    827.952    -41.952    589.857    715.389    702.375    589.857    589.857
 77.870    807.000    787.449     19.551    589.721    694.682    682.452    589.721    589.721
 77.970    696.000    750.892    -54.892    589.583    675.975    664.473    589.583    589.583
 78.070    676.000    719.479    -43.479    589.444    659.872    649.030    589.444    589.444
 78.170    661.442    693.639    -32.197    589.303    646.590    636.337    589.303    589.303
 78.270    642.000    673.209    -31.209    589.161    636.045    626.312    589.161    589.161
 78.370    638.056    657.619    -19.563    589.017    627.949    618.677    589.017    589.017
 78.470    626.000    646.089    -20.089    588.871    621.906    613.046    588.871    588.871
 78.570    631.137    637.781     -6.645    588.724    617.491    609.007    588.724    588.724
 78.670    603.612    631.914    -28.302    588.575    614.309    606.175    588.575    588.575
 78.770    605.716    627.827    -22.111    588.425    612.023    604.224    588.425    588.425
 78.870    650.000    625.005     24.995    588.273    610.372    602.901    588.273    588.273
 78.970    579.000    623.071    -44.071    588.119    609.165    602.020    588.119    588.119
 79.070    613.000    621.767     -8.767    587.964    608.270    601.457    587.964    587.964
 79.170    576.979    620.929    -43.950    587.807    607.602    601.131    587.807    587.807
 79.270    611.000    620.463     -9.463    587.649    607.112    600.996    587.649    587.649
 79.370    604.000    620.325    -16.325    587.489    606.775    601.035    587.489    587.489
 79.470    602.000    620.513    -18.513    587.328    606.586    601.250    587.328    587.328
 79.570    555.000    621.057    -66.057    587.165    606.553    601.664    587.165    587.165
 79.670    666.042    622.026     44.016    587.000    606.696    602.326    587.000    587.000
 79.770    598.210    623.536    -25.326    586.834    607.046    603.318    586.834    586.834
 79.870    587.000    625.759    -38.759    586.666    607.648    604.772    586.666    586.666
 79.970    595.520    628.957    -33.436    586.497    608.559    606.887    586.497    586.497
 80.070    594.000    633.501    -39.501    586.326    609.854    609.964    586.326    586.326
 80.170    676.767    639.917     36.849    586.153    611.632    614.428    586.153    586.153
 80.270    648.064    648.912     -0.848    585.979    614.018    620.859    585.979    585.979
 80.370    639.000    661.391    -22.391    585.804    617.171    630.006    585.804    585.804
 80.470    654.559    678.455    -23.896    585.627    621.286    642.772    585.627    585.627
 80.570    676.000    701.333    -25.333    585.448    626.587    660.164    585.448    585.448
 80.670    749.236    731.278     17.959    585.268    633.321    683.187    585.268    585.268
 80.770    752.762    769.393    -16.631    585.086    641.738    712.696    585.086    585.086
 80.870    781.218    816.433    -35.216    584.903    652.081    749.201    584.903    584.903
 80.970    904.000    872.566     31.434    584.718    664.557    792.665    584.718    584.718
 81.070    955.000    937.115     17.885    584.531    679.288    842.290    584.531    584.531
 81.170   1049.000   1008.319     40.681    584.343    696.236    896.354    584.343    584.343
 81.270   1052.595   1083.156    -30.561    584.154    715.119    952.116    584.154    584.154
 81.370   1210.000   1157.336     52.664    583.963    735.366   1005.862    583.963    583.963
 81.470   1337.000   1225.577    111.423    583.770    756.112   1053.171    583.770    583.770
 81.570   1300.000   1282.272     17.728    583.576    776.284   1089.512    583.576    583.576
 81.670   1438.000   1322.519    115.481    583.381    794.745   1111.117    583.381    583.381
 81.770   1427.000   1343.112     83.888    583.184    810.458   1115.818    583.184    583.184
 81.870   1281.975   1343.011    -61.036    582.985    822.602   1103.394    582.985    582.985
 81.970   1379.000   1323.196     55.804    582.785    830.602   1075.398    582.785    582.785
 82.070   1409.000   1286.534    122.466    582.583    834.332   1034.821    582.583    582.583
 82.170   1167.603   1236.971    -69.368    582.380    833.852    985.550    582.380    582.380
 82.270   1200.000   1179.025     20.975    582.176    829.422    931.842    582.176    582.176
 82.370   1153.000   1116.997     36.003    581.970    821.355    877.682    581.970    581.970
 82.470   1058.000   1054.481      3.519    581.762    810.021    826.297    581.762    581.762
 82.570   1039.162    994.265     44.897    581.553    795.956    779.939    581.553    581.553
 82.670    893.119    938.369    -45.250    581.342    779.909    739.878    581.342    581.342
 82.770    871.259    888.049    -16.791    581.130    762.717    706.535    581.130    581.130
 82.870    820.000    843.812    -23.812    580.917    745.125    679.671    580.917    580.917
 82.970    789.000    805.543    -16.543    580.702    727.693    658.613    580.702    580.702
 83.070    814.946    772.762     42.183    580.485    710.839    642.464    580.485    580.485
 83.170    696.000    744.905    -48.905    580.268    694.929    630.292    580.268    580.268
 83.270    696.800    721.484    -24.685    580.048    680.329    621.244    580.048    580.048
 83.370    649.000    702.139    -53.139    579.828    667.389    614.610    579.828    579.828
 83.470    644.463    686.608    -42.145    579.605    656.396    609.840    579.605    579.605
 83.570    608.000    674.686    -66.686    579.382    647.552    606.531    579.382    579.382
 83.670    666.511    666.191      0.319    579.157    640.957    604.397    579.157    579.157
 83.770    674.531    660.930     13.601    578.930    636.615    603.243    578.930    578.930
 83.870    653.000    658.663     -5.663    578.702    634.432    602.922    578.702    578.702
 83.970    575.000    659.076    -84.076    578.473    634.216    603.312    578.473    578.473
 84.070    599.000    661.751    -62.751    578.242    635.681    604.284    578.242    578.242
 84.170    585.000    666.159    -81.159    578.010    638.445    605.687    578.010    578.010
 84.270    641.784    671.650    -29.865    577.777    642.043    607.340    577.777    577.777
 84.370    680.000    677.468      2.532    577.542    645.931    609.029    577.542    577.542
 84.470    668.000    682.777    -14.777    577.305    649.516    610.511    577.305    577.305
 84.570    654.000    686.726    -32.726    577.068    652.199    611.538    577.068    577.068
 84.670    661.000    688.569    -27.569    576.829    653.452    611.888    576.829    576.829
 84.770    608.000    687.817    -79.817    576.588    652.931    611.418    576.588    576.588
 84.870    675.000    684.367     -9.367    576.347    650.557    610.104    576.347    576.347
 84.970    682.942    678.516      4.426    576.104    646.525    608.047    576.104    576.104
 85.070    613.000    670.845    -57.845    575.859    641.226    605.437    575.859    575.859
 85.170    677.000    662.060     14.940    575.613    635.133    602.504    575.613    575.613
 85.270    625.000    652.851    -27.851    575.366    628.708    599.478    575.366    575.366
 85.370    629.000    643.827    -14.827    575.118    622.352    596.567    575.118    575.118
 85.470    606.038    635.476    -29.438    574.868    616.378    593.945    574.868    574.868
 85.570    611.983    628.157    -16.174    574.617    611.003    591.753    574.617    574.617
 85.670    609.000    622.111    -13.111    574.365    606.358    590.101    574.365    574.365
 85.770    637.000    617.471     19.529    574.111    602.495    589.071    574.111    574.111
 85.870    643.000    614.283     28.717    573.856    599.404    588.720    573.856    573.856
 85.970    627.000    612.529     14.471    573.600    597.032    589.083    573.600    573.600
 86.070    599.000    612.146    -13.146    573.343    595.301    590.172    573.343    573.343
 86.170    654.000    613.040     40.960    573.084    594.129    591.977    573.084    573.084
 86.270    628.000    615.099     12.901    572.824    593.445    594.458    572.824    572.824
 86.370    626.000    618.194      7.806    572.563    593.195    597.538    572.563    572.563
 86.470    637.000    622.181     14.819    572.300    593.356    601.099    572.300    572.300
 86.570    621.725    626.898     -5.174    572.037    593.933    604.972    572.037    572.037
 86.670    622.000    632.167    -10.167    571.772    594.968    608.936    571.772    571.772
 86.770    673.000    637.787     35.213    571.506    596.533    612.721    571.506    571.506
 86.870    681.000    643.547     37.453    571.238    598.727    616.014    571.238    571.238
 86.970    654.771    649.240      5.531    570.970    601.671    618.490    570.970    570.970
 87.070    660.816    654.709      6.107    570.700    605.495    619.859    570.700    570.700
 87.170    651.000    659.892     -8.892    570.429    610.325    619.935    570.429    570.429
 87.270    630.588    664.857    -34.269    570.157    616.262    618.686    570.157    570.157
 87.370    697.273    669.789     27.485    569.884    623.361    616.237    569.884    569.884
 87.470    707.000    674.911     32.089    569.610    631.605    612.833    569.610    569.610
 87.570    724.142    680.401     43.741    569.335    640.880    608.763    569.335    569.335
 87.670    676.790    686.315     -9.525    569.058    650.956    604.314    569.058    569.058
 87.770    737.695    692.544     45.151    568.780    661.471    599.741    568.780    568.780
 87.870    676.261    698.795    -22.533    568.501    671.922    595.252    568.501    568.501
 87.970    752.000    704.595     47.405    568.221    681.675    591.011    568.221    568.221
 88.070    724.000    709.328     14.672    567.940    689.998    587.136    567.940    567.940
 88.170    668.474    712.326    -43.852    567.658    696.152    583.695    567.658    567.658
 88.270    696.000    713.026    -17.026    567.375    699.550    580.717    567.375    567.375
 88.370    705.751    711.143     -5.392    567.091    699.914    578.192    567.091    567.091
 88.470    749.000    706.768     42.232    566.806    697.366    576.089    566.806    566.806
 88.570    725.000    700.336     24.664    566.519    692.389    574.361    566.519    566.519
 88.670    725.000    692.498     32.502    566.232    685.683    572.956    566.232    566.232
 88.770    730.610    683.980     46.631    565.944    678.026    571.822    565.944    565.944
 88.870    701.000    675.495     25.505    565.654    670.178    570.911    565.654    565.654
 88.970    692.000    667.692     24.308    565.364    662.826    570.183    565.364    565.364
 89.070    644.000    661.116    -17.116    565.073    656.552    569.605    565.073    565.073
 89.170    672.000    656.181     15.819    564.780    651.793    569.148    564.780    564.780
 89.270    677.000    653.137     23.863    564.487    648.825    568.791    564.487    564.487
 89.370    606.179    652.066    -45.887    564.193    647.748    568.514    564.193    564.193
 89.470    611.000    652.878    -41.878    563.897    648.488    568.300    563.897    563.897
 89.570    634.000    655.320    -21.320    563.601    650.810    568.133    563.601    563.601
 89.670    645.000    658.992    -13.992    563.304    654.332    567.995    563.304    563.304
 89.770    687.596    663.374     24.222    563.006    658.552    567.867    563.006    563.006
 89.870    635.000    667.846    -32.846    562.707    662.871    567.729    562.707    562.707
 89.970    679.070    671.737      7.333    562.408    666.638    567.560    562.408    562.408
 90.070    746.000    674.389     71.611    562.107    669.216    567.338    562.107    562.107
 90.170    670.701    675.257     -4.555    561.806    670.077    567.049    561.806    561.806
 90.270    738.000    674.015     63.985    561.503    668.902    566.681    561.503    561.503
 90.370    670.000    670.623     -0.623    561.200    665.652    566.236    561.200    561.200
 90.470    642.365    665.317    -22.952    560.896    660.553    565.724    560.896    560.896
 90.570    650.062    658.522     -8.460    560.591    654.014    565.159    560.591    560.591
 90.670    687.207    650.746     36.460    560.286    646.527    564.560    560.286    560.286
 90.770    640.158    642.495     -2.338    559.979    638.579    563.945    559.979    559.979
 90.870    647.721    634.217     13.504    559.672    630.602    563.329    559.672    559.672
 90.970    616.000    626.278    -10.278    559.364    622.951    562.726    559.364    559.364
 91.070    616.600    618.955     -2.355    559.056    615.894    562.146    559.056    559.056
 91.170    680.000    612.437     67.563    558.746    609.613    561.594    558.746    558.746
 91.270    602.000    606.831     -4.831    558.436    604.211    561.075    558.436    558.436
 91.370    618.000    602.174     15.826    558.125    599.724    560.590    558.125    558.125
 91.470    596.000    598.448     -2.448    557.814    596.134    560.137    557.814    557.814
 91.570    601.000    595.597      5.403    557.502    593.389    559.717    557.502    557.502
 91.670    583.000    593.547    -10.547    557.189    591.416    559.324    557.189    557.189
 91.770    580.000    592.222    -12.222    556.875    590.140    558.958    556.875    556.875
 91.870    566.000    591.556    -25.556    556.561    589.500    558.616    556.561    556.561
 91.970    570.000    591.507    -21.507    556.247    589.454    558.297    556.247    556.247
 92.070    588.000    592.063     -4.063    555.931    589.990    558.000    555.931    555.931
 92.170    568.965    593.248    -24.283    555.615    591.132    557.726    555.615    555.615
 92.270    626.000    595.123     30.877    555.299    592.936    557.478    555.299    555.299
 92.370    570.668    597.782    -27.113    554.982    595.495    557.259    554.982    554.982
 92.470    598.685    601.351     -2.667    554.664    598.931    557.072    554.664    554.664
 92.570    592.000    605.982    -13.982    554.346    603.388    556.924    554.346    554.346
 92.670    597.000    611.835    -14.835    554.027    609.024    556.820    554.027    554.027
 92.770    579.000    619.073    -40.073    553.708    615.995    556.763    553.708    553.708
 92.870    631.949    627.843      4.106    553.388    624.446    556.757    553.388    553.388
 92.970    684.032    638.260     45.773    553.068    634.489    556.805    553.068    553.068
 93.070    630.544    650.389    -19.845    552.747    646.189    556.907    552.747    552.747
 93.170    650.000    664.234    -14.234    552.426    659.552    557.061    552.426    552.426
 93.270    673.000    679.719     -6.719    552.105    674.508    557.261    552.105    552.105
 93.370    676.033    696.685    -20.652    551.783    690.903    557.502    551.783    551.783
 93.470    744.000    714.873     29.127    551.460    708.488    557.775    551.460    551.460
 93.570    697.679    733.929    -36.250    551.138    726.916    558.073    551.138    551.138
 93.670    730.744    753.409    -22.665    550.814    745.752    558.388    550.814    550.814
 93.770    785.000    772.821     12.179    550.491    764.503    558.720    550.491    550.491
 93.870    823.762    791.696     32.066    550.167    782.695    559.075    550.167    550.167
 93.970    813.000    809.693      3.307    549.843    799.966    559.473    549.843    549.843
 94.070    797.000    826.685    -29.685    549.519    816.152    559.953    549.519    549.519
 94.170    827.636    842.858    -15.222    549.194    831.380    560.573    549.194    549.194
 94.270    897.000    858.546     38.454    548.869    845.913    561.403    548.869    548.869
 94.370    787.000    874.143    -87.143    548.544    860.066    562.521    548.544    548.544
 94.470    845.000    889.964    -44.964    548.218    874.082    564.002    548.218    548.218
 94.570    940.000    906.154     33.846    547.893    888.045    565.904    547.893    547.893
 94.670    883.643    922.673    -39.030    547.567    901.878    568.264    547.567    547.567
 94.770    947.451    939.358      8.092    547.241    915.416    571.087    547.241    547.241
 94.870    905.000    956.004    -51.004    546.915    928.484    574.340    546.915    546.915
 94.970   1000.910    972.393     28.517    546.588    940.942    577.947    546.588    546.588
 95.070   1018.451    988.256     30.195    546.262    952.640    581.788    546.262    546.262
 95.170   1042.970   1003.163     39.807    545.935    963.314    585.699    545.935    545.935
 95.270   1020.305   1016.432      3.872    545.609    972.486    589.474    545.609    545.609
 95.370   1064.000   1027.101     36.899    545.282    979.430    592.878    545.282    545.282
 95.470   1101.000   1033.994     67.006    544.955    983.219    595.662    544.955    544.955
 95.570    993.103   1035.888    -42.785    544.628    982.871    597.586    544.628    544.628
 95.670   1056.655   1031.773     24.882    544.301    977.568    598.458    544.301    544.301
 95.770   1014.000   1021.125     -7.125    543.975    966.893    598.168    543.975    543.975
 95.870   1051.758   1004.114     47.645    543.648    951.014    596.719    543.648    543.648
 95.970   1043.380    981.596     61.783    543.321    930.681    594.216    543.321    543.321
 96.070    968.000    954.995     13.005    542.994    907.124    590.852    542.994    542.994
 96.170    915.399    926.063    -10.663    542.668    881.859    586.863    542.668    542.668
 96.270    919.000    896.670     22.330    542.341    856.506    582.500    542.341    542.341
 96.370    870.000    868.657      1.343    542.015    832.666    578.001    542.015    542.015
 96.470    899.000    843.743     55.257    541.688    811.852    573.574    541.688    541.688
 96.570    845.792    823.481     22.311    541.362    795.444    569.391    541.362    541.362
 96.670    778.010    809.232    -31.222    541.036    784.676    565.580    541.036    541.036
 96.770    832.000    802.150     29.850    540.710    780.612    562.230    540.710    540.710
 96.870    839.000    803.175     35.825    540.385    784.144    559.389    540.385    540.385
 96.970    861.000    813.023     47.977    540.059    795.977    557.069    540.059    540.059
 97.070    839.859    832.183      7.676    539.734    816.613    555.259    539.734    539.734
 97.170    857.254    860.900     -3.646    539.409    846.328    553.925    539.409    539.409
 97.270    872.246    899.147    -26.902    539.085    885.139    553.024    539.085    539.085
 97.370    917.331    946.596    -29.264    538.760    932.769    552.507    538.760    538.760
 97.470   1041.000   1002.565     38.435    538.437    988.591    552.318    538.437    538.437
 97.570   1119.289   1065.954     53.335    538.113   1051.560    552.404    538.113    538.113
 97.670   1183.000   1135.268     47.732    537.790   1120.239    552.706    537.790    537.790
 97.770   1247.000   1208.554     38.446    537.467   1192.736    553.165    537.467    537.467
 97.870   1354.691   1283.270     71.421    537.145   1266.575    553.715    537.145    537.145
 97.970   1324.000   1356.424    -32.424    536.823   1338.833    554.287    536.823    536.823
 98.070   1357.000   1424.561    -67.561    536.501   1406.131    554.808    536.501    536.501
 98.170   1547.949   1483.952     63.998    536.180   1464.816    555.200    536.180    536.180
 98.270   1491.000   1530.888    -39.888    535.860   1511.254    555.389    535.860    535.860
 98.370   1565.000   1562.150      2.850    535.540   1542.289    555.312    535.540    535.540
 98.470   1604.000   1575.554     28.446    535.221   1555.777    554.927    535.221    535.221
 98.570   1615.000   1570.393     44.607    534.902   1551.022    554.221    534.902    534.902
 98.670   1582.197   1547.574     34.623    534.583   1528.915    553.210    534.583    534.583
 98.770   1483.000   1509.397    -26.397    534.266   1491.710    551.938    534.266    534.266
 98.870   1398.606   1459.099    -60.493    533.949   1442.582    550.466    533.949    533.949
 98.970   1415.479   1400.353     15.126    533.633   1385.137    548.860    533.633    533.633
 99.070   1326.000   1336.877    -10.877    533.317   1323.026    547.187    533.317    533.317
 99.170   1338.783   1272.176     66.607    533.002   1259.694    545.507    533.002    533.002
 99.270   1230.000   1209.397     20.603    532.688   1198.236    543.874    532.688    532.688
 99.370   1156.489   1151.266      5.223    532.374   1141.332    542.332    532.374    532.374
 99.470   1077.000   1100.071    -23.071    532.062   1091.236    540.915    532.062    532.062
 99.570   1070.000   1057.684     12.316    531.750   1049.797    539.651    531.750    531.750
 99.670   1015.000   1025.599    -10.599    531.439   1018.489    538.555    531.439    531.439
 99.770    946.492   1004.964    -58.472    531.129    998.455    537.637    531.129    531.129
 99.870    974.000    996.610    -22.610    530.819    990.524    536.898    530.819    530.819
 99.970   1058.000   1001.063     56.937    530.511    995.223    536.335    530.511    530.511
100.070   1076.000   1018.549     57.451    530.203   1012.792    535.938    530.203    530.203
100.170   1020.363   1049.002    -28.639    529.897   1043.179    535.693    529.897    529.897
100.270   1093.000   1092.065      0.935    529.591   1086.042    535.582    529.591    529.591
100.370   1123.881   1147.081    -23.200    529.287   1140.746    535.587    529.287    529.287
100.470   1182.000   1213.076    -31.076    528.983   1206.342    535.683    528.983    528.983
100.570   1300.000   1288.737     11.263    528.681   1281.541    535.845    528.681    528.681
100.670   1319.297   1372.378    -53.081    528.379   1364.682    536.048    528.379    528.379
100.770   1468.000   1461.913      6.087    528.079   1453.711    536.263    528.079    528.079
100.870   1655.000   1554.858    100.142    527.779   1546.170    536.460    527.779    527.779
100.970   1748.000   1648.377     99.623    527.481   1639.254    536.612    527.481    527.481
101.070   1707.332   1739.418    -32.086    527.184   1729.936    536.691    527.184    527.184
101.170   1789.701   1824.968    -35.268    526.889   1815.225    536.677    526.889    526.889
101.270   1929.000   1902.327     26.673    526.594   1892.432    536.556    526.594    526.594
101.370   1948.000   1969.287    -21.287    526.301   1959.349    536.326    526.301    526.301
101.470   1947.664   2024.245    -76.581    526.009   2014.365    535.997    526.009    526.009
101.570   2052.000   2066.071    -14.071    525.718   2056.331    535.586    525.718    525.718
101.670   2121.000   2093.888     27.112    525.429   2084.342    535.119    525.429    525.429
101.770   2166.000   2106.899     59.101    525.141   2097.578    534.622    525.141    525.141
101.870   2152.000   2104.409     47.591    524.854   2095.313    534.122    524.854    524.854
101.970   2117.000   2086.055     30.945    524.569   2077.163    533.643    524.569    524.569
102.070   2063.000   2052.184     10.816    524.285   2043.455    533.203    524.285    524.285
102.170   1965.908   2004.162    -38.254    524.003   1995.539    532.817    524.003    524.003
102.270   1954.000   1944.442      9.558    523.722   1935.859    532.495    523.722    523.722
102.370   1802.992   1876.324    -73.332    523.442   1867.713    532.240    523.442    523.442
102.470   1792.578   1803.501    -10.923    523.164   1794.796    532.048    523.164    523.164
102.570   1738.178   1729.569      8.609    522.888   1720.714    531.912    522.888    522.888
102.670   1638.000   1657.651    -19.651    522.613   1648.605    531.817    522.613    522.613
102.770   1591.000   1590.179      0.821    522.340   1580.919    531.746    522.340    522.340
102.870   1535.342   1528.810      6.532    522.069   1519.335    531.678    522.069    522.069
102.970   1456.000   1474.423    -18.423    521.799   1464.750    531.595    521.799    521.799
103.070   1332.000   1427.163    -95.163    521.531   1417.326    531.480    521.531    521.531
103.170   1359.588   1386.504    -26.916    521.265   1376.554    531.318    521.265    521.265
103.270   1382.905   1351.343     31.562    521.001   1341.342    531.097    521.001    521.001
103.370   1273.000   1320.125    -47.125    520.738   1310.146    530.807    520.738    520.738
103.470   1270.000   1291.025    -21.025    520.477   1281.152    530.437    520.477    520.477
103.570   1203.000   1262.188    -59.188    520.218   1252.510    529.981    520.218    520.218
103.670   1285.000   1231.990     53.010    519.961   1222.600    529.435    519.961    519.961
103.770   1231.144   1199.272     31.872    519.705   1190.261    528.801    519.705    519.705
103.870   1208.125   1163.486     44.639    519.452   1154.934    528.089    519.452    519.452
103.970   1103.000   1124.661    -21.661    519.201   1116.634    527.311    519.201    519.201
104.070   1086.000   1083.294      2.706    518.951   1075.840    526.487    518.951    518.951
104.170    996.000   1040.173    -44.173    518.704   1033.322    525.634    518.704    518.704
104.270   1008.554    996.218     12.336    518.459    989.980    524.773    518.459    518.459
104.370    935.000    952.360    -17.360    518.216    946.729    523.919    518.216    518.216
104.470    911.464    909.466      1.998    517.975    904.422    523.086    517.975    517.975
104.570    876.000    868.299      7.701    517.736    863.810    522.286    517.736    517.736
104.670    839.000    829.494      9.506    517.499    825.521    521.527    517.499    517.499
104.770    796.000    793.545      2.455    517.264    790.044    520.815    517.264    517.264
104.870    805.000    760.802     44.198    517.032    757.724    520.153    517.032    517.032
104.970    778.000    731.469     46.531    516.802    728.766    519.543    516.802    516.802
105.070    754.000    705.616     48.384    516.574    703.239    518.985    516.574    516.574
105.170    687.066    683.197      3.869    516.349    681.098    518.475    516.349    516.349
105.270    671.000    664.062      6.938    516.126    662.199    518.011    516.126    516.126
105.370    659.000    647.972     11.028    515.905    646.312    517.583    515.905    515.905
105.470    668.000    634.723     33.277    515.687    633.223    517.201    515.687    515.687
105.570    670.000    624.003     45.997    515.472    622.631    516.855    515.472    515.472
105.670    620.000    615.522      4.478    515.258    614.249    516.539    515.258    515.258
105.770    638.000    609.010     28.990    515.048    607.812    516.251    515.048    515.048
105.870    612.000    604.223      7.777    514.839    603.079    515.986    514.839    514.839
105.970    617.000    600.956     16.044    514.634    599.847    515.742    514.634    514.634
106.070    633.407    599.043     34.364    514.431    597.953    515.518    514.431    514.431
106.170    553.738    598.359    -44.621    514.231    597.274    515.311    514.231    514.231
106.270    619.000    598.820     20.180    514.033    597.725    515.121    514.033    514.033
106.370    582.000    600.374    -18.374    513.838    599.255    514.946    513.838    513.838
106.470    649.240    602.996     46.245    513.646    601.842    514.788    513.646    513.646
106.570    582.426    606.684    -24.257    513.457    605.481    514.644    513.457    513.457
106.670    567.572    611.448    -43.876    513.270    610.183    514.517    513.270    513.270
106.770    636.000    617.304     18.696    513.087    615.964    514.405    513.087    513.087
106.870    644.039    624.267     19.772    512.906    622.839    514.310    512.906    512.906
106.970    658.375    632.338     26.036    512.728    630.808    514.230    512.728    512.728
107.070    686.817    641.500     45.318    512.553    639.854    514.167    512.553    512.553
107.170    605.116    651.701    -46.585    512.381    649.928    514.119    512.381    512.381
107.270    653.000    662.855     -9.855    512.212    660.944    514.084    512.212    512.212
107.370    669.000    674.828     -5.828    512.047    672.770    514.062    512.047    512.047
107.470    733.000    687.436     45.564    511.884    685.225    514.050    511.884    511.884
107.570    695.000    700.446     -5.446    511.724    698.077    514.044    511.724    511.724
107.670    708.000    713.574     -5.574    511.568    711.049    514.040    511.568    511.568
107.770    798.000    726.491     71.509    511.415    723.816    514.035    511.415    511.415
107.870    699.830    738.834    -39.004    511.265    736.021    514.023    511.265    511.265
107.970    742.000    750.220     -8.220    511.118    747.283    513.998    511.118    511.118
108.070    769.477    760.271      9.206    510.975    757.233    513.956    510.975    510.975
108.170    745.561    768.653    -23.092    510.834    765.541    513.892    510.834    510.834
108.270    804.805    775.121     29.684    510.698    771.965    513.801    510.698    510.698
108.370    828.257    779.560     48.696    510.564    776.393    513.682    510.564    510.564
108.470    758.273    782.015    -23.742    510.435    778.869    513.535    510.435    510.435
108.570    763.000    782.689    -19.689    510.308    779.594    513.360    510.308    510.308
108.670    768.000    781.917    -13.917    510.186    778.901    513.163    510.186    510.186
108.770    735.559    780.119    -44.560    510.066    777.203    512.948    510.066    510.066
108.870    754.084    777.744    -23.660    509.951    774.945    512.720    509.951    509.951
108.970    812.656    775.225     37.432    509.839    772.552    512.486    509.839    509.839
109.070    768.000    772.935     -4.935    509.730    770.394    512.250    509.730    509.730
109.170    717.000    771.172    -54.172    509.626    768.762    512.018    509.626    509.626
109.270    708.000    770.132    -62.132    509.525    767.852    511.792    509.525    509.525
109.370    745.000    769.913    -24.913    509.428    767.755    511.577    509.428    509.428
109.470    735.000    770.503    -35.503    509.334    768.458    511.373    509.334    509.334
109.570    762.698    771.782     -9.085    509.245    769.841    511.184    509.245    509.245
109.670    805.275    773.531     31.744    509.159    771.684    511.008    509.159    509.159
109.770    779.000    775.439      3.561    509.078    773.675    510.846    509.078    509.078
109.870    778.000    777.119      0.881    509.000    775.430    510.697    509.000    509.000
109.970    817.920    778.145     39.774    508.926    776.524    510.558    508.926    508.926
110.070    800.523    778.087     22.436    508.857    776.529    510.429    508.857    508.857
110.170    780.000    776.564      3.436    508.791    775.064    510.307    508.791    508.791
110.270    758.000    773.293    -15.293    508.730    771.850    510.191    508.730    508.730
110.370    734.000    768.134    -34.134    508.673    766.747    510.080    508.673    508.673
110.470    779.000    761.100     17.900    508.620    759.769    509.972    508.620    508.620
110.570    733.000    752.347    -19.347    508.571    751.072    509.867    508.571    508.571
110.670    722.000    742.135    -20.135    508.527    740.923    509.761    508.527    508.527
110.770    685.000    730.805    -45.805    508.487    729.656    509.658    508.487    508.487
110.870    759.690    718.729     40.961    508.451    717.635    509.566    508.451    508.451
110.970    677.000    706.254    -29.254    508.420    705.213    509.481    508.420    508.420
111.070    645.132    693.713    -48.581    508.393    692.722    509.402    508.393    508.393
111.170    646.054    681.402    -35.349    508.370    680.458    509.330    508.370    508.370
111.270    670.000    669.576      0.424    508.352    668.676    509.267    508.352    508.352
111.370    678.000    658.446     19.554    508.339    657.585    509.212    508.339    508.339
111.470    676.000    648.176     27.824    508.330    647.351    509.166    508.330    508.330
111.570    590.897    638.886    -47.989    508.326    638.091    509.129    508.326    508.326
111.670    653.000    630.649     22.351    508.327    629.880    509.101    508.327    508.327
111.770    620.000    623.508     -3.508    508.332    622.761    509.083    508.332    508.332
111.870    663.000    617.472     45.528    508.343    616.742    509.075    508.343    508.343
111.970    624.000    612.509     11.491    508.358    611.791    509.076    508.358    508.358
112.070    602.839    608.567     -5.728    508.377    607.857    509.086    508.377    508.377
112.170    583.000    605.578    -22.578    508.402    604.872    509.104    508.402    508.402
112.270    588.000    603.459    -15.459    508.432    602.755    509.131    508.432    508.432
112.370    623.820    602.124     21.695    508.467    601.419    509.166    508.467    508.467
112.470    614.000    601.486     12.514    508.506    600.776    509.208    508.506    508.506
112.570    591.000    601.455    -10.455    508.551    600.741    509.257    508.551    508.551
112.670    604.000    601.952      2.048    508.601    601.230    509.313    508.601    508.601
112.770    612.000    602.902      9.098    508.656    602.173    509.375    508.656    508.656
112.870    633.000    604.243     28.757    508.716    603.505    509.442    508.716    508.716
112.970    583.810    605.922    -22.112    508.782    605.177    509.516    508.782    508.782
113.070    637.000    607.904     29.096    508.852    607.149    509.595    508.852    508.852
113.170    641.682    610.163     31.519    508.929    609.400    509.679    508.929    508.929
113.270    641.000    612.691     28.309    509.010    611.920    509.769    509.010    509.010
113.370    624.000    615.496      8.504    509.097    614.716    509.864    509.097    509.097
113.470    592.657    618.600    -25.943    509.189    617.810    509.966    509.189    509.189
113.570    622.000    622.043     -0.043    509.287    621.241    510.075    509.287    509.287
113.670    615.623    625.881    -10.259    509.391    625.066    510.191    509.391    509.391
113.770    675.000    630.193     44.807    509.500    629.362    510.316    509.500    509.500
113.870    629.000    635.081     -6.081    509.614    634.230    510.450    509.614    509.614
113.970    679.295    640.678     38.617    509.735    639.802    510.594    509.735    509.735
114.070    601.268    647.155    -45.887    509.861    646.247    510.750    509.861    509.861
114.170    660.000    654.729      5.271    509.993    653.784    510.918    509.993    509.993
114.270    693.317    663.679     29.638    510.130    662.687    511.101    510.130    510.130
114.370    694.000    674.354     19.646    510.274    673.304    511.299    510.274    510.274
114.470    637.000    687.190    -50.190    510.424    686.071    511.515    510.424    510.424
114.570    679.000    702.731    -23.731    510.579    701.528    511.750    510.579    510.579
114.670    674.000    721.639    -47.639    510.740    720.336    512.006    510.740    510.740
114.770    700.000    744.720    -44.720    510.908    743.298    512.285    510.908    510.908
114.870    814.459    772.934     41.525    511.082    771.372    512.590    511.082    511.082
114.970    851.951    807.416     44.535    511.261    805.690    512.923    511.261    511.261
115.070    856.000    849.482      6.518    511.447    847.566    513.286    511.447    511.447
115.170    884.000    900.635    -16.635    511.640    898.501    513.681    511.640    511.640
115.270    918.395    962.562    -44.166    511.838    960.177    514.111    511.838    511.838
115.370    989.000   1037.114    -48.114    512.043   1034.446    514.577    512.043    512.043
115.470   1058.000   1126.286    -68.286    512.254   1123.299    515.081    512.254    512.254
115.570   1221.000   1232.165    -11.165    512.472   1228.822    515.626    512.472    512.472
115.670   1328.982   1356.878    -27.895    512.696   1353.140    516.211    512.696    512.696
115.770   1429.000   1502.508    -73.508    512.926   1498.337    516.837    512.926    512.926
115.870   1634.000   1671.009    -37.009    513.164   1666.366    517.505    513.164    513.164
115.970   1831.000   1864.091    -33.091    513.408   1858.938    518.213    513.408    513.408
116.070   2155.000   2083.104     71.896    513.658   2077.406    518.960    513.658    513.658
116.170   2331.000   2328.913      2.087    513.915   2322.639    519.743    513.915    513.915
116.270   2617.000   2601.769     15.231    514.179   2594.891    520.558    514.179    514.179
116.370   2960.000   2901.187     58.813    514.450   2893.682    521.402    514.450    514.450
116.470   3239.000   3225.835     13.165    514.728   3217.691    522.268    514.728    514.728
116.570   3417.000   3573.451   -156.451    515.013   3564.661    523.149    515.013    515.013
116.670   3882.000   3940.771    -58.771    515.304   3931.338    524.039    515.304    515.304
116.770   4206.718   4323.498   -116.780    515.603   4313.433    524.930    515.603    515.603
116.870   4664.000   4716.301    -52.301    515.909   4705.624    525.816    515.909    515.909
116.970   4940.000   5112.845   -172.845    516.221   5101.586    526.689    516.221    516.221
117.070   5329.000   5505.852   -176.852    516.541   5494.048    527.544    516.541    516.541
117.170   6010.410   5887.195    123.215    516.869   5874.891    528.373    516.869    516.869
117.270   6327.000   6248.212     78.788    517.203   6235.458    529.174    517.203    517.203
117.370   6615.000   6579.666     35.334    517.545   6566.522    529.939    517.545    517.545
117.470   6830.000   6872.248    -42.248    517.894   6858.777    530.662    517.894    517.894
117.570   7132.000   7116.971     15.029    518.251   7103.244    531.338    518.251    518.251
117.670   7362.000   7305.709     56.291    518.615   7291.802    531.960    518.615    518.615
117.770   7556.000   7431.816    124.184    518.986   7417.807    532.523    518.986    518.986
117.870   7501.000   7490.720     10.280    519.366   7476.689    533.024    519.366    519.366
117.970   7517.000   7480.397     36.603    519.752   7466.423    533.459    519.752    519.752
118.070   7415.000   7401.587     13.413    520.147   7387.742    533.828    520.147    520.147
118.170   7321.000   7257.702     63.298    520.549   7244.056    534.134    520.549    520.549
118.270   7069.000   7054.462     14.538    520.959   7041.076    534.377    520.959    520.959
118.370   6800.000   6799.329      0.671    521.377   6786.259    534.564    521.377    521.377
118.470   6341.000   6500.888   -159.888    521.803   6488.182    534.697    521.803    521.803
118.570   5962.000   6168.257   -206.257    522.237   6155.958    534.783    522.237    522.237
118.670   5701.000   5810.610   -109.610    522.678   5798.754    534.827    522.678    522.678
118.770   5390.000   5436.799    -46.799    523.128   5425.417    534.835    523.128    523.128
118.870   4955.000   5055.091   -100.091    523.586   5044.208    534.814    523.586    523.586
118.970   4839.000   4672.978    166.022    524.052   4662.613    534.771    524.052    524.052
119.070   4404.927   4297.047    107.880    524.526   4287.210    534.715    524.526    524.526
119.170   4060.000   3932.898    127.102    525.009   3923.595    534.652    525.009    525.009
119.270   3578.178   3585.105     -6.927    525.500   3576.334    534.593    525.500    525.500
119.370   3299.000   3257.215     41.785    525.999   3248.967    534.545    525.999    525.999
119.470   3037.000   2951.779     85.221    526.506   2944.040    534.516    526.506    526.506
119.570   2579.423   2670.425    -91.002    527.023   2663.174    534.514    527.023    527.023
119.670   2446.612   2413.947     32.665    527.547   2407.158    534.545    527.547    527.547
119.770   2217.000   2182.419     34.581    528.081   2176.063    534.615    528.081    528.081
119.870   2022.000   1975.318     46.682    528.623   1969.361    534.728    528.623    528.623
119.970   1903.000   1791.641    111.359    529.173   1786.045    534.888    529.173    529.173
120.070   1701.000   1630.025     70.975    529.733   1624.752    535.100    529.733    529.733
120.170   1533.000   1488.854     44.146    530.301   1483.860    535.365    530.301    530.301
120.270   1340.565   1366.353    -25.788    530.878   1361.596    535.687    530.878    530.878
120.370   1287.000   1260.676     26.324    531.464   1256.109    536.065    531.464    531.464
120.470   1252.000   1169.975     82.025    532.059   1165.552    536.503    532.059    532.059
120.570   1174.000   1092.460     81.540    532.663   1088.132    537.000    532.663    532.663
120.670   1057.000   1026.441     30.559    533.276   1022.159    537.559    533.276    533.276
120.770   1000.096    970.362     29.734    533.899    966.077    538.178    533.899    533.899
120.870    941.000    922.821     18.179    534.530    918.482    538.860    534.530    534.530
120.970    889.669    882.575      7.094    535.171    878.128    539.606    535.171    535.171
121.070    930.000    848.541     81.459    535.821    843.934    540.415    535.821    535.821
121.170    868.000    819.791     48.209    536.481    814.968    541.290    536.481    536.481
121.270    837.000    795.536     41.464    537.150    790.441    542.231    537.150    537.150
121.370    808.000    775.116     32.884    537.829    769.691    543.241    537.829    537.829
121.470    766.000    757.981      8.019    538.517    752.166    544.320    538.517    538.517
121.570    742.000    743.677     -1.677    539.214    737.410    545.472    539.214    539.214
121.670    750.000    731.832     18.168    539.922    725.048    546.698    539.922    539.922
121.770    727.000    722.138      4.862    540.639    714.771    548.000    540.639    540.639
121.870    707.000    714.345     -7.345    541.366    706.325    549.380    541.366    541.366
121.970    738.469    708.243     30.227    542.103    699.501    550.841    542.103    542.103
122.070    722.260    703.660     18.600    542.849    694.123    552.384    542.849    542.849
122.170    666.000    700.451    -34.451    543.606    690.043    554.012    543.606    543.606
122.270    684.000    698.489    -14.489    544.373    687.136    555.726    544.373    544.373
122.370    701.000    697.666      3.334    545.150    685.290    557.528    545.150    545.150
122.470    733.460    697.884     35.576    545.937    684.407    559.417    545.937    545.937
122.570    706.693    699.050      7.643    546.734    684.394    561.395    546.734    546.734
122.670    692.442    701.079     -8.637    547.541    685.168    563.459    547.541    547.541
122.770    633.000    703.882    -70.882    548.359    686.643    565.607    548.359    548.359
122.870    667.000    707.374    -40.374    549.187    688.738    567.833    549.187    549.187
122.970    733.000    711.463     21.537    550.026    691.368    570.132    550.026    550.026
123.070    701.184    716.052    -14.868    550.875    694.448    572.494    550.875    550.875
123.170    710.000    721.041    -11.041    551.735    697.887    574.906    551.735    551.735
123.270    724.000    726.320     -2.320    552.606    701.591    577.354    552.606    552.606
123.370    726.000    731.774     -5.774    553.487    705.463    579.819    553.487    553.487
123.470    688.443    737.279    -48.835    554.379    709.400    582.282    554.379    554.379
123.570    731.000    742.706    -11.706    555.281    713.295    584.719    555.281    555.281
123.670    778.950    747.921     31.029    556.195    717.039    587.107    556.195    556.195
123.770    749.095    752.787     -3.692    557.120    720.521    589.418    557.120    557.120
123.870    710.767    757.169    -46.402    558.055    723.633    591.626    558.055    558.055
123.970    764.000    760.937      3.063    559.002    726.273    593.703    559.002    559.002
124.070    782.000    763.973     18.027    559.960    728.346    595.626    559.960    559.960
124.170    770.000    766.176      3.824    560.929    729.775    597.372    560.929    560.929
124.270    786.711    767.471     19.240    561.909    730.500    598.923    561.909    561.909
124.370    781.661    767.808     13.852    562.901    730.487    600.268    562.901    562.901
124.470    794.000    767.171     26.829    563.904    729.723    601.398    563.904    563.904
124.570    759.358    765.571     -6.213    564.919    728.222    602.315    564.919    564.919
124.670    788.000    763.034     24.966    565.945    726.004    603.021    565.945    565.945
124.770    760.996    759.618      1.379    566.983    723.120    603.527    566.983    566.983
124.870    752.000    755.451     -3.451    568.032    719.683    603.845    568.032    568.032
124.970    822.000    750.597     71.403    569.093    715.743    603.993    569.093    569.093
