neutron_powder_diffraction_0130
R_wp: 3.820
Temperature (K): 1037.720
Counts: 83329.00
Wavelength (Ã…): 2.52098
COMMENTS
Test file for demonstrating the .xyy file format in Reel1.0
END OF HEADER
   tth       Y_obs     Y_calc      Y_res    Background    Phase_1_Nuc    Phase_1_Mag    Phase_2_Nuc    Phase_2_Mag
  9.970    587.000    570.018     16.982    569.007    569.944    569.007    569.080    569.007
 10.070    603.000    570.151     32.849    569.058    570.076    569.058    569.132    569.058
 10.170    636.000    570.290     65.710    569.104    570.216    569.104    569.178    569.104
 10.270    605.000    570.439     34.561    569.144    570.364    569.144    569.218    569.144
 10.370    604.000    570.600     33.400    569.179    570.524    569.179    569.254    569.179
 10.470    574.000    570.777      3.223    569.208    570.701    569.208    569.284    569.208
 10.570    606.000    570.975     35.025    569.233    570.898    569.233    569.308    569.233
 10.670    624.000    571.201     52.799    569.252    571.124    569.252    569.328    569.252
 10.770    562.957    571.464     -8.508    569.266    571.387    569.266    569.342    569.266
 10.870    584.000    571.777     12.223    569.275    571.700    569.275    569.351    569.275
 10.970    519.000    572.159    -53.159    569.279    572.081    569.279    569.356    569.279
 11.070    572.000    572.631     -0.631    569.278    572.552    569.278    569.355    569.278
 11.170    596.173    573.229     22.945    569.272    573.149    569.272    569.349    569.272
 11.270    580.000    574.010      5.990    569.261    573.930    569.261    569.339    569.261
 11.370    541.624    575.080    -33.456    569.245    574.999    569.245    569.323    569.245
 11.470    593.000    576.672     16.328    569.225    576.589    569.225    569.303    569.225
 11.570    579.882    579.349      0.533    569.200    579.265    569.200    569.278    569.200
 11.670    630.000    584.362     45.638    569.170    584.274    569.170    569.249    569.170
 11.770    616.000    593.950     22.050    569.135    593.857    569.135    569.214    569.135
 11.870    639.000    610.922     28.078    569.096    610.819    569.096    569.176    569.096
 11.970    666.000    636.705     29.295    569.052    636.587    569.052    569.132    569.052
 12.070    710.489    667.705     42.784    569.004    667.570    569.004    569.084    569.004
 12.170    688.000    691.900     -3.900    568.951    691.751    568.951    569.032    568.951
 12.270    683.000    694.104    -11.104    568.894    693.953    568.894    568.975    568.894
 12.370    635.000    672.449    -37.449    568.833    672.309    568.833    568.914    568.833
 12.470    616.000    641.246    -25.246    568.767    641.124    568.767    568.849    568.767
 12.570    617.000    614.010      2.990    568.697    613.903    568.697    568.779    568.697
 12.670    558.000    595.524    -37.524    568.623    595.426    568.623    568.705    568.623
 12.770    575.000    584.851     -9.851    568.544    584.759    568.544    568.627    568.544
 12.870    584.000    579.201      4.799    568.462    579.111    568.462    568.545    568.462
 12.970    609.622    576.167     33.455    568.375    576.079    568.375    568.459    568.375
 13.070    551.000    574.353    -23.353    568.284    574.265    568.284    568.368    568.284
 13.170    588.864    573.116     15.748    568.190    573.029    568.190    568.274    568.190
 13.270    559.555    572.192    -12.637    568.091    572.105    568.091    568.176    568.091
 13.370    578.000    571.464      6.536    567.988    571.377    567.988    568.074    567.988
 13.470    576.000    570.872      5.128    567.882    570.784    567.882    567.968    567.882
 13.570    515.000    570.376    -55.376    567.772    570.288    567.772    567.858    567.772
 13.670    547.000    569.951    -22.951    567.658    569.863    567.658    567.744    567.658
 13.770    533.263    569.579    -36.316    567.540    569.491    567.540    567.627    567.540
 13.870    598.000    569.248     28.752    567.419    569.159    567.419    567.506    567.419
 13.970    526.000    568.947    -42.947    567.294    568.859    567.294    567.381    567.294
 14.070    553.000    568.671    -15.671    567.165    568.582    567.165    567.253    567.165
 14.170    544.000    568.413    -24.413    567.033    568.323    567.033    567.121    567.033
 14.270    553.674    568.169    -14.496    566.897    568.080    566.897    566.986    566.897
 14.370    595.397    567.937     27.459    566.758    567.847    566.758    566.847    566.758
 14.470    582.886    567.714     15.172    566.615    567.624    566.615    566.705    566.615
 14.570    570.000    567.498      2.502    566.469    567.407    566.469    566.560    566.469
 14.670    550.000    567.287    -17.287    566.320    567.195    566.320    566.411    566.320
 14.770    575.000    567.080      7.920    566.167    566.988    566.167    566.259    566.167
 14.870    548.000    566.878    -18.878    566.011    566.786    566.011    566.103    566.011
 14.970    594.546    566.677     27.869    565.852    566.585    565.852    565.944    565.852
 15.070    571.403    566.477      4.926    565.690    566.384    565.690    565.783    565.690
 15.170    550.000    566.278    -16.278    565.524    566.184    565.524    565.618    565.524
 15.270    592.501    566.080     26.421    565.356    565.985    565.356    565.450    565.356
 15.370    573.000    565.882      7.118    565.184    565.788    565.184    565.279    565.184
 15.470    548.000    565.683    -17.683    565.010    565.588    565.010    565.104    565.010
 15.570    523.000    565.484    -42.484    564.832    565.388    564.832    564.927    564.832
 15.670    554.000    565.283    -11.283    564.651    565.187    564.651    564.747    564.651
 15.770    596.000    565.082     30.918    564.468    564.985    564.468    564.564    564.468
 15.870    561.000    564.879     -3.879    564.282    564.782    564.282    564.379    564.282
 15.970    608.008    564.676     43.332    564.093    564.578    564.093    564.190    564.093
 16.070    508.000    564.471    -56.471    563.901    564.372    563.901    563.999    563.901
 16.170    570.686    564.264      6.421    563.706    564.166    563.706    563.805    563.706
 16.270    566.178    564.057      2.121    563.509    563.958    563.509    563.608    563.509
 16.370    546.000    563.847    -17.847    563.309    563.747    563.309    563.409    563.309
 16.470    573.000    563.636      9.364    563.106    563.535    563.106    563.207    563.106
 16.570    529.110    563.423    -34.313    562.901    563.322    562.901    563.002    562.901
 16.670    605.148    563.208     41.939    562.693    563.107    562.693    562.795    562.693
 16.770    583.851    562.992     20.859    562.483    562.889    562.483    562.585    562.483
 16.870    536.000    562.774    -26.774    562.270    562.671    562.270    562.373    562.270
 16.970    574.000    562.554     11.446    562.055    562.450    562.055    562.158    562.055
 17.070    551.000    562.332    -11.332    561.837    562.228    561.837    561.941    561.837
 17.170    565.000    562.109      2.891    561.617    562.004    561.617    561.722    561.617
 17.270    575.000    561.894     13.106    561.395    561.789    561.395    561.500    561.395
 17.370    571.000    561.683      9.317    561.170    561.577    561.170    561.277    561.170
 17.470    578.652    561.456     17.196    560.943    561.349    560.943    561.050    560.943
 17.570    527.000    561.225    -34.225    560.714    561.118    560.714    560.822    560.714
 17.670    532.595    560.993    -28.398    560.483    560.885    560.483    560.591    560.483
 17.770    525.840    560.759    -34.919    560.250    560.650    560.250    560.359    560.250
 17.870    594.779    560.524     34.256    560.014    560.414    560.014    560.124    560.014
 17.970    540.000    560.287    -20.287    559.777    560.176    559.777    559.887    559.777
 18.070    548.348    560.048    -11.700    559.537    559.936    559.537    559.648    559.537
 18.170    547.000    559.807    -12.807    559.295    559.695    559.295    559.407    559.295
 18.270    567.000    559.565      7.435    559.052    559.452    559.052    559.164    559.052
 18.370    575.000    559.321     15.679    558.806    559.208    558.806    558.920    558.806
 18.470    515.000    559.076    -44.076    558.558    558.962    558.558    558.673    558.558
 18.570    538.933    558.830    -19.896    558.309    558.714    558.309    558.424    558.309
 18.670    565.000    558.581      6.419    558.058    558.465    558.058    558.174    558.058
 18.770    546.737    558.332    -11.595    557.805    558.215    557.805    557.922    557.805
 18.870    565.836    558.081      7.755    557.550    557.963    557.550    557.668    557.550
 18.970    568.000    557.828     10.172    557.294    557.710    557.294    557.412    557.294
 19.070    580.823    557.575     23.248    557.035    557.455    557.035    557.155    557.035
 19.170    555.000    557.323     -2.323    556.775    557.202    556.775    556.896    556.775
 19.270    520.858    557.068    -36.210    556.514    556.947    556.514    556.635    556.514
 19.370    519.000    556.811    -37.811    556.251    556.689    556.251    556.373    556.251
 19.470    584.000    556.553     27.447    555.986    556.429    555.986    556.109    555.986
 19.570    572.000    556.294     15.706    555.720    556.170    555.720    555.844    555.720
 19.670    539.000    556.039    -17.039    555.452    555.914    555.452    555.577    555.452
 19.770    555.929    555.778      0.151    555.182    555.651    555.182    555.309    555.182
 19.870    561.000    555.519      5.481    554.912    555.392    554.912    555.039    554.912
 19.970    549.000    555.298     -6.298    554.639    555.169    554.639    554.768    554.639
 20.070    536.251    555.094    -18.843    554.366    554.964    554.366    554.496    554.366
 20.170    533.000    554.834    -21.834    554.091    554.703    554.091    554.222    554.091
 20.270    550.000    554.569     -4.569    553.815    554.437    553.815    553.947    553.815
 20.370    535.000    554.303    -19.303    553.537    554.170    553.537    553.670    553.537
 20.470    520.000    554.036    -34.036    553.258    553.902    553.258    553.393    553.258
 20.570    593.000    553.769     39.231    552.978    553.633    552.978    553.114    552.978
 20.670    542.000    553.501    -11.501    552.697    553.364    552.697    552.834    552.697
 20.770    590.383    553.233     37.150    552.414    553.095    552.414    552.553    552.414
 20.870    562.000    552.966      9.034    552.131    552.827    552.131    552.271    552.131
 20.970    557.139    552.703      4.437    551.846    552.562    551.846    551.987    551.846
 21.070    583.000    552.472     30.528    551.560    552.330    551.560    551.703    551.560
 21.170    546.194    552.233     -6.039    551.273    552.089    551.273    551.417    551.273
 21.270    579.000    551.968     27.032    550.985    551.823    550.985    551.131    550.985
 21.370    577.000    551.702     25.298    550.696    551.555    550.696    550.844    550.696
 21.470    517.912    551.436    -33.524    550.406    551.287    550.406    550.555    550.406
 21.570    549.000    551.170     -2.170    550.116    551.020    550.116    550.266    550.116
 21.670    591.749    550.906     40.842    549.824    550.754    549.824    549.976    549.824
 21.770    547.912    550.644     -2.731    549.531    550.490    549.531    549.685    549.531
 21.870    527.000    550.382    -23.382    549.238    550.227    549.238    549.393    549.238
 21.970    533.582    550.124    -16.541    548.943    549.966    548.943    549.101    548.943
 22.070    592.962    549.869     43.093    548.648    549.710    548.648    548.808    548.648
 22.170    545.000    549.617     -4.617    548.352    549.456    548.352    548.514    548.352
 22.270    557.000    549.367      7.633    548.055    549.204    548.055    548.219    548.055
 22.370    564.000    549.122     14.878    547.758    548.956    547.758    547.923    547.758
 22.470    551.000    548.894      2.106    547.460    548.727    547.460    547.627    547.460
 22.570    571.000    548.688     22.312    547.161    548.518    547.161    547.331    547.161
 22.670    544.000    548.463     -4.463    546.861    548.291    546.861    547.034    546.861
 22.770    567.267    548.251     19.016    546.561    548.076    546.561    546.736    546.561
 22.870    508.257    548.046    -39.790    546.260    547.870    546.260    546.438    546.260
 22.970    576.000    547.851     28.149    545.959    547.671    545.959    546.139    545.959
 23.070    585.000    547.670     37.330    545.657    547.488    545.657    545.840    545.657
 23.170    564.000    547.510     16.490    545.355    547.325    545.355    545.540    545.355
 23.270    537.000    547.390    -10.390    545.052    547.203    545.052    545.240    545.052
 23.370    531.582    547.292    -15.710    544.748    547.102    544.748    544.940    544.748
 23.470    545.931    547.236     -1.305    544.445    547.042    544.445    544.639    544.445
 23.570    564.000    547.225     16.775    544.140    547.028    544.140    544.338    544.140
 23.670    541.000    547.283     -6.283    543.836    547.083    543.836    544.037    543.836
 23.770    533.000    547.438    -14.438    543.531    547.234    543.531    543.736    543.531
 23.870    562.877    547.733     15.144    543.225    547.526    543.225    543.434    543.225
 23.970    524.000    548.256    -24.256    542.920    548.046    542.920    543.132    542.920
 24.070    561.000    549.211     11.789    542.614    548.998    542.614    542.831    542.614
 24.170    562.744    551.046     11.698    542.307    550.830    542.307    542.529    542.307
 24.270    535.602    554.707    -19.105    542.001    554.489    542.001    542.227    542.001
 24.370    597.350    561.721     35.630    541.694    561.503    541.694    541.925    541.694
 24.470    571.000    573.771     -2.771    541.387    573.557    541.387    541.623    541.387
 24.570    623.000    591.310     31.690    541.080    591.103    541.080    541.321    541.080
 24.670    649.000    611.208     37.792    540.772    611.011    540.772    541.019    540.772
 24.770    672.000    625.024     46.976    540.465    624.831    540.465    540.717    540.465
 24.870    603.000    623.848    -20.848    540.157    623.648    540.157    540.416    540.157
 24.970    585.000    608.421    -23.421    539.849    608.203    539.849    540.115    539.849
 25.070    628.587    588.071     40.516    539.542    587.833    539.542    539.814    539.542
 25.170    562.818    570.557     -7.739    539.234    570.298    539.234    539.513    539.234
 25.270    537.000    558.566    -21.566    538.926    558.291    538.926    539.213    538.926
 25.370    573.000    551.461     21.539    538.618    551.173    538.618    538.914    538.618
 25.470    561.000    547.546     13.454    538.310    547.246    538.310    538.615    538.310
 25.570    527.000    545.351    -18.351    538.002    545.041    538.002    538.316    538.002
 25.670    540.000    543.962     -3.962    537.694    543.640    537.694    538.019    537.694
 25.770    514.774    542.971    -28.197    537.386    542.638    537.386    537.722    537.386
 25.870    538.161    542.205     -4.044    537.079    541.859    537.079    537.426    537.079
 25.970    583.000    541.588     41.412    536.771    541.230    536.771    537.131    536.771
 26.070    572.127    541.076     31.051    536.464    540.704    536.464    536.837    536.464
 26.170    543.000    540.642      2.358    536.156    540.255    536.156    536.545    536.156
 26.270    524.597    540.278    -15.681    535.849    539.874    535.849    536.253    535.849
 26.370    528.000    539.983    -11.983    535.542    539.562    535.542    535.964    535.542
 26.470    535.000    539.732     -4.732    535.236    539.292    535.236    535.676    535.236
 26.570    542.561    539.532      3.029    534.929    539.072    534.929    535.390    534.929
 26.670    538.000    539.387     -1.387    534.623    538.904    534.623    535.106    534.623
 26.770    563.000    539.304     23.696    534.317    538.796    534.317    534.825    534.317
 26.870    542.000    539.286      2.714    534.011    538.751    534.011    534.546    534.011
 26.970    522.000    539.349    -17.349    533.706    538.784    533.706    534.271    533.706
 27.070    546.000    539.512      6.488    533.401    538.914    533.401    533.999    533.401
 27.170    548.000    539.803      8.197    533.096    539.168    533.096    533.731    533.096
 27.270    502.000    540.265    -38.265    532.792    539.588    532.792    533.468    532.792
 27.370    608.000    540.962     67.038    532.488    540.239    532.488    533.210    532.488
 27.470    570.000    542.015     27.985    532.184    541.239    532.184    532.959    532.184
 27.570    566.000    543.740     22.260    531.881    542.905    531.881    532.715    531.881
 27.670    554.000    547.339      6.661    531.578    546.435    531.578    532.479    531.578
 27.770    572.000    557.149     14.851    531.276    556.165    531.276    532.254    531.276
 27.870    546.610    584.797    -38.187    530.974    583.715    530.974    532.040    530.974
 27.970    679.780    649.462     30.317    530.673    648.256    530.673    531.842    530.673
 28.070    814.000    761.274     52.726    530.372    759.913    530.372    531.662    530.372
 28.170    905.422    889.857     15.565    530.072    888.324    530.072    531.505    530.072
 28.270    868.000    958.295    -90.295    529.772    956.591    529.772    531.378    529.772
 28.370    863.000    912.799    -49.799    529.473    910.922    529.473    531.288    529.473
 28.470    819.477    800.519     18.957    529.174    798.421    529.174    531.249    529.174
 28.570    724.000    708.560     15.440    528.876    706.155    528.876    531.276    528.876
 28.670    708.000    685.912     22.088    528.579    683.095    528.579    531.387    528.579
 28.770    700.797    729.482    -28.685    528.282    726.138    528.282    531.608    528.282
 28.870    795.000    799.154     -4.154    527.986    795.152    527.986    531.965    527.986
 28.970    812.490    835.503    -23.013    527.690    830.691    527.690    532.488    527.690
 29.070    786.000    801.276    -15.276    527.396    795.472    527.396    533.202    527.396
 29.170    676.000    722.311    -46.311    527.101    715.304    527.101    534.122    527.101
 29.270    667.000    645.185     21.815    526.808    636.773    526.808    535.234    526.808
 29.370    624.000    593.878     30.122    526.515    583.938    526.515    536.465    526.515
 29.470    589.000    567.960     21.040    526.223    556.542    526.223    537.645    526.223
 29.570    579.805    557.096     22.710    525.932    544.522    525.932    538.506    525.932
 29.670    597.000    552.446     44.554    525.641    539.337    525.641    538.750    525.641
 29.770    595.000    549.566     45.434    525.351    536.705    525.351    538.213    525.351
 29.870    592.240    546.980     45.260    525.062    535.066    525.062    536.976    525.062
 29.970    605.000    544.473     60.527    524.774    533.941    524.774    535.305    524.774
 30.070    538.615    542.192     -3.576    524.487    533.184    524.487    533.494    524.487
 30.170    569.000    540.321     28.679    524.200    532.772    524.200    531.748    524.200
 30.270    519.422    539.088    -19.666    523.914    532.827    523.914    530.174    523.914
 30.370    523.353    538.972    -15.619    523.630    533.795    523.630    528.804    523.630
 30.470    560.000    541.074     18.926    523.346    536.781    523.346    527.633    523.346
 30.570    581.975    547.313     34.662    523.062    543.725    523.062    526.639    523.062
 30.670    604.000    559.667     44.333    522.780    556.634    522.780    525.792    522.780
 30.770    604.463    577.954     26.509    522.499    575.354    522.499    525.064    522.499
 30.870    559.965    597.062    -37.097    522.219    594.802    522.219    524.431    522.219
 30.970    630.041    606.620     23.421    521.939    604.636    521.939    523.871    521.939
 31.070    542.000    599.213    -57.213    521.661    597.463    521.661    523.367    521.661
 31.170    559.000    580.165    -21.165    521.383    578.613    521.383    522.906    521.383
 31.270    573.000    559.952     13.048    521.106    558.564    521.106    522.477    521.106
 31.370    519.528    544.855    -25.327    520.831    543.602    520.831    522.075    520.831
 31.470    548.000    535.903     12.097    520.556    534.762    520.556    521.693    520.556
 31.570    524.000    531.358     -7.358    520.283    530.311    520.283    521.327    520.283
 31.670    490.000    529.167    -39.167    520.010    528.200    520.010    520.975    520.010
 31.770    569.535    528.025     41.510    519.738    527.126    519.738    520.635    519.738
 31.870    496.566    527.334    -30.768    519.468    526.496    519.468    520.304    519.468
 31.970    563.978    526.874     37.104    519.199    526.089    519.199    519.982    519.199
 32.070    529.606    526.570      3.036    518.930    525.831    518.930    519.667    518.930
 32.170    558.000    526.393     31.607    518.663    525.696    518.663    519.359    518.663
 32.270    548.847    526.336     22.511    518.397    525.676    518.397    519.056    518.397
 32.370    504.000    526.400    -22.400    518.131    525.772    518.131    518.758    518.131
 32.470    553.000    526.594     26.406    517.867    525.995    517.867    518.465    517.867
 32.570    527.000    526.937      0.063    517.605    526.365    517.605    518.176    517.605
 32.670    538.000    527.458     10.542    517.343    526.909    517.343    517.891    517.343
 32.770    565.931    528.200     37.731    517.082    527.673    517.082    517.609    517.082
 32.870    520.000    529.225     -9.225    516.823    528.717    516.823    517.330    516.823
 32.970    572.000    530.624     41.376    516.564    530.133    516.564    517.054    516.564
 33.070    569.000    532.543     36.457    516.307    532.068    516.307    516.781    516.307
 33.170    534.000    535.256     -1.256    516.051    534.794    516.051    516.511    516.051
 33.270    530.000    539.393     -9.393    515.796    538.944    515.796    516.243    515.796
 33.370    579.809    546.585     33.224    515.543    546.147    515.543    515.977    515.543
 33.470    560.000    560.764     -0.764    515.290    560.334    515.290    515.714    515.290
 33.570    566.000    589.724    -23.724    515.039    589.299    515.039    515.453    515.039
 33.670    607.000    644.837    -37.837    514.789    644.413    514.789    515.193    514.789
 33.770    719.020    735.585    -16.565    514.541    735.156    514.541    514.936    514.541
 33.870    897.759    858.005     39.753    514.293    857.569    514.293    514.681    514.293
 33.970   1067.000    981.630     85.370    514.047    981.194    514.047    514.428    514.047
 34.070   1073.000   1048.475     24.525    513.802   1048.055    513.802    514.177    513.802
 34.170    979.000   1015.219    -36.219    513.558   1014.828    513.558    513.927    513.558
 34.270    918.371    905.517     12.854    513.316    905.152    513.316    513.679    513.316
 34.370    821.690    777.832     43.858    513.075    777.482    513.075    513.433    513.075
 34.470    635.014    673.489    -38.475    512.835    673.144    512.835    513.189    512.835
 34.570    618.000    605.132     12.868    512.596    604.789    512.596    512.946    512.596
 34.670    536.000    566.967    -30.967    512.359    566.624    512.359    512.705    512.359
 34.770    558.000    547.567     10.433    512.123    547.225    512.123    512.466    512.123
 34.870    544.000    537.667      6.333    511.889    537.328    511.889    512.228    511.889
 34.970    523.000    532.033     -9.033    511.655    531.696    511.655    511.992    511.655
 35.070    506.000    528.313    -22.313    511.424    527.979    511.424    511.757    511.424
 35.170    531.000    525.577      5.423    511.193    525.245    511.193    511.525    511.193
 35.270    505.181    523.442    -18.260    510.964    523.112    510.964    511.293    510.964
 35.370    530.494    521.722      8.772    510.736    521.394    510.736    511.064    510.736
 35.470    528.000    520.306      7.694    510.510    519.980    510.510    510.836    510.510
 35.570    517.000    519.120     -2.120    510.284    518.796    510.284    510.609    510.284
 35.670    507.000    518.112    -11.112    510.061    517.788    510.061    510.384    510.061
 35.770    508.000    517.242     -9.242    509.838    516.920    509.838    510.161    509.838
 35.870    488.648    516.484    -27.836    509.617    516.162    509.617    509.939    509.617
 35.970    543.000    515.816     27.184    509.398    515.495    509.398    509.719    509.398
 36.070    490.000    515.224    -25.224    509.180    514.904    509.180    509.500    509.180
 36.170    548.837    514.695     34.141    508.963    514.375    508.963    509.283    508.963
 36.270    517.000    514.222      2.778    508.748    513.902    508.748    509.068    508.748
 36.370    521.000    513.798      7.202    508.534    513.478    508.534    508.854    508.534
 36.470    494.041    513.420    -19.379    508.322    513.100    508.322    508.641    508.322
 36.570    537.000    513.086     23.914    508.111    512.766    508.111    508.431    508.111
 36.670    523.100    512.800     10.300    507.901    512.480    507.901    508.221    507.901
 36.770    511.983    512.571     -0.588    507.693    512.250    507.693    508.014    507.693
 36.870    490.000    512.424    -22.424    507.486    512.103    507.486    507.807    507.486
 36.970    479.896    512.417    -32.521    507.281    512.095    507.281    507.603    507.281
 37.070    540.875    512.663     28.211    507.077    512.341    507.077    507.400    507.077
 37.170    529.000    513.348     15.652    506.875    513.025    506.875    507.199    506.875
 37.270    532.372    514.694     17.678    506.674    514.370    506.674    506.999    506.674
 37.370    538.000    516.861     21.139    506.475    516.537    506.475    506.801    506.475
 37.470    542.000    519.761     22.239    506.277    519.436    506.277    506.604    506.277
 37.570    521.000    522.842     -1.842    506.081    522.517    506.081    506.409    506.081
 37.670    506.110    525.004    -18.894    505.886    524.679    505.886    506.215    505.886
 37.770    516.000    525.177     -9.177    505.692    524.852    505.692    506.023    505.692
 37.870    496.000    523.336    -27.336    505.500    523.012    505.500    505.833    505.500
 37.970    541.938    520.437     21.501    505.310    520.113    505.310    505.645    505.310
 38.070    502.000    517.367    -15.367    505.121    517.042    505.121    505.457    505.121
 38.170    496.000    514.571    -18.571    504.934    514.243    504.934    505.272    504.934
 38.270    521.000    512.289      8.711    504.748    511.956    504.748    505.088    504.748
 38.370    490.406    510.601    -20.195    504.564    510.264    504.564    504.906    504.564
 38.470    502.000    509.433     -7.433    504.381    509.092    504.381    504.725    504.381
 38.570    509.526    508.646      0.880    504.199    508.301    504.199    504.546    504.199
 38.670    507.000    508.106     -1.106    504.020    507.759    504.020    504.369    504.020
 38.770    478.685    507.713    -29.029    503.841    507.362    503.841    504.193    503.841
 38.870    479.682    507.402    -27.720    503.665    507.048    503.665    504.019    503.665
 38.970    502.487    507.138     -4.650    503.489    506.781    503.489    503.846    503.489
 39.070    518.070    506.902     11.167    503.316    506.543    503.316    503.676    503.316
 39.170    492.390    506.688    -14.298    503.144    506.326    503.144    503.506    503.144
 39.270    468.000    506.490    -38.490    502.973    506.124    502.973    503.339    502.973
 39.370    540.265    506.305     33.960    502.804    505.937    502.804    503.173    502.804
 39.470    560.000    506.133     53.867    502.636    505.761    502.636    503.009    502.636
 39.570    535.000    505.971     29.029    502.470    505.596    502.470    502.846    502.470
 39.670    506.000    505.820      0.180    502.306    505.441    502.306    502.685    502.306
 39.770    536.620    505.678     30.942    502.143    505.296    502.143    502.526    502.143
 39.870    485.718    505.546    -19.827    501.982    505.160    501.982    502.368    501.982
 39.970    521.718    505.423     16.295    501.822    505.033    501.822    502.212    501.822
 40.070    454.000    505.310    -51.310    501.664    504.916    501.664    502.058    501.664
 40.170    499.000    505.208     -6.208    501.507    504.810    501.507    501.906    501.507
 40.270    477.534    505.116    -27.582    501.352    504.714    501.352    501.755    501.352
 40.370    507.000    505.036      1.964    501.199    504.630    501.199    501.606    501.199
 40.470    505.000    504.970      0.030    501.047    504.559    501.047    501.458    501.047
 40.570    516.000    504.918     11.082    500.896    504.503    500.896    501.312    500.896
 40.670    505.000    504.883      0.117    500.748    504.463    500.748    501.168    500.748
 40.770    523.911    504.867     19.043    500.600    504.442    500.600    501.026    500.600
 40.870    442.000    504.874    -62.874    500.455    504.444    500.455    500.885    500.455
 40.970    496.265    504.908     -8.643    500.310    504.473    500.310    500.747    500.310
 41.070    489.000    504.974    -15.974    500.168    504.534    500.168    500.609    500.168
 41.170    506.000    505.080      0.920    500.027    504.634    500.027    500.474    500.027
 41.270    488.000    505.236    -17.236    499.888    504.784    499.888    500.341    499.888
 41.370    499.956    505.454     -5.498    499.750    504.996    499.750    500.209    499.750
 41.470    526.000    505.754     20.246    499.613    505.291    499.613    500.079    499.613
 41.570    472.000    506.167    -34.167    499.479    505.698    499.479    499.950    499.479
 41.670    514.000    506.751      7.249    499.346    506.275    499.346    499.824    499.346
 41.770    522.000    507.626     14.374    499.214    507.144    499.214    499.699    499.214
 41.870    523.286    509.068     14.218    499.084    508.579    499.084    499.576    499.084
 41.970    548.070    511.645     36.426    498.956    511.150    498.956    499.455    498.956
 42.070    512.300    516.391     -4.091    498.829    515.890    498.829    499.336    498.829
 42.170    550.899    524.823     26.076    498.703    524.319    498.703    499.218    498.703
 42.270    519.000    538.565    -19.565    498.580    538.059    498.580    499.103    498.580
 42.370    584.904    558.390     26.514    498.458    557.885    498.458    498.989    498.458
 42.470    571.000    582.852    -11.852    498.337    582.352    498.337    498.877    498.337
 42.570    610.000    606.972      3.028    498.218    606.476    498.218    498.767    498.218
 42.670    612.000    622.341    -10.341    498.100    621.847    498.100    498.659    498.100
 42.770    617.802    621.595     -3.792    497.985    621.094    497.985    498.553    497.985
 42.870    630.692    605.120     25.573    497.870    604.601    497.870    498.449    497.870
 42.970    542.431    580.603    -38.173    497.757    580.062    497.757    498.346    497.757
 43.070    584.201    556.245     27.956    497.646    555.679    497.646    498.246    497.646
 43.170    554.000    536.728     17.272    497.537    536.139    497.537    498.148    497.537
 43.270    530.000    523.287      6.713    497.429    522.677    497.429    498.052    497.429
 43.370    506.048    515.043     -8.995    497.322    514.416    497.322    497.957    497.322
 43.470    499.000    510.362    -11.362    497.217    509.720    497.217    497.865    497.217
 43.570    512.000    507.758      4.242    497.114    507.100    497.114    497.775    497.114
 43.670    479.000    506.237    -27.237    497.012    505.564    497.012    497.687    497.012
 43.770    491.000    505.256    -14.256    496.911    504.568    496.911    497.602    496.911
 43.870    492.694    504.557    -11.863    496.813    503.853    496.813    497.518    496.813
 43.970    509.000    504.025      4.975    496.715    503.305    496.715    497.437    496.715
 44.070    490.000    503.605    -13.605    496.620    502.869    496.620    497.358    496.620
 44.170    518.000    503.269     14.731    496.526    502.514    496.526    497.281    496.526
 44.270    531.000    502.996     28.004    496.433    502.223    496.433    497.207    496.433
 44.370    509.000    502.776      6.224    496.342    501.983    496.342    497.135    496.342
 44.470    506.000    502.598      3.402    496.252    501.785    496.252    497.066    496.252
 44.570    483.373    502.455    -19.082    496.164    501.621    496.164    496.999    496.164
 44.670    494.000    502.343     -8.343    496.078    501.487    496.078    496.935    496.078
 44.770    494.429    502.259     -7.829    495.993    501.378    495.993    496.874    495.993
 44.870    501.000    502.198     -1.198    495.910    501.292    495.910    496.816    495.910
 44.970    546.000    502.159     43.841    495.828    501.226    495.828    496.760    495.828
 45.070    501.000    502.141     -1.141    495.747    501.180    495.747    496.708    495.747
 45.170    517.556    502.142     15.414    495.668    501.152    495.668    496.659    495.668
 45.270    527.136    502.163     24.973    495.591    501.141    495.591    496.613    495.591
 45.370    541.510    502.203     39.307    495.515    501.148    495.515    496.571    495.515
 45.470    521.249    502.263     18.986    495.441    501.172    495.441    496.532    495.441
 45.570    539.000    502.343     36.657    495.368    501.214    495.368    496.497    495.368
 45.670    490.000    502.444    -12.444    495.297    501.274    495.297    496.467    495.297
 45.770    480.000    502.568    -22.568    495.227    501.354    495.227    496.441    495.227
 45.870    480.000    502.716    -22.716    495.159    501.455    495.159    496.419    495.159
 45.970    502.000    502.891     -0.891    495.092    501.580    495.092    496.402    495.092
 46.070    477.000    503.097    -26.097    495.026    501.732    495.026    496.391    495.026
 46.170    495.000    503.337     -8.337    494.963    501.913    494.963    496.385    494.963
 46.270    476.555    503.616    -27.061    494.900    502.130    494.900    496.386    494.900
 46.370    545.497    503.942     41.555    494.839    502.387    494.839    496.393    494.839
 46.470    452.000    504.322    -52.322    494.780    502.693    494.780    496.408    494.780
 46.570    524.000    504.771     19.229    494.722    503.060    494.722    496.431    494.722
 46.670    539.000    505.306     33.694    494.665    503.506    494.665    496.463    494.665
 46.770    506.000    505.961      0.039    494.610    504.065    494.610    496.505    494.610
 46.870    480.552    506.805    -26.253    494.557    504.801    494.557    496.558    494.557
 46.970    489.000    507.971    -18.971    494.504    505.849    494.504    496.623    494.504
 47.070    544.941    509.749     35.192    494.454    507.496    494.454    496.703    494.454
 47.170    518.810    512.623      6.188    494.404    510.223    494.404    496.799    494.404
 47.270    516.725    517.314     -0.589    494.356    514.749    494.356    496.912    494.356
 47.370    527.000    524.669      2.331    494.310    521.917    494.310    497.047    494.310
 47.470    506.680    535.322    -28.642    494.265    532.359    494.265    497.207    494.265
 47.570    531.000    549.167    -18.167    494.221    545.962    494.221    497.395    494.221
 47.670    548.000    564.764    -16.764    494.179    561.283    494.179    497.619    494.179
 47.770    633.000    578.914     54.086    494.139    575.117    494.139    497.884    494.139
 47.870    612.000    587.135     24.865    494.099    582.977    494.099    498.202    494.099
 47.970    609.000    586.257     22.743    494.061    581.680    494.061    498.587    494.061
 48.070    535.674    577.252    -41.578    494.025    572.176    494.025    499.057    494.025
 48.170    577.000    564.249     12.751    493.990    558.568    493.990    499.638    493.990
 48.270    549.971    551.411     -1.440    493.956    544.980    493.956    500.364    493.956
 48.370    526.000    541.305    -15.305    493.923    533.933    493.923    501.280    493.923
 48.470    555.460    534.888     20.572    493.892    526.331    493.892    502.440    493.892
 48.570    530.000    532.029     -2.029    493.863    521.973    493.863    503.912    493.863
 48.670    575.537    532.094     43.443    493.834    520.155    493.834    505.769    493.834
 48.770    532.000    534.412     -2.412    493.808    520.128    493.808    508.089    493.808
 48.870    538.000    538.517     -0.517    493.782    521.356    493.782    510.940    493.782
 48.970    526.000    544.202    -18.202    493.758    523.590    493.758    514.368    493.758
 49.070    590.000    551.521     38.479    493.735    526.882    493.735    518.371    493.735
 49.170    574.000    560.903     13.097    493.713    531.755    493.713    522.858    493.713
 49.270    573.000    573.680     -0.680    493.693    539.777    493.693    527.591    493.693
 49.370    636.310    593.450     42.860    493.674    554.992    493.674    532.122    493.674
 49.470    620.306    628.643     -8.337    493.657    586.490    493.657    535.790    493.657
 49.570    644.389    695.731    -51.343    493.640    651.475    493.640    537.857    493.640
 49.670    804.000    820.305    -16.305    493.625    776.038    493.625    537.819    493.625
 49.770   1019.000   1030.957    -11.957    493.612    988.767    493.612    535.688    493.612
 49.870   1395.058   1342.435     52.623    493.599   1303.907    493.599    531.978    493.599
 49.970   1808.000   1732.355     75.645    493.588   1698.356    493.588    527.428    493.588
 50.070   2159.000   2125.580     33.420    493.579   2096.342    493.579    522.695    493.579
 50.170   2415.969   2404.401     11.568    493.570   2379.723    493.570    518.217    493.570
 50.270   2350.000   2459.190   -109.190    493.563   2438.609    493.563    514.228    493.563
 50.370   2227.000   2263.930    -36.930    493.557   2246.843    493.557    510.815    493.557
 50.470   1889.535   1900.136    -10.601    493.552   1885.911    493.552    507.979    493.552
 50.570   1491.000   1493.155     -2.155    493.549   1481.215    493.549    505.672    493.549
 50.670   1076.000   1141.837    -65.837    493.546   1131.699    493.546    503.826    493.546
 50.770    797.000    891.694    -94.694    493.545    882.975    493.545    502.362    493.545
 50.870    715.000    741.168    -26.168    493.546    733.572    493.546    501.208    493.546
 50.970    707.000    663.327     43.673    493.547    656.625    493.547    500.298    493.547
 51.070    631.000    626.870      4.130    493.550    620.884    493.550    499.575    493.550
 51.170    647.205    608.002     39.203    493.554    602.594    493.554    498.997    493.554
 51.270    623.558    593.766     29.792    493.559    588.826    493.559    498.530    493.559
 51.370    600.000    580.013     19.987    493.565    575.457    493.565    498.147    493.565
 51.470    606.000    566.939     39.061    493.572    562.701    493.572    497.831    493.572
 51.570    580.803    555.651     25.152    493.581    551.679    493.581    497.567    493.581
 51.670    556.000    546.861      9.139    493.591    543.116    493.591    497.347    493.591
 51.770    558.000    540.702     17.298    493.602    537.150    493.602    497.161    493.602
 51.870    500.479    536.888    -36.409    493.614    533.503    493.614    497.005    493.614
 51.970    546.000    534.954     11.046    493.627    531.711    493.627    496.874    493.627
 52.070    562.000    534.464     27.536    493.641    531.344    493.641    496.765    493.641
 52.170    528.389    535.139     -6.750    493.657    532.124    493.657    496.675    493.657
 52.270    517.000    536.920    -19.920    493.674    533.995    493.674    496.602    493.674
 52.370    571.285    540.044     31.240    493.691    537.194    493.691    496.544    493.691
 52.470    568.135    545.202     22.933    493.710    542.415    493.710    496.499    493.710
 52.570    508.230    553.833    -45.603    493.730    551.098    493.730    496.467    493.730
 52.670    612.574    568.523     44.051    493.751    565.830    493.751    496.446    493.751
 52.770    608.000    593.309     14.691    493.773    590.649    493.773    496.435    493.773
 52.870    642.000    633.500      8.500    493.797    630.864    493.797    496.433    493.797
 52.970    738.000    694.564     43.436    493.821    691.944    493.821    496.441    493.821
 53.070    748.000    779.843    -31.843    493.846    777.234    493.846    496.457    493.846
 53.170    900.000    887.444     12.556    493.873    884.840    493.873    496.481    493.873
 53.270    998.000   1007.061     -9.061    493.900   1004.460    493.900    496.513    493.900
 53.370   1098.000   1117.877    -19.877    493.929   1115.276    493.929    496.553    493.929
 53.470   1171.869   1190.712    -18.843    493.959   1188.106    493.959    496.600    493.959
 53.570   1173.908   1200.104    -26.196    493.989   1197.487    493.989    496.654    493.989
 53.670   1136.209   1142.286     -6.077    494.021   1139.644    494.021    496.715    494.021
 53.770   1017.000   1038.659    -21.659    494.053   1035.979    494.053    496.784    494.053
 53.870    879.000    919.380    -40.380    494.087    916.652    494.087    496.860    494.087
 53.970    798.000    808.005    -10.005    494.122    805.218    494.122    496.943    494.122
 54.070    706.076    717.367    -11.291    494.157    714.516    494.157    497.033    494.157
 54.170    632.000    651.179    -19.179    494.194    648.259    494.194    497.132    494.194
 54.270    596.000    607.087    -11.087    494.231    604.092    494.231    497.238    494.231
 54.370    604.000    579.875     24.125    494.270    576.801    494.270    497.352    494.270
 54.470    576.000    564.028     11.972    494.309    560.868    494.309    497.475    494.309
 54.570    521.742    555.133    -33.391    494.350    551.879    494.350    497.607    494.350
 54.670    559.000    550.253      8.747    494.391    546.898    494.391    497.749    494.391
 54.770    580.000    547.691     32.309    494.433    544.226    494.433    497.901    494.433
 54.870    530.505    546.568    -16.063    494.476    542.983    494.476    498.064    494.476
 54.970    550.000    546.472      3.528    494.520    542.757    494.520    498.238    494.520
 55.070    549.936    547.228      2.708    494.565    543.371    494.565    498.425    494.565
 55.170    565.273    548.786     16.487    494.611    544.774    494.611    498.626    494.611
 55.270    532.951    551.167    -18.217    494.658    546.987    494.658    498.841    494.658
 55.370    520.180    554.462    -34.282    494.706    550.097    494.706    499.072    494.706
 55.470    550.251    558.853     -8.602    494.754    554.288    494.754    499.321    494.754
 55.570    606.000    564.706     41.294    494.803    559.922    494.803    499.589    494.803
 55.670    580.000    572.781      7.219    494.854    567.757    494.854    499.879    494.854
 55.770    596.000    584.664     11.336    494.905    579.378    494.905    500.192    494.905
 55.870    600.000    603.542     -3.542    494.956    597.967    494.956    500.532    494.956
 55.970    650.000    635.321     14.679    495.009    629.426    495.009    500.901    495.009
 56.070    723.584    689.774     33.810    495.062    683.525    495.062    501.302    495.062
 56.170    736.000    780.914    -44.914    495.117    774.272    495.117    501.741    495.117
 56.270    897.000    925.290    -28.290    495.172    918.212    495.172    502.222    495.172
 56.370   1111.000   1137.133    -26.133    495.228   1129.574    495.228    502.751    495.228
 56.470   1278.000   1420.493   -142.493    495.284   1412.407    495.284    503.334    495.284
 56.570   1761.000   1760.369      0.631    495.341   1751.708    495.341    503.981    495.341
 56.670   2135.000   2115.953     19.047    495.400   2106.666    495.400    504.701    495.400
 56.770   2364.000   2419.891    -55.891    495.458   2409.917    495.458    505.509    495.458
 56.870   2603.000   2592.049     10.951    495.518   2581.305    495.518    506.420    495.518
 56.970   2660.000   2576.581     83.419    495.578   2564.938    495.578    507.459    495.578
 57.070   2473.471   2379.818     93.653    495.639   2367.087    495.639    508.655    495.639
 57.170   2082.000   2065.118     16.882    495.701   2051.056    495.701    510.051    495.701
 57.270   1731.000   1712.093     18.907    495.764   1696.412    495.764    511.700    495.764
 57.370   1393.001   1383.948      9.054    495.827   1366.300    495.827    513.680    495.827
 57.470   1104.000   1116.966    -12.966    495.891   1096.920    495.891    516.087    495.891
 57.570    898.000    922.603    -24.603    495.955    899.613    495.955    519.048    495.955
 57.670    777.000    794.905    -17.905    496.020    768.275    496.020    522.715    496.020
 57.770    697.779    719.549    -21.770    496.086    688.401    496.086    527.272    496.086
 57.870    675.000    681.460     -6.460    496.152    644.712    496.152    532.921    496.152
 57.970    721.000    669.299     51.701    496.219    625.652    496.219    539.875    496.219
 58.070    680.000    676.826      3.174    496.287    624.772    496.287    548.338    496.287
 58.170    706.000    702.127      3.873    496.355    639.990    496.355    558.480    496.355
 58.270    725.000    745.773    -20.773    496.424    671.781    496.424    570.394    496.424
 58.370    775.461    808.645    -33.184    496.494    721.062    496.494    584.045    496.494
 58.470    922.660    889.899     32.761    496.564    787.236    496.564    599.188    496.564
 58.570    929.000    985.412    -56.412    496.634    866.762    496.634    615.244    496.634
 58.670   1062.000   1087.147    -25.147    496.706    952.652    496.706    631.164    496.706
 58.770   1162.688   1184.272    -21.584    496.777   1035.672    496.777    645.352    496.777
 58.870   1294.000   1266.080     27.920    496.850   1107.102    496.850    655.818    496.850
 58.970   1359.000   1323.835     35.165    496.922   1160.063    496.922    660.703    496.922
 59.070   1419.000   1350.299     68.701    496.996   1188.295    496.996    659.027    496.996
 59.170   1348.000   1341.428      6.572    497.070   1187.370    497.070    651.167    497.070
 59.270   1389.000   1301.197     87.803    497.144   1159.723    497.144    638.660    497.144
 59.370   1286.000   1242.669     43.331    497.219   1116.405    497.219    623.512    497.219
 59.470   1279.000   1182.404     96.596    497.294   1072.167    497.294    607.536    497.294
 59.570   1206.000   1135.446     70.554    497.370   1040.752    497.370    592.034    497.370
 59.670   1120.660   1114.908      5.752    497.446   1034.488    497.446    577.793    497.446
 59.770   1238.000   1131.610    106.390    497.523   1063.809    497.523    565.202    497.523
 59.870   1241.586   1189.790     51.796    497.600   1132.831    497.600    554.386    497.600
 59.970   1353.000   1282.436     70.564    497.678   1234.587    497.678    545.306    497.678
 60.070   1331.037   1389.781    -58.744    497.756   1349.457    497.756    537.824    497.756
 60.170   1553.000   1481.552     71.448    497.835   1447.369    497.835    531.750    497.835
 60.270   1521.703   1524.499     -2.796    497.913   1495.289    497.913    526.875    497.913
 60.370   1457.000   1496.619    -39.619    497.993   1471.419    497.993    522.991    497.993
 60.470   1456.000   1399.644     56.356    498.072   1377.666    498.072    519.904    498.072
 60.570   1259.146   1256.523      2.623    498.152   1237.131    498.152    517.451    498.152
 60.670   1058.007   1097.472    -39.465    498.233   1080.158    498.233    515.494    498.233
 60.770    925.000    948.164    -23.164    498.313    932.527    498.313    513.926    498.313
 60.870    804.496    824.787    -20.291    498.395    810.509    498.395    512.662    498.395
 60.970    730.000    733.842     -3.842    498.476    720.671    498.476    511.640    498.476
 61.070    709.000    674.649     34.351    498.558    662.385    498.558    510.815    498.558
 61.170    632.000    643.084    -11.084    498.640    631.561    498.640    510.151    498.640
 61.270    609.553    635.083    -25.530    498.722    624.165    498.722    509.621    498.722
 61.370    637.000    648.871    -11.871    498.805    638.443    498.805    509.202    498.805
 61.470    684.930    685.472     -0.542    498.888    675.443    498.888    508.870    498.888
 61.570    726.000    747.575    -21.575    498.971    737.877    498.971    508.601    498.971
 61.670    848.983    837.139     11.844    499.054    827.733    499.054    508.368    499.054
 61.770    962.000    952.390      9.610    499.138    943.270    499.138    508.139    499.138
 61.870   1101.000   1085.125     15.875    499.222   1076.316    499.222    507.888    499.222
 61.970   1178.158   1219.219    -41.061    499.306   1210.772    499.306    507.597    499.306
 62.070   1315.773   1331.326    -15.553    499.391   1323.301    499.391    507.263    499.391
 62.170   1401.792   1395.638      6.154    499.476   1388.085    499.476    506.896    499.476
 62.270   1385.000   1394.146     -9.146    499.560   1387.095    499.560    506.516    499.560
 62.370   1366.828   1326.958     39.870    499.645   1320.407    499.645    506.140    499.645
 62.470   1217.000   1212.211      4.789    499.731   1206.132    499.731    505.785    499.731
 62.570   1050.484   1075.683    -25.198    499.816   1070.037    499.816    505.460    499.816
 62.670    875.000    940.561    -65.561    499.902    935.304    499.902    505.169    499.902
 62.770    755.000    822.690    -67.690    499.987    817.777    499.987    504.914    499.987
 62.870    685.000    729.806    -44.806    500.073    725.196    500.073    504.695    500.073
 62.970    654.000    662.846     -8.846    500.159    658.505    500.159    504.509    500.159
 63.070    666.325    618.335     47.990    500.245    614.231    500.245    504.354    500.245
 63.170    582.000    590.932     -8.932    500.331    587.038    500.331    504.226    500.331
 63.270    580.000    575.422      4.578    500.418    571.716    500.418    504.122    500.418
 63.370    557.000    567.834    -10.834    500.504    564.294    500.504    504.040    500.504
 63.470    547.000    565.799    -18.799    500.591    562.408    500.591    503.975    500.591
 63.570    567.875    568.487     -0.612    500.677    565.229    500.677    503.927    500.677
 63.670    614.353    576.359     37.994    500.764    573.218    500.764    503.891    500.764
 63.770    581.000    590.859     -9.859    500.851    587.822    500.851    503.867    500.851
 63.870    586.496    614.023    -27.527    500.937    611.078    500.937    503.853    500.937
 63.970    665.000    647.914     17.086    501.024    645.049    501.024    503.847    501.024
 64.070    679.287    693.850    -14.562    501.111    691.054    501.111    503.849    501.111
 64.170    763.000    751.495     11.505    501.198    748.760    501.198    503.858    501.198
 64.270    862.632    817.986     44.646    501.284    815.306    501.284    503.873    501.284
 64.370    942.966    887.288     55.678    501.371    884.660    501.371    503.893    501.371
 64.470    993.573    950.214     43.359    501.458    947.640    501.458    503.919    501.458
 64.570   1008.000    996.025     11.975    501.545    993.510    501.545    503.949    501.545
 64.670   1030.618   1016.130     14.487    501.631   1013.681    501.631    503.983    501.631
 64.770    952.000   1007.746    -55.746    501.718   1005.366    501.718    504.021    501.718
 64.870    969.000    974.440     -5.440    501.804    972.129    501.804    504.063    501.804
 64.970    875.130    923.991    -48.861    501.891    921.746    501.891    504.109    501.891
 65.070    852.000    865.627    -13.627    501.977    863.440    501.977    504.157    501.977
 65.170    741.000    807.419    -66.419    502.064    805.285    502.064    504.209    502.064
 65.270    775.000    754.587     20.413    502.150    752.496    502.150    504.263    502.150
 65.370    643.000    709.332    -66.332    502.236    707.276    502.236    504.321    502.236
 65.470    626.965    671.883    -44.918    502.322    669.854    502.322    504.380    502.322
 65.570    643.533    641.699      1.833    502.408    639.691    502.408    504.443    502.408
 65.670    600.000    618.020    -18.020    502.493    616.028    502.493    504.507    502.493
 65.770    578.000    599.953    -21.953    502.579    597.974    502.579    504.574    502.579
 65.870    548.823    586.552    -37.730    502.664    584.585    502.664    504.643    502.664
 65.970    584.613    576.951      7.663    502.749    574.993    502.749    504.715    502.749
 66.070    555.701    570.429    -14.728    502.834    568.481    502.834    504.788    502.834
 66.170    562.990    566.429     -3.439    502.919    564.488    502.919    504.864    502.919
 66.270    546.000    564.525    -18.525    503.004    562.590    503.004    504.941    503.004
 66.370    585.785    564.413     21.372    503.088    562.484    503.088    505.020    503.088
 66.470    534.000    565.941    -31.941    503.172    564.014    503.172    505.102    503.172
 66.570    591.000    569.169     21.831    503.256    567.243    503.256    505.185    503.256
 66.670    562.000    574.496    -12.496    503.340    572.569    503.340    505.270    503.340
 66.770    529.000    582.867    -53.867    503.424    580.936    503.424    505.358    503.424
 66.870    584.849    596.076    -11.228    503.507    594.139    503.507    505.447    503.507
 66.970    592.963    617.166    -24.202    503.590    615.219    503.590    505.538    503.590
 67.070    604.077    650.813    -46.737    503.672    648.854    503.672    505.631    503.672
 67.170    740.641    703.514     37.127    503.755    701.540    503.755    505.727    503.755
 67.270    780.000    783.251     -3.251    503.837    781.258    503.837    505.824    503.837
 67.370    872.248    898.347    -26.098    503.918    896.337    503.918    505.924    503.918
 67.470   1023.000   1055.363    -32.363    504.000   1053.338    504.000    506.026    504.000
 67.570   1225.966   1256.230    -30.263    504.081   1254.195    504.081    506.131    504.081
 67.670   1518.000   1495.214     22.786    504.162   1493.179    504.162    506.238    504.162
 67.770   1723.000   1756.512    -33.512    504.242   1754.489    504.242    506.347    504.242
 67.870   2016.000   2013.212      2.788    504.322   2011.213    504.322    506.460    504.322
 67.970   2141.700   2228.685    -86.985    504.402   2226.720    504.402    506.576    504.402
 68.070   2384.213   2362.827     21.386    504.481   2360.897    504.481    506.694    504.481
 68.170   2373.000   2385.283    -12.283    504.560   2383.372    504.560    506.817    504.560
 68.270   2338.148   2290.381     47.767    504.638   2288.459    504.638    506.943    504.638
 68.370   2084.711   2100.588    -15.877    504.716   2098.615    504.716    507.073    504.716
 68.470   1778.065   1854.480    -76.414    504.794   1852.422    504.794    507.207    504.794
 68.570   1616.000   1591.255     24.745    504.871   1589.088    504.871    507.346    504.871
 68.670   1318.000   1341.815    -23.815    504.948   1339.524    504.948    507.489    504.948
 68.770   1103.370   1126.035    -22.666    505.024   1123.615    505.024    507.639    505.024
 68.870    898.655    953.128    -54.473    505.100    950.577    505.100    507.794    505.100
 68.970    805.000    823.631    -18.631    505.176    820.952    505.176    507.956    505.176
 69.070    720.447    732.303    -11.856    505.250    729.498    505.250    508.124    505.250
 69.170    721.000    671.141     49.859    505.325    668.210    505.325    508.301    505.325
 69.270    583.401    631.819    -48.418    505.399    628.762    505.399    508.487    505.399
 69.370    632.000    607.189     24.811    505.472    604.001    505.472    508.682    505.472
 69.470    637.000    591.878     45.122    505.545    588.551    505.545    508.888    505.545
 69.570    579.000    582.243     -3.243    505.618    578.766    505.618    509.106    505.618
 69.670    564.467    576.021    -11.554    505.690    572.383    505.690    509.337    505.690
 69.770    577.000    571.903      5.097    505.761    568.089    505.761    509.583    505.761
 69.870    598.000    569.178     28.822    505.832    565.170    505.832    509.846    505.832
 69.970    554.000    567.476    -13.476    505.902    563.255    505.902    510.127    505.902
 70.070    522.091    566.621    -44.530    505.972    562.165    505.972    510.431    505.972
 70.170    578.241    566.548     11.693    506.041    561.833    506.041    510.758    506.041
 70.270    595.215    567.283     27.933    506.109    562.278    506.109    511.115    506.109
 70.370    558.000    568.946    -10.946    506.177    563.619    506.177    511.503    506.177
 70.470    614.198    571.811     42.386    506.244    566.123    506.244    511.931    506.244
 70.570    577.000    576.400      0.600    506.311    570.303    506.311    512.405    506.311
 70.670    569.000    583.630    -14.630    506.377    577.066    506.377    512.935    506.377
 70.770    637.000    595.017     41.983    506.442    587.914    506.442    513.535    506.442
 70.870    644.000    612.890     31.110    506.507    605.157    506.507    514.224    506.507
 70.970    687.249    640.553     46.696    506.571    632.072    506.571    515.028    506.571
 71.070    668.295    682.277    -13.982    506.635    672.892    506.635    515.982    506.635
 71.170    774.000    742.961     31.039    506.698    732.470    506.698    517.134    506.698
 71.270    838.000    827.369     10.631    506.760    815.505    506.760    518.549    506.760
 71.370   1007.000    938.907     68.093    506.821    925.323    506.821    520.308    506.821
 71.470   1145.000   1078.100     66.900    506.882   1062.350    506.882    522.512    506.882
 71.570   1214.000   1241.088    -27.088    506.942   1222.607    506.942    525.282    506.942
 71.670   1484.539   1418.471     66.068    507.001   1396.565    507.001    528.752    507.001
 71.770   1665.000   1594.813     70.187    507.060   1568.646    507.060    533.067    507.060
 71.870   1740.000   1749.149     -9.149    507.118   1717.753    507.118    538.363    507.118
 71.970   1831.000   1857.640    -26.640    507.175   1819.929    507.175    544.757    507.175
 72.070   1903.000   1900.002      2.998    507.231   1854.816    507.231    552.322    507.231
 72.170   1813.411   1868.357    -54.946    507.287   1814.525    507.287    561.058    507.287
 72.270   1840.000   1771.543     68.457    507.342   1707.986    507.342    570.869    507.342
 72.370   1604.000   1630.235    -26.235    507.396   1556.108    507.396    581.517    507.396
 72.470   1528.000   1467.955     60.045    507.449   1382.837    507.449    592.576    507.449
 72.570   1345.000   1304.812     40.188    507.502   1208.944    507.502    603.387    507.502
 72.670   1150.402   1155.028     -4.626    507.553   1049.562    507.553    613.039    507.553
 72.770   1074.317   1026.603     47.714    507.604    913.784    507.604    620.442    507.604
 72.870    894.456    922.100    -27.643    507.654    805.219    507.654    624.551    507.654
 72.970    772.000    840.169    -68.169    507.704    723.185    507.704    624.700    507.704
 73.070    784.000    777.340      6.660    507.752    664.229    507.752    620.872    507.752
 73.170    708.000    729.532    -21.532    507.800    623.635    507.800    613.703    507.800
 73.270    701.000    692.983      8.017    507.847    596.606    507.847    604.229    507.847
 73.370    637.000    664.657    -27.657    507.892    579.011    507.892    593.543    507.892
 73.470    618.000    642.325    -24.325    507.938    567.696    507.938    582.571    507.938
 73.570    657.000    624.474     32.526    507.982    560.478    507.982    571.983    507.982
 73.670    604.923    610.155     -5.233    508.025    555.971    508.025    562.216    508.025
 73.770    600.000    598.803      1.197    508.067    553.365    508.067    553.515    508.067
 73.870    584.000    590.066     -6.066    508.109    552.204    508.109    545.984    508.109
 73.970    551.000    583.676    -32.676    508.150    552.217    508.150    539.625    508.150
 74.070    588.000    579.356      8.644    508.189    553.198    508.189    534.368    508.189
 74.170    571.000    576.763     -5.763    508.228    554.918    508.228    530.100    508.228
 74.270    589.733    575.463     14.270    508.266    557.079    508.266    526.682    508.266
 74.370    601.000    574.928     26.072    508.303    559.297    508.303    523.973    508.303
 74.470    596.587    574.559     22.028    508.339    561.106    508.339    521.835    508.339
 74.570    641.000    573.758     67.242    508.374    562.032    508.374    520.147    508.374
 74.670    602.000    572.068     29.932    508.408    561.716    508.408    518.807    508.408
 74.770    616.000    569.323     46.677    508.442    560.077    508.442    517.733    508.442
 74.870    591.243    565.700     25.544    508.474    557.356    508.474    516.860    508.474
 74.970    613.000    561.618     51.382    508.505    554.020    508.505    516.139    508.505
 75.070    599.000    557.593     41.407    508.535    550.625    508.535    515.534    508.535
 75.170    560.000    554.148      5.852    508.565    547.718    508.565    515.018    508.565
 75.270    631.000    551.783     79.217    508.593    545.821    508.593    514.573    508.593
 75.370    596.000    550.992     45.008    508.620    545.439    508.620    514.183    508.620
 75.470    591.329    552.265     39.063    508.646    547.075    508.646    513.840    508.646
 75.570    548.000    556.098     -8.098    508.672    551.232    508.672    513.536    508.672
 75.670    602.000    562.956     39.044    508.696    558.379    508.696    513.264    508.696
 75.770    537.341    573.208    -35.867    508.719    568.892    508.719    513.020    508.719
 75.870    592.000    587.025      4.975    508.741    582.944    508.741    512.800    508.741
 75.970    605.000    604.247      0.753    508.762    600.378    508.762    512.601    508.762
 76.070    625.000    624.257      0.743    508.782    620.581    508.782    512.420    508.782
 76.170    666.000    645.892     20.108    508.801    642.392    508.801    512.256    508.801
 76.270    667.213    667.396     -0.182    508.819    664.057    508.819    512.106    508.819
 76.370    697.410    686.474     10.936    508.836    683.285    508.836    511.968    508.836
 76.470    720.000    700.527     19.473    508.852    697.478    508.852    511.842    508.852
 76.570    684.000    707.203    -23.203    508.867    704.287    508.867    511.726    508.867
 76.670    730.499    705.203     25.295    508.880    702.412    508.880    511.619    508.880
 76.770    671.000    694.842    -23.842    508.893    692.169    508.893    511.520    508.893
 76.870    668.000    677.893     -9.893    508.904    675.332    508.904    511.427    508.904
 76.970    671.898    656.861     15.037    508.915    654.405    508.915    511.341    508.915
 77.070    631.000    634.248     -3.248    508.924    631.888    508.924    511.261    508.924
 77.170    604.000    612.127     -8.127    508.932    609.857    508.932    511.186    508.932
 77.270    594.000    591.989      2.011    508.939    589.800    508.939    511.115    508.939
 77.370    552.000    574.722    -22.722    508.945    572.610    508.945    511.049    508.945
 77.470    583.000    560.681     22.319    508.949    558.639    508.949    510.986    508.949
 77.570    539.000    549.791    -10.791    508.953    547.814    508.953    510.926    508.953
 77.670    495.000    541.696    -46.696    508.955    539.779    508.955    510.869    508.955
 77.770    541.000    535.893      5.107    508.957    534.033    508.957    510.815    508.957
 77.870    523.894    531.851     -7.957    508.957    530.043    508.957    510.763    508.957
 77.970    552.000    529.076     22.924    508.956    527.317    508.956    510.714    508.956
 78.070    524.000    527.175     -3.175    508.954    525.462    508.954    510.666    508.954
 78.170    516.346    525.896     -9.550    508.950    524.226    508.950    510.620    508.950
 78.270    481.000    525.013    -44.013    508.946    523.383    508.946    510.576    508.946
 78.370    538.000    524.392     13.608    508.940    522.799    508.940    510.532    508.940
 78.470    491.539    523.955    -32.416    508.933    522.397    508.933    510.491    508.933
 78.570    526.000    523.659      2.341    508.925    522.133    508.925    510.450    508.925
 78.670    486.000    523.487    -37.487    508.915    521.991    508.915    510.411    508.915
 78.770    522.000    523.437     -1.437    508.905    521.968    508.905    510.373    508.905
 78.870    519.000    523.520     -4.520    508.893    522.076    508.893    510.336    508.893
 78.970    543.932    523.753     20.178    508.880    522.332    508.880    510.301    508.880
 79.070    513.000    524.163    -11.163    508.866    522.761    508.866    510.267    508.866
 79.170    550.000    524.775     25.225    508.851    523.390    508.851    510.235    508.851
 79.270    488.000    525.619    -37.619    508.834    524.248    508.834    510.204    508.834
 79.370    526.583    526.728     -0.144    508.816    525.367    508.816    510.175    508.816
 79.470    506.000    528.135    -22.135    508.797    526.782    508.797    510.147    508.797
 79.570    510.000    529.890    -19.890    508.777    528.541    508.777    510.122    508.777
 79.670    478.000    532.059    -54.059    508.755    530.711    508.755    510.099    508.755
 79.770    534.000    534.747     -0.747    508.732    533.397    508.732    510.078    508.732
 79.870    574.000    538.105     35.895    508.708    536.750    508.708    510.058    508.708
 79.970    528.000    542.354    -14.354    508.683    540.992    508.683    510.041    508.683
 80.070    515.630    547.801    -32.171    508.656    546.430    508.656    510.024    508.656
 80.170    501.000    554.846    -53.846    508.628    553.464    508.628    510.008    508.628
 80.270    550.000    563.946    -13.946    508.599    562.553    508.599    509.991    508.599
 80.370    559.338    575.532    -16.194    508.569    574.130    508.569    509.972    508.569
 80.470    628.000    589.895     38.105    508.537    588.488    508.537    509.949    508.537
 80.570    588.000    607.078    -19.078    508.504    605.670    508.504    509.921    508.504
 80.670    612.825    626.790    -13.965    508.470    625.388    508.470    509.886    508.470
 80.770    653.758    648.360      5.398    508.434    646.972    508.434    509.842    508.434
 80.870    646.833    670.754    -23.922    508.397    669.389    508.397    509.789    508.397
 80.970    694.000    692.670      1.330    508.359    691.335    508.359    509.727    508.359
 81.070    712.000    712.714     -0.714    508.320    711.415    508.320    509.659    508.320
 81.170    737.000    729.577      7.423    508.279    728.318    508.279    509.586    508.279
 81.270    767.000    742.171     24.829    508.237    740.954    508.237    509.510    508.237
 81.370    741.000    749.719     -8.719    508.193    748.543    508.193    509.431    508.193
 81.470    715.000    751.838    -36.838    508.149    750.702    508.149    509.352    508.149
 81.570    760.000    748.572     11.428    508.103    747.472    508.103    509.274    508.103
 81.670    721.955    740.327    -18.372    508.056    739.260    508.056    509.196    508.056
 81.770    688.000    727.828    -39.828    508.007    726.790    508.007    509.119    508.007
 81.870    690.000    712.102    -22.102    507.957    711.089    507.957    509.043    507.957
 81.970    745.000    694.392     50.608    507.906    693.399    507.906    508.969    507.906
 82.070    719.294    675.917     43.377    507.853    674.941    507.853    508.897    507.853
 82.170    655.000    657.637     -2.637    507.799    656.675    507.799    508.825    507.799
 82.270    672.609    640.148     32.461    507.744    639.197    507.744    508.754    507.744
 82.370    613.000    623.744    -10.744    507.687    622.802    507.687    508.684    507.687
 82.470    602.977    608.577     -5.600    507.629    607.640    507.629    508.614    507.629
 82.570    581.000    594.785    -13.785    507.570    593.852    507.570    508.545    507.570
 82.670    572.000    582.546    -10.546    507.510    581.616    507.510    508.476    507.510
 82.770    562.000    572.053    -10.053    507.448    571.123    507.448    508.406    507.448
 82.870    607.792    563.476     44.316    507.384    562.546    507.384    508.337    507.384
 82.970    522.637    556.946    -34.309    507.320    556.014    507.320    508.267    507.320
 83.070    539.000    552.532    -13.532    507.254    551.598    507.254    508.196    507.254
 83.170    525.483    550.236    -24.753    507.187    549.298    507.187    508.125    507.187
 83.270    564.000    549.966     14.034    507.118    549.023    507.118    508.053    507.118
 83.370    562.000    551.526     10.474    507.048    550.578    507.048    507.980    507.048
 83.470    567.000    554.602     12.398    506.977    553.649    506.977    507.906    506.977
 83.570    555.000    558.765     -3.765    506.904    557.807    506.904    507.832    506.904
 83.670    524.263    563.479    -39.216    506.830    562.515    506.830    507.756    506.830
 83.770    599.376    568.125     31.250    506.754    567.157    506.754    507.680    506.754
 83.870    584.000    572.045     11.955    506.678    571.075    506.678    507.603    506.678
 83.970    554.000    574.613    -20.613    506.600    573.640    506.600    507.524    506.600
 84.070    578.000    575.345      2.655    506.520    574.373    506.520    507.445    506.520
 84.170    561.000    574.029    -13.029    506.439    573.058    506.439    507.365    506.439
 84.270    529.000    570.775    -41.775    506.357    569.807    506.357    507.283    506.357
 84.370    566.912    565.961      0.950    506.274    564.997    506.274    507.201    506.274
 84.470    556.000    560.109     -4.109    506.189    559.149    506.189    507.118    506.189
 84.570    575.000    553.761     21.239    506.102    552.804    506.102    507.033    506.102
 84.670    540.000    547.404     -7.404    506.015    546.450    506.015    506.948    506.015
 84.770    524.000    541.426    -17.426    505.926    540.473    505.926    506.861    505.926
 84.870    522.000    536.098    -14.098    505.835    535.147    505.835    506.774    505.835
 84.970    514.579    531.579    -17.000    505.744    530.627    505.744    506.685    505.744
 85.070    522.000    527.922     -5.922    505.651    526.969    505.651    506.596    505.651
 85.170    527.908    525.101      2.807    505.556    524.146    505.556    506.505    505.556
 85.270    524.000    523.038      0.962    505.460    522.079    505.460    506.414    505.460
 85.370    491.000    521.629    -30.629    505.363    520.666    505.363    506.321    505.363
 85.470    524.000    520.770      3.230    505.265    519.803    505.265    506.228    505.265
 85.570    494.000    520.376    -26.376    505.165    519.404    505.165    506.133    505.165
 85.670    529.000    520.391      8.609    505.064    519.412    505.064    506.037    505.064
 85.770    498.623    520.797    -22.174    504.961    519.811    504.961    505.941    504.961
 85.870    505.000    521.616    -16.616    504.857    520.622    504.857    505.843    504.857
 85.970    510.227    522.912    -12.686    504.752    521.910    504.752    505.745    504.752
 86.070    524.000    524.790     -0.790    504.646    523.778    504.646    505.645    504.646
 86.170    516.000    527.386    -11.386    504.538    526.364    504.538    505.545    504.538
 86.270    496.000    530.859    -34.859    504.428    529.824    504.428    505.443    504.428
 86.370    542.000    535.371      6.629    504.318    534.322    504.318    505.341    504.318
 86.470    569.000    541.068     27.932    504.206    540.003    504.206    505.238    504.206
 86.570    522.000    548.044    -26.044    504.092    546.963    504.092    505.134    504.092
 86.670    579.000    556.317     22.683    503.978    555.216    503.978    505.029    503.978
 86.770    603.000    565.784     37.216    503.862    564.662    503.862    504.923    503.862
 86.870    604.384    576.201     28.183    503.744    575.058    503.744    504.817    503.744
 86.970    589.279    587.161      2.117    503.626    585.995    503.626    504.709    503.626
 87.070    598.000    598.088     -0.088    503.506    596.899    503.506    504.601    503.506
 87.170    626.000    608.251     17.749    503.385    607.042    503.385    504.492    503.385
 87.270    588.076    616.810    -28.734    503.262    615.581    503.262    504.383    503.262
 87.370    664.550    622.922     41.628    503.138    621.677    503.138    504.272    503.138
 87.470    582.000    625.919    -43.919    503.013    624.661    503.013    504.161    503.013
 87.570    621.000    625.499     -4.499    502.886    624.231    502.886    504.050    502.886
 87.670    663.811    621.824     41.987    502.758    620.549    502.758    503.938    502.758
 87.770    643.000    615.463     27.537    502.629    614.182    502.629    503.825    502.629
 87.870    653.545    607.229     46.316    502.498    605.944    502.498    503.712    502.498
 87.970    602.079    598.027      4.052    502.366    596.736    502.366    503.598    502.366
 88.070    544.940    588.737    -43.797    502.233    587.440    502.233    503.484    502.233
 88.170    596.000    580.149     15.851    502.099    578.844    502.099    503.369    502.099
 88.270    591.423    572.914     18.509    501.963    571.600    501.963    503.254    501.963
 88.370    586.661    567.515     19.146    501.826    566.188    501.826    503.139    501.826
 88.470    587.000    564.244     22.756    501.688    562.903    501.688    503.025    501.688
 88.570    566.388    563.208      3.180    501.548    561.851    501.548    502.910    501.548
 88.670    575.100    564.328     10.772    501.407    562.953    501.407    502.795    501.407
 88.770    525.941    567.355    -41.413    501.265    565.960    501.265    502.680    501.265
 88.870    542.000    571.889    -29.889    501.121    570.474    501.121    502.565    501.121
 88.970    579.000    577.405      1.595    500.977    575.966    500.977    502.451    500.977
 89.070    591.000    583.274      7.726    500.831    581.811    500.831    502.338    500.831
 89.170    596.035    588.803      7.232    500.684    587.313    500.684    502.225    500.684
 89.270    588.000    593.282     -5.282    500.535    591.762    500.535    502.113    500.535
 89.370    601.000    596.069      4.931    500.385    594.515    500.385    502.001    500.385
 89.470    639.204    596.695     42.510    500.234    595.103    500.234    501.891    500.234
 89.570    613.000    594.972     18.028    500.082    593.337    500.082    501.783    500.082
 89.670    625.450    591.030     34.420    499.929    589.347    499.929    501.676    499.929
 89.770    539.000    585.253    -46.253    499.774    583.516    499.774    501.571    499.774
 89.870    536.058    578.181    -42.123    499.618    576.386    499.618    501.469    499.618
 89.970    564.000    570.406     -6.406    499.461    568.547    499.461    501.369    499.461
 90.070    546.000    562.443    -16.443    499.303    560.516    499.303    501.273    499.303
 90.170    586.222    554.737     31.486    499.143    552.735    499.143    501.181    499.143
 90.270    533.584    547.626    -14.042    498.982    545.544    498.982    501.094    498.982
 90.370    543.000    541.343      1.657    498.820    539.175    498.820    501.012    498.820
 90.470    501.354    536.016    -34.662    498.657    533.753    498.657    500.938    498.657
 90.570    537.000    531.681      5.319    498.493    529.315    498.493    500.873    498.493
 90.670    553.811    528.306     25.505    498.327    525.826    498.327    500.818    498.327
 90.770    486.843    525.812    -38.969    498.161    523.204    498.161    500.776    498.161
 90.870    462.000    524.097    -62.097    497.993    521.345    497.993    500.749    497.993
 90.970    513.000    523.057    -10.057    497.824    520.141    497.824    500.742    497.824
 91.070    506.735    522.604    -15.869    497.654    519.501    497.654    500.758    497.654
 91.170    552.000    522.678     29.322    497.482    519.359    497.482    500.801    497.482
 91.270    518.000    523.254     -5.254    497.310    519.686    497.310    500.877    497.310
 91.370    516.000    524.349     -8.349    497.136    520.491    497.136    500.992    497.136
 91.470    517.000    526.021     -9.021    496.962    521.828    496.962    501.152    496.962
 91.570    498.000    528.373    -30.373    496.786    523.790    496.786    501.363    496.786
 91.670    570.353    531.551     38.801    496.609    526.519    496.609    501.634    496.609
 91.770    492.199    535.731    -43.532    496.431    530.182    496.431    501.970    496.431
 91.870    554.472    541.113     13.359    496.252    534.974    496.252    502.379    496.252
 91.970    539.000    547.908     -8.908    496.072    541.098    496.072    502.866    496.072
 92.070    557.000    556.320      0.680    495.891    548.754    495.891    503.436    495.891
 92.170    586.000    566.519     19.481    495.708    558.110    495.708    504.092    495.708
 92.270    596.000    578.625     17.375    495.525    569.283    495.525    504.836    495.525
 92.370    638.633    592.674     45.958    495.341    582.313    495.341    505.666    495.341
 92.470    646.956    608.604     38.352    495.155    597.141    495.155    506.575    495.155
 92.570    592.190    626.228    -34.039    494.969    613.592    494.969    507.555    494.969
 92.670    642.000    645.227     -3.227    494.781    631.361    494.781    508.591    494.781
 92.770    690.000    665.109     24.891    494.593    649.980    494.593    509.661    494.593
 92.870    682.708    685.329     -2.621    494.403    668.933    494.403    510.734    494.403
 92.970    669.643    705.223    -35.580    494.213    687.593    494.213    511.773    494.213
 93.070    725.000    724.073      0.927    494.021    705.292    494.021    512.730    494.021
 93.170    766.000    741.290     24.710    493.829    721.496    493.829    513.550    493.829
 93.270    770.000    756.512     13.488    493.635    735.899    493.635    514.175    493.635
 93.370    745.000    769.650    -24.650    493.441    748.467    493.441    514.551    493.441
 93.470    790.000    780.856      9.144    493.245    759.393    493.245    514.638    493.245
 93.570    821.000    790.393     30.607    493.049    768.959    493.049    514.415    493.049
 93.670    812.000    798.563     13.437    492.852    777.463    492.852    513.886    492.852
 93.770    856.000    805.676     50.324    492.654    785.186    492.654    513.080    492.654
 93.870    828.000    812.086     15.914    492.455    792.437    492.455    512.044    492.455
 93.970    837.494    818.238     19.257    492.255    799.602    492.255    510.833    492.255
 94.070    819.000    824.636     -5.636    492.054    807.130    492.054    509.505    492.054
 94.170    874.000    831.727     42.273    491.852    815.415    491.852    508.112    491.852
 94.270    892.000    839.730     52.270    491.650    824.630    491.650    506.700    491.650
 94.370    900.000    848.494     51.506    491.446    834.590    491.446    505.304    491.446
 94.470    853.000    857.449     -4.449    491.242    844.698    491.242    503.951    491.242
 94.570    820.906    865.635    -44.729    491.037    853.975    491.037    502.660    491.037
 94.670    892.000    871.810     20.190    490.831    861.165    490.831    501.445    490.831
 94.770    870.943    874.623     -3.680    490.624    864.910    490.624    500.314    490.624
 94.870    839.974    872.859    -32.884    490.417    863.988    490.417    499.271    490.417
 94.970    862.713    865.701     -2.988    490.208    857.585    490.208    498.317    490.208
 95.070    889.662    852.958     36.703    489.999    845.507    489.999    497.450    489.999
 95.170    830.093    835.134     -5.041    489.790    828.262    489.790    496.666    489.790
 95.270    833.643    813.336     20.307    489.579    806.963    489.579    495.962    489.579
 95.370    815.000    789.080     25.920    489.368    783.131    489.368    495.330    489.368
 95.470    767.792    764.089      3.703    489.156    758.495    489.156    494.764    489.156
 95.570    765.125    740.130     24.995    488.943    734.829    488.943    494.257    488.943
 95.670    762.600    718.914     43.686    488.729    713.852    488.729    493.803    488.729
 95.770    712.000    702.022      9.978    488.515    697.150    488.515    493.395    488.515
 95.870    701.226    690.868     10.358    488.301    686.144    488.301    493.026    488.301
 95.970    699.000    686.672     12.328    488.085    682.060    488.085    492.693    488.085
 96.070    651.000    690.452    -39.452    487.869    685.920    487.869    492.390    487.869
 96.170    719.889    703.010     16.879    487.652    698.531    487.652    492.112    487.652
 96.270    774.514    724.922     49.592    487.435    720.472    487.435    491.857    487.435
 96.370    777.000    756.493     20.507    487.217    752.051    487.217    491.622    487.217
 96.470    772.923    797.751    -24.828    486.999    793.300    486.999    491.405    486.999
 96.570    877.198    848.330     28.868    486.779    843.853    486.779    491.203    486.779
 96.670    915.000    907.399      7.601    486.560    902.882    486.560    491.016    486.560
 96.770    947.764    973.607    -25.843    486.340    969.037    486.340    490.843    486.340
 96.870   1046.000   1045.028      0.972    486.119   1040.394    486.119    490.683    486.119
 96.970   1103.955   1119.134    -15.180    485.898   1114.426    485.898    490.536    485.898
 97.070   1127.686   1192.813    -65.128    485.676   1188.020    485.676    490.402    485.676
 97.170   1278.000   1262.439     15.561    485.454   1257.550    485.454    490.282    485.454
 97.270   1340.000   1324.035     15.965    485.231   1319.041    485.231    490.175    485.231
 97.370   1400.970   1373.588     27.383    485.008   1368.476    485.008    490.084    485.008
 97.470   1432.253   1407.529     24.724    484.784   1402.286    484.784    490.009    484.784
 97.570   1432.000   1423.331      8.669    484.560   1417.940    484.560    489.952    484.560
 97.670   1431.000   1420.015     10.985    484.336   1414.455    484.336    489.916    484.336
 97.770   1478.000   1398.331     79.669    484.111   1392.578    484.111    489.903    484.111
 97.870   1412.000   1360.533     51.467    483.886   1354.556    483.886    489.916    483.886
 97.970   1305.997   1309.883     -3.887    483.660   1303.647    483.660    489.961    483.660
 98.070   1222.462   1250.129    -27.668    483.434   1243.594    483.434    490.042    483.434
 98.170   1246.988   1185.104     61.884    483.208   1178.222    483.208    490.167    483.208
 98.270   1074.247   1118.468    -44.221    482.982   1111.183    482.982    490.343    482.982
 98.370   1052.000   1053.560     -1.560    482.755   1045.808    482.755    490.580    482.755
 98.470    989.000    993.318     -4.318    482.528    985.025    482.528    490.889    482.528
 98.570    887.971    940.244    -52.273    482.300    931.321    482.300    491.285    482.300
 98.670    902.000    896.402      5.598    482.073    886.747    482.073    491.781    482.073
 98.770    887.944    863.433     24.511    481.845    852.926    481.845    492.396    481.845
 98.870    864.663    842.592     22.071    481.617    831.095    481.617    493.149    481.617
 98.970    833.152    834.793     -1.640    481.389    822.147    481.389    494.061    481.389
 99.070    786.935    840.649    -53.714    481.160    826.674    481.160    495.154    481.160
 99.170    868.000    860.510      7.490    480.932    845.003    480.932    496.451    480.932
 99.270    946.423    894.469     51.954    480.703    877.204    480.703    497.975    480.703
 99.370    928.606    942.346    -13.740    480.474    923.076    480.474    499.750    480.474
 99.470    974.000   1003.649    -29.649    480.245    982.104    480.245    501.794    480.245
 99.570   1013.935   1077.507    -63.572    480.017   1053.404    480.017    504.125    480.017
 99.670   1059.000   1162.625   -103.625    479.788   1135.666    479.788    506.758    479.788
 99.770   1247.000   1257.187    -10.187    479.558   1227.068    479.558    509.697    479.558
 99.870   1310.000   1358.823    -48.823    479.329   1325.240    479.329    512.944    479.329
 99.970   1488.000   1464.586     23.414    479.100   1427.246    479.100    516.489    479.100
100.070   1650.000   1570.996     79.004    478.871   1529.625    478.871    520.311    478.871
100.170   1718.000   1674.171     43.829    478.642   1628.528    478.642    524.377    478.642
100.270   1771.000   1770.078      0.922    478.413   1719.972    478.413    528.636    478.413
100.370   1916.567   1854.862     61.705    478.185   1800.168    478.185    533.023    478.185
100.470   1853.525   1925.195    -71.669    477.956   1865.875    477.956    537.448    477.956
100.570   2054.973   1978.442     76.531    477.727   1914.571    477.727    541.798    477.727
100.670   2021.668   2012.658      9.010    477.499   1944.443    477.499    545.938    477.499
100.770   1985.000   2026.562    -41.562    477.270   1954.371    477.270    549.707    477.270
100.870   2026.000   2019.577      6.423    477.042   1943.949    477.042    552.932    477.042
100.970   2037.211   1992.035     45.176    476.814   1913.684    476.814    555.438    476.814
101.070   1988.000   1945.453     42.547    476.587   1865.251    476.587    557.067    476.587
101.170   1913.602   1882.650     30.952    476.359   1801.584    476.359    557.702    476.359
101.270   1845.000   1807.559     37.441    476.132   1726.674    476.132    557.288    476.132
101.370   1692.000   1724.761    -32.761    475.905   1645.090    475.905    555.838    475.905
101.470   1572.000   1638.918    -66.918    475.678   1561.412    475.678    553.432    475.678
101.570   1532.796   1554.286    -21.490    475.452   1479.763    475.452    550.205    475.452
101.670   1481.000   1474.380      6.620    475.226   1403.494    475.226    546.323    475.226
101.770   1433.547   1401.813     31.734    475.001   1335.043    475.001    541.964    475.001
101.870   1280.614   1338.234    -57.619    474.776   1275.888    474.776    537.296    474.776
101.970   1245.000   1284.343    -39.343    474.551   1226.581    474.551    532.472    474.551
102.070   1258.184   1239.962     18.223    474.327   1186.815    474.327    527.618    474.327
102.170   1207.000   1204.129      2.871    474.103   1155.526    474.103    522.838    474.103
102.270   1210.000   1175.236     34.764    473.880   1131.026    473.880    518.213    473.880
102.370   1172.000   1151.202     20.798    473.657   1111.173    473.657    513.802    473.657
102.470   1112.000   1129.696    -17.696    473.435   1093.593    473.435    509.650    473.435
102.570   1051.830   1108.413    -56.583    473.213   1075.951    473.213    505.785    473.213
102.670   1033.000   1085.366    -52.366    472.992   1056.244    472.992    502.223    472.992
102.770   1062.502   1059.151      3.351    472.771   1033.061    472.771    498.969    472.771
102.870   1030.894   1029.083      1.811    472.551   1005.720    472.551    496.022    472.551
102.970    978.000    995.179    -17.179    472.332    974.245    472.332    493.372    472.332
103.070    976.000    958.008     17.992    472.114    939.221    472.114    491.004    472.114
103.170    891.000    918.489    -27.489    471.896    901.584    471.896    488.899    471.896
103.270    853.000    877.702    -24.702    471.679    862.437    471.679    487.037    471.679
103.370    863.000    836.748     26.252    471.463    822.902    471.463    485.394    471.463
103.470    784.752    796.654    -11.902    471.247    784.033    471.247    483.947    471.247
103.570    789.000    758.320     30.680    471.033    746.749    471.033    482.674    471.033
103.670    736.000    722.476     13.524    470.819    711.805    470.819    481.553    470.819
103.770    711.824    689.667     22.156    470.606    679.765    470.606    480.563    470.606
103.870    693.000    660.246     32.754    470.394    651.002    470.394    479.685    470.394
103.970    601.528    634.381    -32.853    470.183    625.700    470.183    478.904    470.183
104.070    680.000    612.073     67.927    469.972    603.875    469.972    478.204    469.972
104.170    562.645    593.189    -30.544    469.763    585.406    469.763    477.573    469.763
104.270    572.976    577.491     -4.515    469.555    570.068    469.555    477.001    469.555
104.370    590.000    564.675     25.325    469.348    557.564    469.348    476.477    469.348
104.470    591.000    554.400     36.600    469.141    547.562    469.141    475.994    469.141
104.570    564.000    546.323     17.677    468.936    539.724    468.936    475.547    468.936
104.670    558.559    540.115     18.444    468.732    533.726    468.732    475.130    468.732
104.770    524.997    535.482    -10.484    468.530    529.279    468.530    474.738    468.530
104.870    596.000    532.172     63.828    468.328    526.135    468.328    474.369    468.328
104.970    502.060    529.987    -27.927    468.127    524.096    468.127    474.020    468.127
105.070    534.000    528.777      5.223    467.928    523.016    467.928    473.689    467.928
105.170    521.000    528.440     -7.440    467.730    522.796    467.730    473.373    467.730
105.270    573.361    528.924     44.437    467.533    523.383    467.533    473.071    467.533
105.370    567.000    530.213     36.787    467.338    524.763    467.338    472.783    467.338
105.470    524.000    532.328     -8.328    467.144    526.958    467.144    472.507    467.144
105.570    498.652    535.317    -36.665    466.951    530.017    466.951    472.242    466.951
105.670    542.000    539.252      2.748    466.759    534.012    466.759    471.989    466.759
105.770    521.000    544.206    -23.206    466.570    539.017    466.570    471.745    466.570
105.870    548.817    550.250     -1.433    466.381    545.104    466.381    471.511    466.381
105.970    548.000    557.437     -9.437    466.194    552.327    466.194    471.286    466.194
106.070    533.359    565.789    -32.430    466.008    560.706    466.008    471.070    466.008
106.170    620.000    575.285     44.715    465.824    570.222    465.824    470.862    465.824
106.270    598.000    585.852     12.148    465.642    580.802    465.642    470.664    465.642
106.370    579.000    597.359    -18.359    465.461    592.316    465.461    470.473    465.461
106.470    568.000    609.610    -41.610    465.282    604.568    465.282    470.290    465.282
106.570    662.999    622.364     40.635    465.105    617.317    465.105    470.115    465.105
106.670    663.807    635.318     28.490    464.929    630.260    464.929    469.948    464.929
106.770    634.000    648.115    -14.115    464.755    643.041    464.755    469.788    464.755
106.870    662.717    660.371      2.346    464.582    655.275    464.582    469.636    464.582
106.970    694.228    671.685     22.543    464.412    666.563    464.412    469.492    464.412
107.070    659.000    681.676    -22.676    464.243    676.522    464.243    469.356    464.243
107.170    679.000    690.018    -11.018    464.076    684.828    464.076    469.227    464.076
107.270    685.723    696.492    -10.768    463.911    691.260    463.911    469.107    463.911
107.370    727.000    701.022     25.978    463.748    695.743    463.748    468.994    463.748
107.470    663.130    703.698    -40.568    463.587    698.368    463.587    468.888    463.587
107.570    682.029    704.764    -22.734    463.428    699.376    463.428    468.791    463.428
107.670    721.840    704.575     17.265    463.271    699.124    463.271    468.702    463.271
107.770    668.000    703.547    -35.547    463.116    698.026    463.116    468.621    463.116
107.870    700.714    702.094     -1.380    462.963    696.497    462.963    468.549    462.963
107.970    712.000    700.584     11.416    462.812    694.904    462.812    468.486    462.812
108.070    700.210    699.306      0.904    462.664    693.536    462.664    468.431    462.664
108.170    659.051    698.446    -39.395    462.517    692.579    462.517    468.386    462.517
108.270    677.000    698.077    -21.077    462.373    692.106    462.373    468.350    462.373
108.370    688.000    698.153    -10.153    462.231    692.070    462.231    468.324    462.231
108.470    667.158    698.517    -31.359    462.091    692.314    462.091    468.309    462.091
108.570    699.681    698.904      0.777    461.954    692.572    461.954    468.303    461.954
108.670    652.000    698.971    -46.971    461.819    692.502    461.819    468.309    461.819
108.770    649.000    698.329    -49.329    461.686    691.712    461.686    468.327    461.686
108.870    770.000    696.589     73.411    461.556    689.815    461.556    468.356    461.556
108.970    722.000    693.422     28.578    461.428    686.481    461.428    468.399    461.428
109.070    698.000    688.610      9.390    461.303    681.489    461.303    468.454    461.303
109.170    699.862    682.077     17.785    461.180    674.765    461.180    468.524    461.180
109.270    679.311    673.899      5.412    461.060    666.383    461.060    468.609    461.060
109.370    633.071    664.280    -31.210    460.943    656.546    460.943    468.709    460.943
109.470    643.000    653.515    -10.515    460.828    645.547    460.828    468.827    460.828
109.570    687.000    641.944     45.056    460.716    633.726    460.716    468.963    460.716
109.670    669.000    629.921     39.079    460.606    621.436    460.606    469.119    460.606
109.770    645.000    617.787     27.213    460.500    609.016    460.500    469.297    460.500
109.870    604.000    605.851     -1.851    460.396    596.775    460.396    469.498    460.396
109.970    623.099    594.389     28.710    460.295    584.980    460.295    469.725    460.295
110.070    637.000    583.626     53.374    460.197    573.860    460.197    469.981    460.197
110.170    614.000    573.740     40.260    460.101    563.588    460.101    470.269    460.101
110.270    548.628    564.861    -16.233    460.009    554.291    460.009    470.593    460.009
110.370    553.000    557.073     -4.073    459.920    546.046    459.920    470.958    459.920
110.470    565.000    550.413     14.587    459.834    538.888    459.834    471.368    459.834
110.570    526.000    544.884    -18.884    459.750    532.810    459.750    471.831    459.750
110.670    535.534    540.453     -4.919    459.670    527.775    459.670    472.353    459.670
110.770    520.000    537.066    -17.066    459.593    523.720    459.593    472.943    459.593
110.870    554.492    534.652     19.840    459.520    520.562    459.520    473.611    459.520
110.970    513.676    533.128    -19.451    459.449    518.209    459.449    474.368    459.449
111.070    498.266    532.409    -34.143    459.382    516.563    459.382    475.227    459.382
111.170    558.000    532.413     25.587    459.318    515.526    459.318    476.203    459.318
111.270    564.000    533.061     30.939    459.257    515.004    459.257    477.311    459.257
111.370    560.000    534.287     25.713    459.200    514.912    459.200    478.571    459.200
111.470    526.000    536.032    -10.032    459.147    515.172    459.147    480.002    459.147
111.570    508.537    538.248    -29.712    459.096    515.714    459.096    481.625    459.096
111.670    509.000    540.887    -31.887    459.049    516.465    459.049    483.465    459.049
111.770    513.000    543.927    -30.927    459.006    517.381    459.006    485.545    459.006
111.870    554.000    547.409      6.591    458.967    518.475    458.967    487.893    458.967
111.970    537.206    551.307    -14.101    458.931    519.696    458.931    490.534    458.931
112.070    543.000    555.632    -12.632    458.898    521.027    458.898    493.495    458.898
112.170    553.000    560.410     -7.410    458.870    522.469    458.870    496.802    458.870
112.270    548.000    565.676    -17.676    458.845    524.031    458.845    500.481    458.845
112.370    562.234    571.474     -9.240    458.824    525.733    458.824    504.555    458.824
112.470    566.000    577.852    -11.852    458.807    527.604    458.807    509.045    458.807
112.570    570.000    584.868    -14.868    458.794    529.685    458.794    513.966    458.794
112.670    597.010    592.585      4.425    458.784    532.027    458.784    519.332    458.784
112.770    609.437    601.076      8.361    458.779    534.696    458.779    525.148    458.779
112.870    589.000    610.425    -21.425    458.778    537.779    458.778    531.412    458.778
112.970    611.000    620.736     -9.736    458.780    541.387    458.780    538.117    458.780
113.070    631.000    632.135     -1.135    458.787    545.666    458.787    545.242    458.787
113.170    664.957    644.783     20.174    458.798    550.807    458.798    552.759    458.798
113.270    646.000    658.886    -12.886    458.814    557.057    458.814    560.625    458.814
113.370    692.000    674.710     17.290    458.833    564.738    458.833    568.785    458.833
113.470    691.000    692.596     -1.596    458.857    574.263    458.857    577.167    458.857
113.570    677.000    712.980    -35.980    458.885    586.156    458.885    585.682    458.885
113.670    698.000    736.416    -38.416    458.917    601.081    458.917    594.222    458.917
113.770    748.000    763.595    -15.595    458.954    619.856    458.954    602.656    458.954
113.870    759.000    795.368    -36.368    458.996    643.484    458.996    610.835    458.996
113.970    776.000    832.774    -56.774    459.042    673.173    459.042    618.588    459.042
114.070    869.000    877.049     -8.049    459.092    710.349    459.092    625.727    459.092
114.170    870.000    929.653    -59.653    459.147    756.664    459.147    632.056    459.147
114.270    965.000    992.268    -27.268    459.207    814.000    459.207    637.379    459.207
114.370   1058.000   1066.797     -8.797    459.272    884.442    459.272    641.511    459.272
114.470   1194.168   1155.348     38.820    459.341    970.250    459.341    644.301    459.341
114.570   1220.000   1260.185    -40.185    459.415   1073.797    459.415    645.639    459.415
114.670   1372.887   1383.665    -10.778    459.494   1197.492    459.494    645.473    459.494
114.770   1655.000   1528.137    126.863    459.578   1343.675    459.578    643.813    459.578
114.870   1821.000   1695.814    125.186    459.667   1514.488    459.667    640.731    459.667
114.970   1957.000   1888.621     68.379    459.761   1711.730    459.761    636.352    459.761
115.070   2231.000   2108.014    122.986    459.860   1936.696    459.860    630.839    459.860
115.170   2303.183   2354.805    -51.621    459.964   2190.009    459.964    624.381    459.964
115.270   2616.000   2628.974    -12.974    460.073   2471.454    460.073    617.177    460.073
115.370   2945.000   2929.516     15.484    460.187   2779.829    460.187    609.421    460.187
115.470   3375.000   3254.298    120.702    460.307   3112.824    460.307    601.297    460.307
115.570   3639.404   3599.974     39.430    460.431   3466.929    460.431    592.968    460.431
115.670   4010.603   3961.934     48.669    460.562   3837.392    460.562    584.578    460.562
115.770   4285.000   4334.315    -49.315    460.697   4218.229    460.697    576.250    460.697
115.870   4624.000   4710.065    -86.065    460.838   4602.286    460.838    568.087    460.838
115.970   5057.000   5081.065    -24.065    460.985   4981.366    460.985    560.171    460.985
116.070   5403.000   5438.321    -35.321    461.137   5346.405    461.137    552.569    461.137
116.170   5745.868   5772.210    -26.342    461.295   5687.731    461.295    545.334    461.295
116.270   6038.000   6072.825    -34.825    461.458   5995.401    461.458    538.501    461.458
116.370   6284.000   6330.408    -46.408    461.627   6259.628    461.627    532.099    461.627
116.470   6585.000   6535.890     49.110    461.802   6471.327    461.802    526.140    461.802
116.570   6624.428   6681.522    -57.094    461.983   6622.740    461.983    520.634    461.983
116.670   6804.000   6761.526     42.474    462.169   6708.084    462.169    515.579    462.169
116.770   6993.000   6772.649    220.351    462.362   6724.113    462.362    510.967    462.362
116.870   6721.473   6714.514      6.959    462.560   6670.458    462.560    506.785    462.560
116.970   6647.255   6589.650     57.605    462.764   6549.661    462.764    503.013    462.764
117.070   6294.577   6403.205   -108.628    462.975   6366.889    462.975    499.632    462.975
117.170   6175.000   6162.423     12.577    463.192   6129.406    463.192    496.617    463.192
117.270   5668.000   5875.995   -207.995    463.414   5845.930    463.414    493.942    463.414
117.370   5375.000   5553.429   -178.429    463.644   5525.991    463.644    491.582    463.644
117.470   5043.000   5204.479   -161.479    463.879   5179.372    463.879    489.509    463.879
117.570   4797.000   4838.699    -41.699    464.121   4815.655    464.121    487.698    464.121
117.670   4457.000   4465.089     -8.089    464.369   4443.865    464.369    486.122    464.369
117.770   4087.153   4091.830     -4.677    464.623   4072.209    464.623    484.758    464.623
117.870   3771.000   3726.097     44.903    464.884   3707.887    464.884    483.583    464.884
117.970   3390.710   3373.931     16.779    465.152   3356.964    465.152    482.576    465.152
118.070   2995.296   3040.184    -44.888    465.426   3024.313    465.426    481.717    465.426
118.170   2690.487   2728.512    -38.026    465.707   2713.609    465.707    480.989    465.707
118.270   2433.089   2441.425     -8.336    465.995   2427.379    465.995    480.376    465.995
118.370   2125.000   2180.374    -55.374    466.290   2167.090    466.290    479.865    466.290
118.470   1995.000   1945.869     49.131    466.591   1933.266    466.591    479.443    466.591
118.570   1726.000   1737.618    -11.618    466.899   1725.627    466.899    479.100    466.899
118.670   1620.000   1554.670     65.330    467.214   1543.232    467.214    478.826    467.214
118.770   1412.786   1395.570     17.216    467.537   1384.634    467.537    478.614    467.537
118.870   1238.000   1258.497    -20.497    467.866   1248.020    467.866    478.457    467.866
118.970   1077.000   1141.408    -64.408    468.202   1131.352    468.202    478.348    468.202
119.070   1026.000   1042.149    -16.149    468.546   1032.480    468.546    478.283    468.546
119.170    911.000    958.542    -47.542    468.897    949.232    468.897    478.258    468.897
119.270    912.334    888.573     23.762    469.255    879.596    469.255    478.270    469.255
119.370    787.000    830.273    -43.273    469.621    821.606    469.621    478.316    469.621
119.470    754.163    781.876    -27.713    469.994    773.497    469.994    478.392    469.994
119.570    783.629    741.810     41.819    470.375    733.699    470.375    478.498    470.375
119.670    687.000    708.706    -21.706    470.763    700.846    470.763    478.632    470.763
119.770    634.131    681.391    -47.260    471.158    673.764    471.158    478.793    471.158
119.870    656.000    658.876     -2.876    471.562    651.465    471.562    478.978    471.562
119.970    605.989    640.338    -34.348    471.973    633.126    471.973    479.188    471.973
120.070    613.848    625.099    -11.250    472.392    618.072    472.392    479.422    472.392
120.170    602.000    612.608    -10.608    472.819    605.751    472.819    479.679    472.819
120.270    575.000    602.422    -27.422    473.253    595.720    473.253    479.959    473.253
120.370    580.472    594.184    -13.712    473.696    587.623    473.696    480.261    473.696
120.470    623.000    587.610     35.390    474.147    581.176    474.147    480.586    474.147
120.570    602.549    582.475     20.074    474.606    576.154    474.606    480.932    474.606
120.670    573.245    578.599     -5.354    475.073    572.378    475.073    481.300    475.073
120.770    543.589    575.841    -32.252    475.548    569.706    475.548    481.689    475.548
120.870    538.157    574.086    -35.929    476.032    568.025    476.032    482.099    476.032
120.970    571.000    573.241     -2.241    476.523    567.241    476.523    482.531    476.523
121.070    558.000    573.229    -15.229    477.024    567.279    477.024    482.983    477.024
121.170    542.674    573.984    -31.310    477.533    568.070    477.533    483.456    477.533
121.270    593.000    575.444     17.556    478.050    569.556    478.050    483.950    478.050
121.370    513.000    577.553    -64.553    478.576    571.680    478.576    484.463    478.576
121.470    582.000    580.253      1.747    479.110    574.383    479.110    484.996    479.110
121.570    576.000    583.483     -7.483    479.654    577.606    479.654    485.548    479.654
121.670    550.205    587.178    -36.974    480.206    581.286    480.206    486.118    480.206
121.770    595.000    591.269      3.731    480.767    585.353    480.767    486.706    480.767
121.870    567.209    595.679    -28.470    481.337    589.731    481.337    487.311    481.337
121.970    583.131    600.324    -17.193    481.916    594.336    481.916    487.931    481.916
122.070    561.656    605.112    -43.456    482.504    599.081    482.504    488.566    482.504
122.170    594.000    609.948    -15.948    483.101    603.867    483.101    489.215    483.101
122.270    612.000    614.727     -2.727    483.708    608.595    483.708    489.876    483.708
122.370    648.000    619.344     28.656    484.323    613.160    484.323    490.547    484.323
122.470    633.224    623.691      9.533    484.948    617.455    484.948    491.226    484.948
122.570    584.055    627.662    -43.608    485.583    621.378    485.583    491.911    485.583
122.670    633.948    631.160      2.788    486.226    624.832    486.226    492.601    486.226
122.770    594.040    634.096    -40.056    486.880    627.732    486.880    493.292    486.880
122.870    589.166    636.400    -47.234    487.543    630.010    487.543    493.983    487.543
122.970    643.000    638.023      4.977    488.215    631.619    488.215    494.671    488.215
123.070    612.555    638.941    -26.386    488.898    632.537    488.898    495.354    488.898
123.170    664.000    639.153     24.847    489.590    632.765    489.590    496.030    489.590
123.270    658.828    638.683     20.145    490.292    632.329    490.292    496.698    490.292
123.370    591.000    637.575    -46.575    491.004    631.273    491.004    497.357    491.004
123.470    607.000    635.889    -28.889    491.726    629.657    491.726    498.007    491.726
123.570    633.000    633.694     -0.694    492.458    627.551    492.458    498.648    492.458
123.670    650.000    631.067     18.933    493.201    625.030    493.201    499.282    493.201
123.770    629.000    628.086      0.914    493.953    622.171    493.953    499.909    493.953
123.870    588.496    624.829    -36.333    494.716    619.051    494.716    500.533    494.716
123.970    643.969    621.371     22.599    495.489    615.741    495.489    501.154    495.489
124.070    618.000    617.780      0.220    496.273    612.309    496.273    501.776    496.273
124.170    597.202    614.118    -16.916    497.067    608.814    497.067    502.400    497.067
124.270    611.000    610.437      0.563    497.872    605.306    497.872    503.030    497.872
124.370    620.605    606.782     13.823    498.687    601.827    498.687    503.666    498.687
124.470    566.981    603.184    -36.204    499.513    598.408    499.513    504.310    499.513
124.570    623.000    599.669     23.331    500.350    595.071    500.350    504.966    500.350
124.670    601.000    596.252      4.748    501.198    591.831    501.198    505.634    501.198
124.770    598.000    592.941      5.059    502.057    588.696    502.057    506.315    502.057
124.870    620.000    589.739     30.261    502.927    585.666    502.927    507.010    502.927
124.970    537.000    586.644    -49.644    503.807    582.740    503.807    507.722    503.807
