neutron_powder_diffraction_0133
R_wp: 3.913
Temperature (K): 1053.113
Counts: 83735.00
Wavelength (Ã…): 2.52098
COMMENTS
Test file for demonstrating the .xyy file format in Reel1.0
END OF HEADER
   tth       Y_obs     Y_calc      Y_res    Background    Phase_1_Nuc    Phase_1_Mag    Phase_2_Nuc    Phase_2_Mag
  9.970    565.000    575.802    -10.802    574.894    575.735    574.894    574.961    574.894
 10.070    597.000    575.911     21.089    574.928    575.844    574.928    574.994    574.928
 10.170    539.132    576.024    -36.892    574.956    575.956    574.956    575.023    574.956
 10.270    595.000    576.143     18.857    574.978    576.075    574.978    575.045    574.978
 10.370    595.000    576.272     18.728    574.995    576.204    574.995    575.063    574.995
 10.470    578.000    576.415      1.585    575.007    576.347    575.007    575.075    575.007
 10.570    555.174    576.578    -21.403    575.013    576.508    575.013    575.082    575.013
 10.670    555.000    576.764    -21.764    575.014    576.693    575.014    575.084    575.014
 10.770    541.167    576.983    -35.816    575.009    576.911    575.009    575.080    575.009
 10.870    602.000    577.245     24.755    574.999    577.173    574.999    575.071    574.999
 10.970    615.000    577.567     37.433    574.985    577.494    574.985    575.056    574.985
 11.070    611.059    577.970     33.088    574.964    577.897    574.964    575.036    574.964
 11.170    582.000    578.487      3.513    574.939    578.413    574.939    575.011    574.939
 11.270    590.000    579.168     10.832    574.909    579.094    574.909    574.981    574.909
 11.370    590.000    580.106      9.894    574.874    580.031    574.874    574.947    574.874
 11.470    630.000    581.508     48.492    574.834    581.431    574.834    574.907    574.834
 11.570    603.000    583.898     19.102    574.789    583.820    574.789    574.862    574.789
 11.670    582.907    588.526     -5.619    574.739    588.445    574.739    574.813    574.739
 11.770    634.000    597.787     36.213    574.685    597.700    574.685    574.759    574.685
 11.870    635.000    614.885     20.115    574.625    614.788    574.625    574.700    574.625
 11.970    648.000    641.649      6.351    574.562    641.537    574.562    574.636    574.562
 12.070    653.000    674.311    -21.311    574.493    674.180    574.493    574.568    574.493
 12.170    697.000    699.679     -2.679    574.420    699.533    574.420    574.495    574.420
 12.270    737.000    701.307     35.693    574.342    701.160    574.342    574.418    574.342
 12.370    670.029    677.752     -7.723    574.260    677.618    574.260    574.336    574.260
 12.470    644.000    644.805     -0.805    574.173    644.689    574.173    574.250    574.173
 12.570    596.000    616.826    -20.826    574.082    616.726    574.082    574.159    574.082
 12.670    628.000    598.517     29.483    573.987    598.426    573.987    574.064    573.987
 12.770    607.000    588.406     18.594    573.888    588.321    573.888    573.965    573.888
 12.870    612.000    583.271     28.729    573.784    583.188    573.784    573.861    573.784
 12.970    545.388    580.573    -35.185    573.676    580.491    573.676    573.754    573.676
 13.070    621.281    578.952     42.329    573.564    578.870    573.564    573.642    573.564
 13.170    606.000    577.829     28.171    573.447    577.748    573.447    573.526    573.447
 13.270    597.138    576.977     20.160    573.327    576.897    573.327    573.406    573.327
 13.370    595.000    576.299     18.701    573.203    576.218    573.203    573.282    573.203
 13.470    560.000    575.739    -15.739    573.075    575.658    573.075    573.154    573.075
 13.570    541.000    575.265    -34.265    572.943    575.184    572.943    573.023    572.943
 13.670    593.000    574.854     18.146    572.806    574.772    572.806    572.887    572.806
 13.770    582.000    574.489      7.511    572.667    574.407    572.667    572.748    572.667
 13.870    568.000    574.160     -6.160    572.523    574.078    572.523    572.604    572.523
 13.970    546.000    573.857    -27.857    572.376    573.775    572.376    572.457    572.376
 14.070    564.000    573.576     -9.576    572.225    573.493    572.225    572.307    572.225
 14.170    589.898    573.310     16.588    572.070    573.227    572.070    572.153    572.070
 14.270    535.000    573.056    -38.056    571.912    572.973    571.912    571.995    571.912
 14.370    561.000    572.813    -11.813    571.750    572.729    571.750    571.833    571.750
 14.470    578.000    572.576      5.424    571.585    572.492    571.585    571.669    571.585
 14.570    578.000    572.345      5.655    571.416    572.261    571.416    571.500    571.416
 14.670    535.263    572.119    -36.856    571.244    572.034    571.244    571.328    571.244
 14.770    597.000    571.895     25.105    571.068    571.810    571.068    571.153    571.068
 14.870    559.000    571.674    -12.674    570.889    571.588    570.889    570.975    570.889
 14.970    564.000    571.457     -7.457    570.707    571.370    570.707    570.793    570.707
 15.070    596.430    571.239     25.191    570.522    571.152    570.522    570.608    570.522
 15.170    566.000    571.021     -5.021    570.333    570.934    570.333    570.420    570.333
 15.270    593.000    570.804     22.196    570.141    570.716    570.141    570.229    570.141
 15.370    589.239    570.585     18.654    569.946    570.497    569.946    570.034    569.946
 15.470    558.000    570.366    -12.366    569.748    570.277    569.748    569.837    569.748
 15.570    514.000    570.146    -56.146    569.547    570.057    569.547    569.636    569.547
 15.670    543.487    569.924    -26.438    569.343    569.835    569.343    569.433    569.343
 15.770    642.000    569.702     72.298    569.136    569.612    569.136    569.226    569.136
 15.870    524.000    569.478    -45.478    568.926    569.387    568.926    569.017    568.926
 15.970    545.000    569.253    -24.253    568.714    569.162    568.714    568.805    568.714
 16.070    587.000    569.026     17.974    568.498    568.934    568.498    568.590    568.498
 16.170    524.549    568.797    -44.248    568.280    568.705    568.280    568.372    568.280
 16.270    555.000    568.567    -13.567    568.059    568.474    568.059    568.151    568.059
 16.370    554.359    568.335    -13.975    567.835    568.241    567.835    567.928    567.835
 16.470    586.124    568.101     18.023    567.608    568.007    567.608    567.702    567.608
 16.570    597.000    567.865     29.135    567.379    567.771    567.379    567.473    567.379
 16.670    573.830    567.628      6.202    567.147    567.533    567.147    567.242    567.147
 16.770    523.000    567.389    -44.389    566.913    567.293    566.913    567.008    566.913
 16.870    555.348    567.147    -11.799    566.676    567.052    566.676    566.772    566.676
 16.970    560.335    566.904     -6.569    566.437    566.808    566.437    566.533    566.437
 17.070    553.000    566.659    -13.659    566.195    566.562    566.195    566.292    566.195
 17.170    578.564    566.413     12.151    565.951    566.316    565.951    566.049    565.951
 17.270    555.000    566.177    -11.177    565.705    566.078    565.705    565.803    565.705
 17.370    572.000    565.939      6.061    565.456    565.841    565.456    565.555    565.456
 17.470    569.000    565.688      3.312    565.205    565.589    565.205    565.304    565.205
 17.570    548.078    565.434    -17.356    564.951    565.334    564.951    565.052    564.951
 17.670    557.000    565.178     -8.178    564.696    565.077    564.696    564.797    564.696
 17.770    558.000    564.921     -6.921    564.438    564.819    564.438    564.540    564.438
 17.870    573.000    564.661      8.339    564.178    564.559    564.178    564.280    564.178
 17.970    542.000    564.400    -22.400    563.916    564.297    563.916    564.019    563.916
 18.070    585.730    564.137     21.593    563.652    564.033    563.652    563.756    563.652
 18.170    605.000    563.873     41.127    563.386    563.768    563.386    563.490    563.386
 18.270    564.000    563.606      0.394    563.118    563.501    563.118    563.223    563.118
 18.370    572.705    563.339      9.367    562.848    563.233    562.848    562.954    562.848
 18.470    540.901    563.070    -22.169    562.576    562.963    562.576    562.683    562.576
 18.570    581.000    562.802     18.198    562.302    562.695    562.302    562.410    562.302
 18.670    545.000    562.531    -17.531    562.027    562.422    562.027    562.135    562.027
 18.770    530.000    562.257    -32.257    561.749    562.148    561.749    561.858    561.749
 18.870    544.000    561.981    -17.981    561.470    561.872    561.470    561.580    561.470
 18.970    552.000    561.705     -9.705    561.189    561.594    561.189    561.299    561.189
 19.070    529.404    561.427    -32.023    560.906    561.315    560.906    561.017    560.906
 19.170    557.000    561.147     -4.147    560.622    561.035    560.622    560.734    560.622
 19.270    533.145    560.867    -27.722    560.335    560.754    560.335    560.449    560.335
 19.370    562.000    560.587      1.413    560.048    560.473    560.048    560.162    560.048
 19.470    567.000    560.309      6.691    559.759    560.194    559.759    559.874    559.759
 19.570    570.000    560.025      9.975    559.468    559.909    559.468    559.584    559.468
 19.670    539.000    559.740    -20.740    559.175    559.623    559.175    559.292    559.175
 19.770    546.000    559.454    -13.454    558.882    559.336    558.882    558.999    558.882
 19.870    554.000    559.166     -5.166    558.586    559.048    558.586    558.705    558.586
 19.970    514.028    558.878    -44.850    558.290    558.758    558.290    558.410    558.290
 20.070    506.000    558.595    -52.595    557.992    558.474    557.992    558.113    557.992
 20.170    533.000    558.368    -25.368    557.692    558.246    557.692    557.814    557.692
 20.270    511.000    558.122    -47.122    557.391    557.999    557.391    557.515    557.391
 20.370    524.000    557.835    -33.835    557.089    557.711    557.089    557.214    557.089
 20.470    568.000    557.545     10.455    556.786    557.420    556.786    556.912    556.786
 20.570    555.000    557.253     -2.253    556.482    557.127    556.482    556.608    556.482
 20.670    600.082    556.961     43.121    556.176    556.833    556.176    556.304    556.176
 20.770    513.000    556.668    -43.668    555.869    556.539    555.869    555.998    555.869
 20.870    564.549    556.375      8.173    555.561    556.245    555.561    555.691    555.561
 20.970    567.000    556.082     10.918    555.252    555.951    555.252    555.384    555.252
 21.070    523.000    555.790    -32.790    554.942    555.657    554.942    555.075    554.942
 21.170    568.000    555.497     12.503    554.631    555.363    554.631    554.765    554.631
 21.270    543.000    555.209    -12.209    554.318    555.073    554.318    554.454    554.318
 21.370    528.000    554.958    -26.958    554.005    554.821    554.005    554.142    554.005
 21.470    537.000    554.691    -17.691    553.691    554.552    553.691    553.830    553.691
 21.570    541.000    554.403    -13.403    553.376    554.262    553.376    553.516    553.376
 21.670    585.000    554.113     30.887    553.060    553.971    553.060    553.202    553.060
 21.770    606.000    553.825     52.175    552.743    553.681    552.743    552.887    552.743
 21.870    562.000    553.538      8.462    552.426    553.393    552.426    552.571    552.426
 21.970    556.000    553.254      2.746    552.107    553.108    552.107    552.254    552.107
 22.070    547.000    552.989     -5.989    551.788    552.840    551.788    551.937    551.788
 22.170    584.053    552.738     31.315    551.468    552.588    551.468    551.618    551.468
 22.270    554.000    552.464      1.536    551.147    552.312    551.147    551.300    551.147
 22.370    515.420    552.192    -36.772    550.826    552.037    550.826    550.980    550.826
 22.470    530.502    551.923    -21.421    550.504    551.767    550.504    550.660    550.504
 22.570    560.980    551.661      9.319    550.181    551.502    550.181    550.339    550.181
 22.670    551.642    551.405      0.237    549.857    551.244    549.857    550.018    549.857
 22.770    568.533    551.159     17.373    549.534    550.997    549.534    549.697    549.534
 22.870    588.168    550.922     37.246    549.209    550.757    549.209    549.375    549.209
 22.970    552.000    550.697      1.303    548.884    550.530    548.884    549.052    548.884
 23.070    538.000    550.513    -12.513    548.558    550.343    548.558    548.729    548.558
 23.170    536.897    550.324    -13.427    548.232    550.152    548.232    548.406    548.232
 23.270    552.000    550.152      1.848    547.906    549.977    547.906    548.082    547.906
 23.370    577.921    550.009     27.912    547.579    549.831    547.579    547.758    547.579
 23.470    527.444    549.902    -22.459    547.252    549.722    547.252    547.433    547.252
 23.570    520.000    549.845    -29.845    546.924    549.661    546.924    547.109    546.924
 23.670    532.000    549.853    -17.853    546.596    549.666    546.596    546.784    546.596
 23.770    568.000    549.950     18.050    546.268    549.761    546.268    546.459    546.268
 23.870    603.000    550.178     52.822    545.939    549.986    545.939    546.134    545.939
 23.970    505.988    550.618    -44.631    545.610    550.422    545.610    545.809    545.610
 24.070    547.000    551.464     -4.464    545.281    551.265    545.281    545.484    545.281
 24.170    604.000    553.169     50.831    544.952    552.967    544.952    545.158    544.952
 24.270    554.035    556.714     -2.679    544.622    556.511    544.622    544.833    544.622
 24.370    552.000    563.709    -11.709    544.292    563.506    544.292    544.508    544.292
 24.470    539.893    575.972    -36.079    543.962    575.773    543.962    544.182    543.962
 24.570    608.241    593.937     14.304    543.632    593.747    543.632    543.857    543.632
 24.670    634.880    614.172     20.708    543.302    613.991    543.302    543.532    543.302
 24.770    582.000    627.754    -45.754    542.972    627.577    542.972    543.207    542.972
 24.870    587.345    625.681    -38.336    542.641    625.497    542.641    542.883    542.641
 24.970    635.000    609.389     25.611    542.311    609.188    542.311    542.559    542.311
 25.070    615.000    588.609     26.391    541.981    588.387    541.981    542.235    541.981
 25.170    598.313    571.158     27.155    541.650    570.917    541.650    541.912    541.650
 25.270    576.000    559.504     16.496    541.320    559.247    541.320    541.589    541.320
 25.370    524.843    552.795    -27.952    540.990    552.526    540.990    541.266    540.990
 25.470    557.554    549.208      8.346    540.659    548.927    540.659    540.944    540.659
 25.570    552.000    547.189      4.811    540.329    546.898    540.329    540.623    540.329
 25.670    566.000    545.910     20.090    539.999    545.609    539.999    540.303    539.999
 25.770    535.408    544.992     -9.584    539.669    544.680    539.669    539.983    539.669
 25.870    513.602    544.270    -30.668    539.340    543.946    539.340    539.665    539.340
 25.970    527.000    543.684    -16.684    539.010    543.348    539.010    539.347    539.010
 26.070    588.000    543.200     44.800    538.681    542.851    538.681    539.031    538.681
 26.170    567.000    542.800     24.200    538.352    542.437    538.352    538.715    538.352
 26.270    502.840    542.452    -39.612    538.023    542.074    538.023    538.402    538.023
 26.370    564.000    542.160     21.840    537.694    541.766    537.694    538.089    537.694
 26.470    582.000    541.921     40.079    537.366    541.509    537.366    537.779    537.366
 26.570    498.656    541.736    -43.081    537.038    541.305    537.038    537.470    537.038
 26.670    509.163    541.609    -32.446    536.711    541.156    536.711    537.164    536.711
 26.770    549.000    541.549      7.451    536.383    541.072    536.383    536.860    536.383
 26.870    563.000    541.571     21.429    536.056    541.069    536.056    536.559    536.056
 26.970    560.000    541.673     18.327    535.730    541.142    535.730    536.261    535.730
 27.070    575.763    541.885     33.877    535.404    541.323    535.404    535.966    535.404
 27.170    553.000    542.243     10.757    535.078    541.646    535.078    535.675    535.078
 27.270    504.291    542.796    -38.506    534.753    542.159    534.753    535.389    534.753
 27.370    568.000    543.622     24.378    534.428    542.940    534.428    535.108    534.428
 27.470    542.947    544.855     -1.908    534.104    544.124    534.104    534.834    534.104
 27.570    550.000    546.868      3.132    533.780    546.079    533.780    534.566    533.780
 27.670    518.209    550.987    -32.778    533.457    550.133    533.457    534.307    533.457
 27.770    582.000    561.752     20.248    533.134    560.821    533.134    534.058    533.134
 27.870    596.599    590.705      5.894    532.812    589.680    532.812    533.821    532.812
 27.970    696.000    655.889     40.111    532.490    654.744    532.490    533.598    532.490
 28.070    762.000    765.547     -3.547    532.169    764.255    532.169    533.393    532.169
 28.170    906.000    889.249     16.751    531.849    887.792    531.849    533.210    531.849
 28.270    958.000    952.823      5.177    531.529    951.202    531.529    533.055    531.529
 28.370    859.418    905.825    -46.406    531.210    904.038    531.210    532.939    531.210
 28.470    798.000    796.829      1.171    530.891    794.827    530.891    532.872    530.891
 28.570    690.854    709.448    -18.594    530.574    707.142    530.574    532.873    530.574
 28.670    684.000    689.064     -5.064    530.257    686.347    530.257    532.965    530.257
 28.770    720.000    732.072    -12.072    529.940    728.816    529.940    533.179    529.940
 28.870    753.000    799.446    -46.446    529.625    795.500    529.625    533.550    529.625
 28.970    860.070    833.016     27.054    529.310    828.193    529.310    534.119    529.310
 29.070    779.000    797.043    -18.043    528.996    791.115    528.996    534.926    528.996
 29.170    723.398    718.836      4.562    528.682    711.532    528.682    536.000    528.682
 29.270    604.644    644.107    -39.463    528.370    635.153    528.370    537.337    528.370
 29.370    591.000    595.098     -4.098    528.058    584.304    528.058    538.861    528.058
 29.470    535.534    570.644    -35.110    527.747    558.026    527.747    540.369    527.747
 29.570    608.000    560.481     47.519    527.437    546.417    527.437    541.501    527.437
 29.670    559.549    556.009      3.540    527.128    541.294    527.128    541.842    527.128
 29.770    562.627    552.957      9.670    526.819    538.611    526.819    541.165    526.819
 29.870    563.283    549.996     13.286    526.512    536.902    526.512    539.605    526.512
 29.970    574.000    547.062     26.938    526.205    535.714    526.205    537.552    526.205
 30.070    539.624    544.399     -4.775    525.900    534.903    525.900    535.395    525.900
 30.170    558.000    542.235     15.765    525.595    534.449    525.595    533.379    525.595
 30.270    556.818    540.798     16.020    525.291    534.475    525.291    531.611    525.291
 30.370    532.568    540.566     -7.998    524.988    535.437    524.988    530.114    524.988
 30.470    521.688    542.654    -20.965    524.687    538.470    524.687    528.864    524.687
 30.570    567.359    549.021     18.338    524.386    545.570    524.386    527.824    524.386
 30.670    616.000    561.680     54.320    524.086    558.790    524.086    526.954    524.086
 30.770    587.000    580.389      6.611    523.787    577.925    523.787    526.216    523.787
 30.870    603.000    599.774      3.226    523.489    597.638    523.489    525.577    523.489
 30.970    633.000    609.051     23.949    523.193    607.179    523.193    525.012    523.193
 31.070    587.000    600.785    -13.785    522.897    599.136    522.897    524.502    522.897
 31.170    568.210    580.996    -12.785    522.602    579.534    522.602    524.034    522.602
 31.270    586.000    560.527     25.473    522.309    559.222    522.309    523.597    522.309
 31.370    587.034    545.517     41.518    522.016    544.340    522.016    523.185    522.016
 31.470    569.000    536.749     32.251    521.725    535.677    521.725    522.792    521.725
 31.570    543.000    532.336     10.664    521.435    531.353    521.435    522.415    521.435
 31.670    516.804    530.199    -13.395    521.146    529.292    521.146    522.051    521.146
 31.770    573.000    529.061     43.939    520.858    528.219    520.858    521.698    520.858
 31.870    550.000    528.352     21.648    520.571    527.568    520.571    521.354    520.571
 31.970    592.000    527.867     64.133    520.286    527.132    520.286    521.019    520.286
 32.070    516.218    527.535    -11.316    520.001    526.844    520.001    520.691    520.001
 32.170    543.961    527.329     16.632    519.718    526.677    519.718    520.369    519.718
 32.270    569.000    527.240     41.760    519.436    526.623    519.436    520.052    519.436
 32.370    573.000    527.271     45.729    519.155    526.684    519.155    519.741    519.155
 32.470    560.115    527.429     32.686    518.875    526.870    518.875    519.434    518.875
 32.570    507.887    527.733    -19.846    518.597    527.199    518.597    519.131    518.597
 32.670    551.000    528.212     22.788    518.320    527.699    518.320    518.832    518.320
 32.770    490.358    528.906    -38.548    518.044    528.413    518.044    518.536    518.044
 32.870    540.851    529.877     10.974    517.770    529.402    517.770    518.243    517.770
 32.970    514.000    531.213    -17.213    517.496    530.755    517.496    517.953    517.496
 33.070    510.000    533.058    -23.058    517.224    532.614    517.224    517.667    517.224
 33.170    574.000    535.675     38.325    516.954    535.245    516.954    517.382    516.954
 33.270    538.000    539.683     -1.683    516.684    539.264    516.684    517.101    516.684
 33.370    520.000    546.690    -26.690    516.416    546.281    516.416    516.821    516.416
 33.470    613.000    560.624     52.376    516.149    560.223    516.149    516.544    516.149
 33.570    635.216    589.371     45.845    515.884    588.974    515.884    516.270    515.884
 33.670    642.729    644.511     -1.782    515.620    644.114    515.620    515.997    515.620
 33.770    763.000    735.666     27.334    515.357    735.262    515.357    515.726    515.357
 33.870    895.642    858.497     37.146    515.096    858.086    515.096    515.458    515.096
 33.970   1007.000    981.347     25.653    514.836    980.935    514.836    515.191    514.836
 34.070   1035.000   1044.796     -9.796    514.577   1044.399    514.577    514.927    514.577
 34.170   1012.000   1006.456      5.544    514.320   1006.088    514.320    514.664    514.320
 34.270    907.000    893.818     13.182    514.064    893.477    514.064    514.403    514.064
 34.370    784.000    766.721     17.279    513.810    766.394    513.810    514.144    513.810
 34.470    619.213    665.097    -45.884    513.557    664.776    513.557    513.887    513.557
 34.570    613.000    599.857     13.143    513.306    599.537    513.306    513.632    513.306
 34.670    537.756    564.113    -26.357    513.056    563.793    513.056    513.378    513.056
 34.770    566.000    546.180     19.820    512.807    545.862    512.807    513.126    512.807
 34.870    502.737    537.037    -34.300    512.560    536.720    512.560    512.876    512.560
 34.970    560.538    531.772     28.766    512.314    531.458    512.314    512.628    512.314
 35.070    545.000    528.248     16.752    512.070    527.936    512.070    512.381    512.070
 35.170    541.000    525.631     15.369    511.827    525.322    511.827    512.136    511.827
 35.270    484.599    523.579    -38.980    511.586    523.271    511.586    511.893    511.586
 35.370    502.000    521.919    -19.919    511.346    521.613    511.346    511.652    511.346
 35.470    522.088    520.548      1.540    511.108    520.244    511.108    511.412    511.108
 35.570    502.362    519.396    -17.033    510.871    519.093    510.871    511.174    510.871
 35.670    500.000    518.412    -18.412    510.636    518.110    510.636    510.937    510.636
 35.770    507.000    517.561    -10.561    510.402    517.260    510.402    510.703    510.402
 35.870    545.000    516.815     28.185    510.170    516.515    510.170    510.470    510.170
 35.970    473.000    516.157    -43.157    509.939    515.858    509.939    510.238    509.939
 36.070    510.000    515.570     -5.570    509.710    515.271    509.710    510.009    509.710
 36.170    500.000    515.044    -15.044    509.482    514.746    509.482    509.781    509.482
 36.270    461.000    514.572    -53.572    509.256    514.273    509.256    509.555    509.256
 36.370    470.848    514.146    -43.298    509.032    513.848    509.032    509.330    509.032
 36.470    482.737    513.765    -31.027    508.809    513.466    508.809    509.107    508.809
 36.570    500.272    513.426    -13.154    508.588    513.128    508.588    508.886    508.588
 36.670    504.000    513.131     -9.131    508.368    512.832    508.368    508.666    508.368
 36.770    553.264    512.891     40.373    508.150    512.592    508.150    508.449    508.150
 36.870    491.000    512.737    -21.737    507.933    512.438    507.933    508.233    507.933
 36.970    498.000    512.729    -14.729    507.718    512.429    507.718    508.018    507.718
 37.070    535.000    512.986     22.014    507.504    512.686    507.504    507.805    507.504
 37.170    511.000    513.702     -2.702    507.293    513.401    507.293    507.594    507.293
 37.270    481.583    515.104    -33.521    507.082    514.802    507.082    507.385    507.082
 37.370    508.000    517.336     -9.336    506.874    517.033    506.874    507.177    506.874
 37.470    499.000    520.273    -21.273    506.667    519.970    506.667    506.972    506.667
 37.570    531.000    523.305      7.695    506.461    523.002    506.461    506.767    506.461
 37.670    499.281    525.305    -26.024    506.258    525.002    506.258    506.565    506.258
 37.770    532.000    525.264      6.736    506.055    524.961    506.055    506.364    506.055
 37.870    500.000    523.268    -23.268    505.855    522.967    505.855    506.165    505.855
 37.970    478.000    520.296    -42.296    505.656    519.994    505.656    505.968    505.656
 38.070    519.000    517.213      1.787    505.459    516.910    505.459    505.773    505.459
 38.170    486.417    514.457    -28.040    505.263    514.151    505.263    505.579    505.263
 38.270    531.608    512.246     19.362    505.069    511.936    505.069    505.387    505.069
 38.370    550.573    510.633     39.939    504.877    510.319    504.877    505.196    504.877
 38.470    506.000    509.527     -3.527    504.686    509.208    504.686    505.008    504.686
 38.570    512.000    508.782      3.218    504.498    508.461    504.498    504.821    504.498
 38.670    474.000    508.269    -34.269    504.310    507.944    504.310    504.636    504.310
 38.770    497.000    507.889    -10.889    504.125    507.562    504.125    504.453    504.125
 38.870    502.150    507.584     -5.434    503.941    507.254    503.941    504.271    503.941
 38.970    503.770    507.321     -3.552    503.758    506.989    503.758    504.091    503.758
 39.070    548.000    507.085     40.915    503.578    506.750    503.578    503.913    503.578
 39.170    498.720    506.869     -8.149    503.399    506.531    503.399    503.737    503.399
 39.270    498.000    506.667     -8.667    503.221    506.327    503.221    503.563    503.221
 39.370    494.985    506.479    -11.494    503.046    506.135    503.046    503.390    503.046
 39.470    463.000    506.302    -43.302    502.872    505.955    502.872    503.219    502.872
 39.570    526.688    506.136     20.552    502.700    505.786    502.700    503.050    502.700
 39.670    531.000    505.979     25.021    502.529    505.626    502.529    502.883    502.529
 39.770    496.000    505.832     -9.832    502.360    505.475    502.360    502.717    502.360
 39.870    468.135    505.693    -37.559    502.193    505.333    502.193    502.554    502.193
 39.970    475.219    505.565    -30.346    502.028    505.201    502.028    502.392    502.028
 40.070    508.443    505.445      2.998    501.864    505.078    501.864    502.232    501.864
 40.170    505.426    505.336      0.090    501.702    504.965    501.702    502.074    501.702
 40.270    459.000    505.237    -46.237    501.542    504.862    501.542    501.917    501.542
 40.370    485.000    505.150    -20.150    501.383    504.771    501.383    501.763    501.383
 40.470    493.000    505.076    -12.076    501.226    504.692    501.226    501.610    501.226
 40.570    488.000    505.016    -17.016    501.071    504.628    501.071    501.459    501.071
 40.670    496.000    504.971     -8.971    500.917    504.579    500.917    501.310    500.917
 40.770    521.349    504.946     16.403    500.766    504.550    500.766    501.163    500.766
 40.870    536.583    504.942     31.640    500.615    504.541    500.615    501.017    500.615
 40.970    512.000    504.965      7.035    500.467    504.559    500.467    500.874    500.467
 41.070    466.737    505.018    -38.281    500.320    504.607    500.320    500.732    500.320
 41.170    532.000    505.110     26.890    500.175    504.693    500.175    500.593    500.175
 41.270    453.000    505.249    -52.249    500.032    504.827    500.032    500.455    500.032
 41.370    472.560    505.448    -32.888    499.890    505.021    499.890    500.319    499.890
 41.470    521.271    505.726     15.545    499.751    505.294    499.751    500.185    499.751
 41.570    495.000    506.113    -11.113    499.612    505.675    499.612    500.053    499.612
 41.670    548.026    506.665     41.361    499.476    506.221    499.476    499.922    499.476
 41.770    515.631    507.504      8.126    499.341    507.054    499.341    499.794    499.341
 41.870    491.000    508.905    -17.905    499.208    508.449    499.208    499.668    499.208
 41.970    481.000    511.445    -30.445    499.077    510.983    499.077    499.543    499.077
 42.070    518.000    516.169      1.831    498.947    515.702    498.947    499.421    498.947
 42.170    477.000    524.601    -47.601    498.819    524.131    498.819    499.300    498.819
 42.270    510.000    538.336    -28.336    498.693    537.865    498.693    499.181    498.693
 42.370    588.000    558.056     29.944    498.569    557.586    498.569    499.065    498.569
 42.470    565.000    582.148    -17.148    498.446    581.683    498.446    498.950    498.446
 42.570    569.000    605.454    -36.454    498.325    604.994    498.325    498.838    498.325
 42.670    549.000    619.561    -70.561    498.206    619.102    498.206    498.727    498.206
 42.770    568.000    617.584    -49.584    498.088    617.118    498.088    498.619    498.088
 42.870    629.997    600.612     29.385    497.972    600.129    497.972    498.512    497.972
 42.970    545.709    576.440    -30.731    497.858    575.935    497.858    498.408    497.858
 43.070    559.000    552.898      6.102    497.745    552.369    497.745    498.305    497.745
 43.170    523.000    534.306    -11.306    497.634    533.756    497.634    498.205    497.634
 43.270    538.000    521.673     16.327    497.525    521.104    497.525    498.107    497.525
 43.370    515.945    514.023      1.922    497.418    513.438    497.418    498.011    497.418
 43.470    488.000    509.725    -21.725    497.312    509.124    497.312    497.918    497.312
 43.570    515.000    507.348      7.652    497.208    506.733    497.208    497.826    497.208
 43.670    534.000    505.959     28.041    497.106    505.330    497.106    497.737    497.106
 43.770    523.000    505.060     17.940    497.005    504.417    497.005    497.650    497.005
 43.870    519.000    504.416     14.584    496.906    503.759    496.906    497.565    496.906
 43.970    459.000    503.926    -44.926    496.809    503.253    496.809    497.483    496.809
 44.070    481.000    503.538    -22.538    496.713    502.850    496.713    497.403    496.713
 44.170    493.000    503.228    -10.228    496.619    502.523    496.619    497.325    496.619
 44.270    532.961    502.978     29.983    496.527    502.255    496.527    497.250    496.527
 44.370    511.664    502.776      8.888    496.436    502.035    496.436    497.178    496.436
 44.470    516.000    502.614     13.386    496.347    501.854    496.347    497.108    496.347
 44.570    515.000    502.486     12.514    496.260    501.706    496.260    497.041    496.260
 44.670    543.043    502.388     40.655    496.175    501.586    496.175    496.977    496.175
 44.770    492.000    502.314    -10.314    496.091    501.490    496.091    496.915    496.091
 44.870    524.000    502.264     21.736    496.008    501.417    496.008    496.856    496.008
 44.970    513.000    502.236     10.764    495.928    501.363    495.928    496.801    495.928
 45.070    478.000    502.227    -24.227    495.849    501.328    495.849    496.748    495.849
 45.170    541.713    502.238     39.475    495.772    501.311    495.772    496.699    495.772
 45.270    489.000    502.268    -13.268    495.696    501.311    495.696    496.653    495.696
 45.370    504.000    502.316      1.684    495.622    501.328    495.622    496.610    495.622
 45.470    513.461    502.385     11.076    495.550    501.363    495.550    496.572    495.550
 45.570    491.000    502.473    -11.473    495.479    501.415    495.479    496.537    495.479
 45.670    543.415    502.582     40.833    495.410    501.486    495.410    496.506    495.410
 45.770    455.000    502.714    -47.714    495.343    501.577    495.343    496.480    495.343
 45.870    464.061    502.871    -38.809    495.277    501.689    495.277    496.458    495.277
 45.970    523.786    503.054     20.732    495.213    501.825    495.213    496.441    495.213
 46.070    513.884    503.268     10.617    495.150    501.988    495.150    496.430    495.150
 46.170    524.000    503.516     20.484    495.090    502.181    495.090    496.424    495.090
 46.270    493.000    503.803    -10.803    495.030    502.408    495.030    496.424    495.030
 46.370    489.262    504.136    -14.874    494.973    502.677    494.973    496.431    494.973
 46.470    525.000    504.524     20.476    494.917    502.994    494.917    496.446    494.917
 46.570    531.000    504.979     26.021    494.862    503.372    494.862    496.468    494.862
 46.670    496.165    505.520     -9.355    494.809    503.829    494.809    496.499    494.809
 46.770    492.000    506.182    -14.182    494.758    504.399    494.758    496.540    494.758
 46.870    511.155    507.034      4.121    494.708    505.149    494.708    496.591    494.708
 46.970    502.000    508.221     -6.221    494.660    506.223    494.660    496.655    494.660
 47.070    474.579    510.025    -35.446    494.614    507.903    494.614    496.732    494.614
 47.170    493.000    512.943    -19.943    494.569    510.681    494.569    496.825    494.569
 47.270    540.821    517.701     23.121    494.525    515.281    494.525    496.936    494.525
 47.370    533.000    525.127      7.873    494.484    522.528    494.484    497.068    494.484
 47.470    559.769    535.805     23.964    494.443    533.003    494.443    497.223    494.443
 47.570    570.000    549.536     20.464    494.405    546.503    494.405    497.406    494.405
 47.670    521.000    564.800    -43.800    494.367    561.503    494.367    497.623    494.367
 47.770    539.000    578.340    -39.340    494.332    574.742    494.332    497.880    494.332
 47.870    589.000    585.766      3.234    494.298    581.823    494.298    498.187    494.298
 47.970    594.000    584.228      9.772    494.265    579.884    494.265    498.558    494.265
 48.070    538.198    575.041    -36.843    494.234    570.222    494.234    499.011    494.234
 48.170    586.000    562.355     23.645    494.205    556.954    494.205    499.574    494.205
 48.270    569.000    550.119     18.881    494.177    543.992    494.177    500.282    494.177
 48.370    572.532    540.702     31.830    494.151    533.652    494.151    501.186    494.151
 48.470    575.000    534.948     40.052    494.126    526.712    494.126    502.352    494.126
 48.570    513.000    532.690    -19.690    494.102    522.923    494.102    503.864    494.102
 48.670    510.000    533.322    -23.322    494.080    521.582    494.080    505.816    494.080
 48.770    556.102    536.234     19.867    494.060    521.976    494.060    508.315    494.060
 48.870    571.000    541.038     29.962    494.041    523.617    494.041    511.459    494.041
 48.970    574.000    547.601     26.399    494.023    526.300    494.023    515.321    494.023
 49.070    553.637    556.047     -2.410    494.008    530.133    494.008    519.918    494.008
 49.170    581.235    566.884     14.351    493.993    535.716    493.993    525.156    493.993
 49.270    620.955    581.552     39.403    493.980    544.769    493.980    530.757    493.980
 49.370    598.000    603.824     -5.824    493.968    561.615    493.968    536.167    493.968
 49.470    665.000    642.382     22.618    493.958    595.783    493.958    540.536    493.958
 49.570    666.904    713.956    -47.052    493.949    664.958    493.949    542.906    493.949
 49.670    854.000    844.138      9.862    493.942    795.362    493.942    542.646    493.942
 49.770   1117.000   1060.837     56.163    493.936   1014.827    493.936    539.834    493.936
 49.870   1327.562   1377.127    -49.565    493.932   1335.708    493.932    535.203    493.932
 49.970   1812.000   1768.301     43.699    493.929   1732.358    493.929    529.714    493.929
 50.070   2172.000   2156.992     15.008    493.927   2126.636    493.927    524.164    493.927
 50.170   2405.000   2424.246    -19.246    493.927   2399.100    493.927    519.046    493.927
 50.270   2448.000   2462.784    -14.784    493.928   2442.204    493.928    514.597    493.928
 50.370   2178.000   2253.504    -75.504    493.931   2236.725    493.931    510.885    493.931
 50.470   1842.867   1883.686    -40.820    493.935   1869.944    493.935    507.881    493.935
 50.570   1411.000   1478.703    -67.703    493.940   1467.324    493.940    505.505    493.940
 50.670   1086.421   1133.475    -47.054    493.947   1123.910    493.947    503.654    493.947
 50.770    847.000    889.410    -42.410    493.955    881.238    493.955    502.226    493.955
 50.870    717.112    742.769    -25.658    493.964    735.674    493.964    501.126    493.964
 50.970    697.487    666.362     31.125    493.975    660.111    493.975    500.274    493.975
 51.070    611.043    629.677    -18.634    493.987    624.094    493.987    499.609    493.987
 51.170    641.766    609.975     31.790    494.001    604.928    494.001    499.082    494.001
 51.270    625.321    595.088     30.233    494.015    590.475    494.015    498.658    494.015
 51.370    604.000    581.083     22.917    494.031    576.825    494.031    498.313    494.031
 51.470    530.255    568.014    -37.759    494.049    564.053    494.049    498.029    494.049
 51.570    561.000    556.816      4.184    494.067    553.104    494.067    497.794    494.067
 51.670    533.996    548.103    -14.107    494.087    544.603    494.087    497.598    494.087
 51.770    563.000    541.969     21.031    494.109    538.650    494.109    497.435    494.109
 51.870    501.105    538.122    -37.016    494.131    534.958    494.131    497.300    494.131
 51.970    547.936    536.108     11.828    494.155    533.079    494.155    497.189    494.155
 52.070    555.152    535.510     19.642    494.180    532.596    494.180    497.098    494.180
 52.170    548.000    536.069     11.931    494.206    533.253    494.206    497.026    494.206
 52.270    549.000    537.753     11.247    494.234    535.021    494.234    496.969    494.234
 52.370    558.000    540.837     17.163    494.263    538.175    494.263    496.927    494.263
 52.470    571.000    546.076     24.924    494.293    543.473    494.293    496.898    494.293
 52.570    578.000    555.008     22.992    494.324    552.453    494.324    496.880    494.324
 52.670    534.556    570.338    -35.782    494.357    567.822    494.357    496.873    494.357
 52.770    608.000    596.186     11.814    494.390    593.700    494.390    496.876    494.390
 52.870    633.000    637.806     -4.806    494.425    635.342    494.425    496.888    494.425
 52.970    713.966    700.347     13.619    494.461    697.897    494.461    496.909    494.461
 53.070    773.877    786.513    -12.636    494.499    784.072    494.499    496.938    494.499
 53.170    849.425    893.534    -44.109    494.537    891.097    494.537    496.975    494.537
 53.270   1101.000   1010.227     90.773    494.577   1007.790    494.577    497.019    494.577
 53.370   1128.000   1115.323     12.677    494.617   1112.885    494.617    497.071    494.617
 53.470   1239.027   1180.433     58.594    494.659   1177.990    494.659    497.129    494.659
 53.570   1233.000   1182.780     50.220    494.702   1180.326    494.702    497.195    494.702
 53.670   1055.000   1121.543    -66.543    494.747   1119.067    494.747    497.267    494.747
 53.770   1003.000   1018.605    -15.605    494.792   1016.094    494.792    497.346    494.792
 53.870    824.000    902.555    -78.555    494.838    899.998    494.838    497.433    494.838
 53.970    782.977    795.256    -12.279    494.886    792.645    494.886    497.526    494.886
 54.070    701.000    708.452     -7.452    494.935    705.782    494.935    497.627    494.935
 54.170    654.000    645.325      8.675    494.984    642.590    494.984    497.734    494.984
 54.270    570.693    603.400    -32.707    495.035    600.595    495.035    497.850    495.035
 54.370    537.390    577.588    -40.198    495.087    574.708    495.087    497.974    495.087
 54.470    545.000    562.598    -17.598    495.140    559.637    495.140    498.106    495.140
 54.570    549.000    554.222     -5.222    495.194    551.173    495.194    498.246    495.194
 54.670    541.000    549.670     -8.670    495.249    546.525    495.249    498.396    495.249
 54.770    584.202    547.330     36.873    495.305    544.081    495.305    498.556    495.305
 54.870    568.000    546.370     21.630    495.362    543.008    495.362    498.726    495.362
 54.970    578.000    546.400     31.600    495.420    542.914    495.420    498.907    495.420
 55.070    582.000    547.257     34.743    495.479    543.637    495.479    499.101    495.479
 55.170    519.909    548.897    -28.988    495.539    545.131    495.539    499.307    495.539
 55.270    508.722    551.348    -42.626    495.600    547.422    495.600    499.528    495.600
 55.370    526.329    554.701    -28.372    495.662    550.601    495.662    499.764    495.662
 55.470    579.000    559.142     19.858    495.725    554.852    495.725    500.017    495.725
 55.570    542.000    565.036    -23.036    495.789    560.539    495.789    500.288    495.789
 55.670    592.917    573.144     19.773    495.854    568.419    495.854    500.580    495.854
 55.770    609.000    585.060     23.940    495.920    580.086    495.920    500.895    495.920
 55.870    620.000    604.020     15.980    495.987    598.771    495.987    501.235    495.987
 55.970    623.000    636.063    -13.063    496.055    630.511    496.055    501.603    496.055
 56.070    740.006    691.258     48.748    496.123    685.368    496.123    502.003    496.123
 56.170    803.000    784.093     18.907    496.193    777.829    496.193    502.438    496.193
 56.270    979.173    931.684     47.488    496.263    925.003    496.263    502.915    496.263
 56.370   1190.410   1148.624     41.786    496.335   1141.481    496.335    503.437    496.335
 56.470   1442.000   1438.659      3.341    496.407   1431.010    496.407    504.012    496.407
 56.570   1750.000   1785.395    -35.395    496.480   1777.194    496.480    504.648    496.480
 56.670   2141.000   2145.380     -4.380    496.554   2136.580    496.554    505.354    496.554
 56.770   2399.443   2447.746    -48.303    496.629   2438.290    496.629    506.144    496.629
 56.870   2563.000   2609.812    -46.812    496.704   2599.624    496.704    507.032    496.704
 56.970   2671.000   2577.566     93.434    496.781   2566.525    496.781    508.041    496.781
 57.070   2383.000   2363.687     19.313    496.858   2351.614    496.858    509.198    496.858
 57.170   2031.293   2037.084     -5.791    496.936   2023.750    496.936    510.543    496.936
 57.270   1611.000   1679.141    -68.141    497.015   1664.269    497.015    512.131    497.015
 57.370   1354.348   1352.178      2.170    497.095   1335.429    497.095    514.038    497.095
 57.470   1056.000   1090.381    -34.381    497.175   1071.329    497.175    516.369    497.175
 57.570    913.000    902.843     10.157    497.256    880.930    497.256    519.265    497.256
 57.670    800.000    781.732     18.268    497.338    756.225    497.338    522.905    497.338
 57.770    768.000    711.738     56.262    497.421    681.681    497.421    527.512    497.421
 57.870    676.173    677.649     -1.476    497.504    641.823    497.504    533.348    497.504
 57.970    704.000    668.508     35.492    497.588    625.408    497.588    540.695    497.588
 58.070    706.000    678.617     27.383    497.673    626.448    497.673    549.837    497.673
 58.170    701.000    706.509     -5.509    497.759    643.233    497.759    561.020    497.759
 58.270    745.000    752.999     -7.999    497.845    676.417    497.845    574.403    497.845
 58.370    747.000    818.986    -71.986    497.932    726.899    497.932    589.985    497.932
 58.470    879.411    903.443    -24.032    498.020    793.916    498.020    607.506    498.020
 58.570    912.000   1001.872    -89.872    498.108    873.645    498.108    626.293    498.108
 58.670   1114.000   1105.702      8.298    498.197    958.788    498.197    645.073    498.197
 58.770   1205.179   1203.586      1.593    498.286   1040.001    498.286    661.845    498.286
 58.870   1340.035   1284.481     55.553    498.377   1108.793    498.377    674.056    498.377
 58.970   1352.000   1339.409     12.591    498.467   1158.569    498.467    679.317    498.467
 59.070   1324.314   1361.078    -36.764    498.559   1183.199    498.559    676.466    498.559
 59.170   1281.351   1346.037    -64.686    498.651   1178.536    498.651    666.192    498.651
 59.270   1333.000   1299.506     33.494    498.744   1147.644    498.744    650.647    498.744
 59.370   1254.000   1235.692     18.308    498.837   1102.137    498.837    632.420    498.837
 59.470   1197.701   1171.843     25.858    498.931   1057.086    498.931    613.691    498.931
 59.570   1199.000   1123.544     75.456    499.025   1026.606    499.025    595.931    499.025
 59.670   1191.000   1104.143     86.857    499.120   1023.225    499.120    579.962    499.120
 59.770   1067.000   1123.953    -56.953    499.215   1056.895    499.215    566.147    499.215
 59.870   1160.374   1186.166    -25.791    499.311   1130.748    499.311    554.551    499.311
 59.970   1266.789   1282.580    -15.791    499.408   1236.709    499.408    545.053    499.408
 60.070   1451.000   1392.253     58.747    499.505   1354.069    499.505    537.427    499.505
 60.170   1445.834   1483.794    -37.960    499.602   1451.726    499.602    531.398    499.602
 60.270   1477.012   1523.335    -46.323    499.700   1496.104    499.700    526.680    499.700
 60.370   1422.740   1489.759    -67.019    499.799   1466.347    499.799    523.007    499.799
 60.470   1350.952   1387.165    -36.213    499.898   1366.771    499.898    520.147    499.898
 60.570   1188.224   1240.600    -52.376    499.997   1222.598    499.997    517.908    499.997
 60.670   1064.772   1080.967    -16.196    500.097   1064.870    500.097    516.144    500.097
 60.770    886.000    933.500    -47.500    500.197    918.932    500.197    514.742    500.197
 60.870    841.000    813.426     27.574    500.298    800.091    500.298    513.623    500.298
 60.970    714.000    726.225    -12.225    500.399    713.890    500.399    512.729    500.399
 61.070    633.646    670.460    -36.815    500.500    658.936    500.500    512.019    500.500
 61.170    614.000    641.659    -27.659    500.602    630.787    500.602    511.462    500.602
 61.270    658.294    635.801     22.492    500.704    625.451    500.704    511.035    500.704
 61.370    669.000    651.423     17.577    500.807    641.482    500.807    510.716    500.807
 61.470    667.000    689.964    -22.964    500.910    680.342    500.910    510.484    500.910
 61.570    741.000    754.482    -13.482    501.013    745.115    501.013    510.311    501.013
 61.670    866.000    847.105     18.895    501.117    837.961    501.117    510.165    501.117
 61.770    924.696    965.899    -41.203    501.221    956.985    501.221    510.010    501.221
 61.870   1153.104   1102.081     51.023    501.325   1093.443    501.325    509.814    501.325
 61.970   1164.000   1238.532    -74.532    501.430   1230.243    501.430    509.555    501.430
 62.070   1360.000   1350.649      9.351    501.535   1342.788    501.535    509.235    501.535
 62.170   1453.000   1411.702     41.298    501.640   1404.333    501.640    508.870    501.640
 62.270   1470.521   1404.100     66.421    501.746   1397.259    501.746    508.486    501.746
 62.370   1302.000   1329.859    -27.859    501.851   1323.542    501.851    508.108    501.851
 62.470   1122.000   1209.158    -87.158    501.957   1203.335    501.957    507.755    501.957
 62.570   1052.000   1068.873    -16.873    502.064   1063.498    502.064    507.436    502.064
 62.670    988.455    932.341     56.114    502.170    927.363    502.170    507.158    502.170
 62.770    755.000    814.959    -59.959    502.277    810.329    502.277    506.921    502.277
 62.870    711.000    723.725    -12.725    502.384    719.397    502.384    506.723    502.384
 62.970    656.000    658.830     -2.830    502.491    654.766    502.491    506.563    502.491
 63.070    577.000    616.239    -39.239    502.598    612.405    502.598    506.436    502.598
 63.170    609.000    590.325     18.675    502.705    586.693    502.705    506.338    502.705
 63.270    540.212    575.815    -35.603    502.813    572.360    502.813    506.265    502.813
 63.370    600.630    568.813     31.817    502.921    565.515    502.921    506.214    502.921
 63.470    558.004    567.080     -9.076    503.029    563.921    503.029    506.181    503.029
 63.570    564.000    569.906     -5.906    503.137    566.870    503.137    506.163    503.137
 63.670    536.000    577.846    -41.846    503.245    574.920    503.245    506.157    503.245
 63.770    598.000    592.418      5.582    503.353    589.588    503.353    506.163    503.353
 63.870    636.000    615.705     20.295    503.461    612.959    503.461    506.177    503.461
 63.970    707.000    649.782     57.218    503.570    647.109    503.570    506.200    503.570
 64.070    768.000    695.934     72.066    503.678    693.324    503.678    506.230    503.678
 64.170    778.000    753.730     24.270    503.787    751.175    503.787    506.266    503.787
 64.270    905.000    820.140     84.860    503.896    817.633    503.896    506.308    503.896
 64.370    924.899    888.910     35.990    504.004    886.450    504.004    506.355    504.004
 64.470    992.650    950.647     42.003    504.113    948.236    504.113    506.406    504.113
 64.570   1022.427    994.580     27.847    504.222    992.224    504.222    506.462    504.222
 64.670   1027.831   1012.428     15.403    504.331   1010.134    504.331    506.523    504.331
 64.770    996.000   1001.938     -5.938    504.439    999.710    504.439    506.586    504.439
 64.870   1020.000    967.074     52.926    504.548    964.913    504.548    506.654    504.548
 64.970    925.000    915.763      9.237    504.657    913.666    504.657    506.724    504.657
 65.070    890.000    857.209     32.791    504.766    855.168    504.766    506.798    504.766
 65.170    811.349    799.351     11.998    504.874    797.359    504.874    506.874    504.874
 65.270    728.000    747.250    -19.250    504.983    745.298    504.983    506.953    504.983
 65.370    666.000    703.003    -37.003    505.092    701.085    505.092    507.035    505.092
 65.470    690.439    666.778     23.662    505.200    664.885    505.200    507.119    505.200
 65.570    644.000    637.933      6.067    505.308    636.060    505.308    507.206    505.308
 65.670    635.767    615.565     20.201    505.417    613.707    505.417    507.295    505.417
 65.770    605.000    598.652      6.348    505.525    596.806    505.525    507.386    505.525
 65.870    556.960    586.184    -29.224    505.633    584.348    505.633    507.479    505.633
 65.970    571.000    577.288     -6.288    505.741    575.461    505.741    507.574    505.741
 66.070    575.113    571.278      3.834    505.849    569.460    505.849    507.672    505.849
 66.170    525.653    567.641    -41.988    505.956    565.830    505.956    507.771    505.956
 66.270    547.040    565.992    -18.952    506.064    564.186    506.064    507.872    506.064
 66.370    600.000    566.061     33.939    506.171    564.260    506.171    507.975    506.171
 66.470    539.798    567.719    -27.921    506.278    565.920    506.278    508.079    506.278
 66.570    539.783    571.044    -31.261    506.385    569.246    506.385    508.186    506.385
 66.670    540.873    576.453    -35.580    506.492    574.653    506.492    508.294    506.492
 66.770    545.000    584.912    -39.912    506.599    583.108    506.599    508.405    506.599
 66.870    570.000    598.263    -28.263    506.705    596.453    506.705    508.517    506.705
 66.970    578.276    619.636    -41.359    506.811    617.816    506.811    508.631    506.811
 67.070    644.000    653.855     -9.855    506.917    652.023    506.917    508.747    506.917
 67.170    719.000    707.628     11.372    507.023    705.780    507.023    508.865    507.023
 67.270    815.000    789.183     25.817    507.128    787.318    507.128    508.985    507.128
 67.370    920.000    907.052     12.948    507.233    905.169    507.233    509.108    507.233
 67.470   1098.000   1067.838     30.162    507.338   1065.938    507.338    509.232    507.338
 67.570   1253.137   1273.198    -20.061    507.442   1271.287    507.442    509.359    507.442
 67.670   1519.000   1516.696      2.304    507.546   1514.783    507.546    509.488    507.546
 67.770   1728.000   1781.354    -53.354    507.650   1779.450    507.650    509.620    507.650
 67.870   2073.000   2038.707     34.293    507.754   2036.825    507.754    509.754    507.754
 67.970   2239.000   2250.576    -11.576    507.857   2248.727    507.857    509.892    507.857
 68.070   2324.000   2376.213    -52.213    507.960   2374.398    507.960    510.032    507.960
 68.170   2479.749   2386.602     93.147    508.062   2384.807    508.062    510.176    508.062
 68.270   2342.842   2279.116     63.726    508.164   2277.312    508.164    510.323    508.164
 68.370   2128.000   2079.133     48.867    508.266   2077.283    508.266    510.474    508.266
 68.470   1897.187   1826.721     70.466    508.367   1824.792    508.367    510.628    508.367
 68.570   1522.000   1561.271    -39.271    508.468   1559.239    508.468    510.788    508.468
 68.670   1264.449   1313.108    -48.660    508.569   1310.959    508.569    510.952    508.569
 68.770   1081.000   1101.101    -20.101    508.669   1098.829    508.669    511.121    508.669
 68.870    924.000    933.291     -9.291    508.769    930.895    508.769    511.296    508.769
 68.970    830.176    809.139     21.037    508.868    806.622    508.868    511.477    508.868
 69.070    678.385    722.624    -44.239    508.967    719.988    508.967    511.665    508.967
 69.170    658.000    665.334     -7.334    509.065    662.580    509.065    511.861    509.065
 69.270    610.217    628.856    -18.639    509.163    625.983    509.163    512.064    509.163
 69.370    604.000    606.167     -2.167    509.260    603.168    509.260    512.277    509.260
 69.470    604.000    592.104     11.896    509.357    588.974    509.357    512.501    509.357
 69.570    557.000    583.243    -26.243    509.453    579.972    509.453    512.735    509.453
 69.670    576.000    577.496     -1.496    509.549    574.070    509.549    512.983    509.549
 69.770    532.000    573.676    -41.676    509.645    570.082    509.645    513.244    509.645
 69.870    597.791    571.145     26.646    509.739    567.367    509.739    513.522    509.739
 69.970    597.445    569.578     27.867    509.834    565.597    509.834    513.818    509.834
 70.070    553.000    568.821    -15.821    509.927    564.616    509.927    514.134    509.927
 70.170    585.000    568.823     16.177    510.020    564.371    510.020    514.474    510.020
 70.270    603.000    569.615     33.385    510.113    564.887    510.113    514.841    510.113
 70.370    565.774    571.325     -5.551    510.205    566.290    510.205    515.240    510.205
 70.470    612.061    574.238     37.823    510.296    568.857    510.296    515.675    510.296
 70.570    569.000    578.890     -9.890    510.387    573.119    510.387    516.154    510.387
 70.670    569.000    586.229    -17.229    510.477    580.013    510.477    516.686    510.477
 70.770    610.864    597.816     13.048    510.567    591.088    510.567    517.283    510.567
 70.870    618.000    616.049      1.951    510.656    608.723    510.656    517.964    510.656
 70.970    625.000    644.324    -19.324    510.744    636.286    510.744    518.755    510.744
 71.070    645.884    687.004    -41.120    510.832    678.107    510.832    519.689    510.832
 71.170    727.000    749.065    -22.065    510.919    739.109    510.919    520.818    510.919
 71.270    827.000    835.277     -8.277    511.005    823.994    511.005    522.208    511.005
 71.370    970.000    948.925     21.075    511.091    935.961    511.091    523.951    511.091
 71.470   1059.967   1090.250    -30.283    511.176   1075.133    511.176    526.163    511.176
 71.570   1280.000   1254.909     25.091    511.260   1237.031    511.260    528.984    511.260
 71.670   1408.000   1432.849    -24.849    511.344   1411.441    511.344    532.581    511.344
 71.770   1617.462   1607.892      9.570    511.427   1582.007    511.427    537.132    511.427
 71.870   1813.000   1758.487     54.513    511.509   1727.008    511.509    542.816    511.509
 71.970   1886.779   1860.844     25.934    511.590   1822.499    511.590    549.786    511.590
 72.070   1956.643   1895.775     60.868    511.671   1849.182    511.671    558.147    511.671
 72.170   1904.322   1857.213     47.108    511.751   1800.971    511.751    567.913    511.751
 72.270   1738.000   1755.553    -17.553    511.830   1688.358    511.830    578.977    511.830
 72.370   1652.304   1612.139     40.165    511.908   1532.970    511.908    591.056    511.908
 72.470   1487.000   1450.406     36.594    511.986   1358.751    511.986    603.637    511.986
 72.570   1328.000   1289.936     38.064    512.062   1186.081    512.062    615.924    512.062
 72.670   1109.000   1144.183    -35.183    512.138   1029.520    512.138    626.814    512.138
 72.770   1013.000   1020.267     -7.267    512.214    897.498    512.214    634.994    512.214
 72.870    922.518    919.935      2.583    512.288    792.996    512.288    639.237    512.288
 72.970    818.000    841.267    -23.267    512.362    714.820    512.362    638.816    512.362
 73.070    721.000    780.568    -59.568    512.434    659.182    512.434    633.825    512.434
 73.170    751.724    733.835     17.889    512.506    621.218    512.506    625.126    512.506
 73.270    643.000    697.556    -54.556    512.577    596.140    512.577    613.996    512.577
 73.370    687.000    668.983     18.017    512.647    579.916    512.647    601.717    512.647
 73.470    644.273    646.136     -1.863    512.717    569.525    512.717    589.330    512.717
 73.570    632.633    627.694      4.939    512.785    562.913    512.785    577.570    512.785
 73.670    564.000    612.836    -48.836    512.853    558.796    512.853    566.898    512.853
 73.770    582.000    601.062    -19.062    512.919    556.433    512.919    557.556    512.919
 73.870    626.000    592.040     33.960    512.985    555.410    512.985    549.626    512.985
 73.970    640.000    585.482     54.518    513.050    555.478    513.050    543.069    513.050
 74.070    559.333    581.075    -21.741    513.114    556.438    513.114    537.770    513.114
 74.170    573.281    578.431     -5.150    513.177    558.065    513.177    533.568    513.177
 74.270    580.000    577.081      2.919    513.239    560.068    513.239    530.283    513.239
 74.370    617.632    576.474     41.158    513.300    562.073    513.300    527.738    513.300
 74.470    544.601    576.012    -31.411    513.360    563.641    513.360    525.771    513.360
 74.570    599.000    575.122     23.878    513.419    564.338    513.419    524.247    513.419
 74.670    654.000    573.395     80.605    513.477    563.862    513.477    523.055    513.477
 74.770    560.000    570.709    -10.709    513.535    562.177    513.535    522.109    513.535
 74.870    606.810    567.253     39.557    513.591    559.538    513.591    521.345    513.591
 74.970    536.675    563.429    -26.754    513.646    556.392    513.646    520.717    513.646
 75.070    565.534    559.720      5.814    513.701    553.256    513.701    520.192    513.701
 75.170    583.912    556.611     27.301    513.754    550.640    513.754    519.746    513.754
 75.270    557.000    554.576      2.424    513.806    549.035    513.806    519.362    513.806
 75.370    539.964    554.086    -14.122    513.857    548.923    513.857    519.029    513.857
 75.470    560.710    555.620      5.090    513.908    550.794    513.908    518.737    513.908
 75.570    577.000    559.667     17.333    513.957    555.141    513.957    518.480    513.957
 75.670    561.669    566.688     -5.019    514.005    562.431    514.005    518.253    514.005
 75.770    577.297    577.045      0.252    514.052    573.030    514.052    518.051    514.052
 75.870    609.642    590.894     18.748    514.098    587.097    514.098    517.872    514.098
 75.970    648.000    608.049     39.951    514.143    604.449    514.143    517.712    514.143
 76.070    594.339    627.861    -33.522    514.187    624.439    514.187    517.570    514.187
 76.170    680.000    649.123     30.877    514.230    645.864    514.230    517.442    514.230
 76.270    641.000    670.046    -29.046    514.271    666.936    514.271    517.327    514.271
 76.370    684.000    688.315     -4.315    514.312    685.344    514.312    517.225    514.312
 76.470    683.000    701.355    -18.355    514.351    698.514    514.351    517.132    514.351
 76.570    720.000    706.915     13.085    514.390    704.198    514.390    517.049    514.390
 76.670    653.000    703.885    -50.885    514.427    701.285    514.427    516.974    514.427
 76.770    642.000    692.792    -50.792    514.463    690.304    514.463    516.906    514.463
 76.870    641.000    675.542    -34.542    514.498    673.158    514.498    516.844    514.498
 76.970    678.552    654.649     23.903    514.532    652.362    514.532    516.789    514.532
 77.070    589.000    632.539    -43.539    514.565    630.343    514.565    516.738    514.565
 77.170    613.595    611.180      2.414    514.596    609.068    514.596    516.693    514.596
 77.270    571.082    591.953    -20.871    514.627    589.917    514.627    516.651    514.627
 77.370    593.000    575.646     17.354    514.656    573.681    514.656    516.613    514.656
 77.470    569.000    562.529      6.471    514.684    560.629    514.684    516.578    514.684
 77.570    524.000    552.468    -28.468    514.711    550.629    514.711    516.546    514.711
 77.670    528.000    545.071    -17.071    514.737    543.289    514.737    516.517    514.737
 77.770    498.491    539.828    -41.337    514.761    538.098    514.761    516.490    514.761
 77.870    530.000    536.216     -6.216    514.785    534.535    514.785    516.465    514.785
 77.970    501.102    533.774    -32.672    514.807    532.138    514.807    516.442    514.807
 78.070    527.000    532.134     -5.134    514.828    530.540    514.828    516.421    514.828
 78.170    516.000    531.028    -15.028    514.847    529.474    514.847    516.401    514.847
 78.270    521.445    530.271     -8.825    514.866    528.753    514.866    516.382    514.866
 78.370    492.000    529.732    -37.732    514.883    528.250    514.883    516.365    514.883
 78.470    505.000    529.350    -24.350    514.899    527.900    514.899    516.349    514.899
 78.570    525.119    529.128     -4.009    514.914    527.708    514.914    516.333    514.914
 78.670    505.718    529.028    -23.310    514.928    527.636    514.928    516.319    514.928
 78.770    509.591    529.051    -19.460    514.940    527.684    514.940    516.306    514.940
 78.870    567.000    529.209     37.791    514.951    527.865    514.951    516.294    514.951
 78.970    522.304    529.520     -7.217    514.961    528.197    514.961    516.284    514.961
 79.070    485.690    530.008    -44.318    514.969    528.702    514.969    516.274    514.969
 79.170    533.944    530.696      3.247    514.976    529.405    514.976    516.266    514.976
 79.270    511.759    531.611    -19.852    514.982    530.331    514.982    516.260    514.982
 79.370    500.408    532.777    -32.369    514.987    531.506    514.987    516.256    514.987
 79.470    500.000    534.225    -34.225    514.991    532.959    514.991    516.254    514.991
 79.570    555.000    535.998     19.002    514.993    534.733    514.993    516.254    514.993
 79.670    523.740    538.158    -14.418    514.993    536.891    514.993    516.256    514.993
 79.770    531.194    540.805     -9.611    514.993    539.533    514.993    516.261    514.993
 79.870    545.000    544.091      0.909    514.991    542.810    514.991    516.268    514.991
 79.970    542.000    548.238     -6.238    514.988    546.945    514.988    516.277    514.988
 80.070    509.000    553.558    -44.558    514.984    552.251    514.984    516.287    514.984
 80.170    581.137    560.448     20.690    514.978    559.125    514.978    516.298    514.978
 80.270    585.000    569.354     15.646    514.971    568.017    514.971    516.308    514.971
 80.370    559.000    580.687    -21.687    514.962    579.336    514.962    516.315    514.962
 80.470    601.000    594.710      6.290    514.953    593.349    514.953    516.319    514.953
 80.570    622.000    611.439     10.561    514.942    610.075    514.942    516.315    514.942
 80.670    614.000    630.563    -16.563    514.929    629.204    514.929    516.303    514.929
 80.770    656.000    651.400      4.600    514.915    650.055    514.915    516.281    514.915
 80.870    626.147    672.914    -46.768    514.900    671.593    514.900    516.248    514.900
 80.970    692.000    693.826     -1.826    514.884    692.537    514.884    516.206    514.884
 81.070    738.829    712.779     26.050    514.866    711.529    514.866    516.156    514.866
 81.170    734.000    728.530      5.470    514.847    727.324    514.847    516.101    514.847
 81.270    749.000    740.066      8.934    514.826    738.905    514.826    516.042    514.826
 81.370    758.607    746.685     11.922    514.804    745.568    514.804    515.982    514.804
 81.470    740.000    748.070     -8.070    514.781    746.995    514.781    515.921    514.781
 81.570    770.160    744.305     25.855    514.756    743.269    514.756    515.861    514.756
 81.670    734.000    735.828     -1.828    514.730    734.827    514.730    515.803    514.730
 81.770    740.000    723.386     16.614    514.703    722.414    514.703    515.746    514.703
 81.870    698.000    708.013    -10.013    514.674    707.067    514.674    515.691    514.674
 81.970    687.000    690.918     -3.918    514.644    689.992    514.644    515.637    514.644
 82.070    680.000    673.245      6.755    514.612    672.337    514.612    515.585    514.612
 82.170    647.441    655.862     -8.421    514.579    654.967    514.579    515.534    514.579
 82.270    639.788    639.279      0.509    514.545    638.395    514.545    515.485    514.545
 82.370    694.000    623.734     70.266    514.509    622.859    514.509    515.436    514.509
 82.470    630.000    609.353     20.647    514.472    608.483    514.472    515.388    514.472
 82.570    551.545    596.273    -44.728    514.433    595.407    514.433    515.339    514.433
 82.670    560.000    584.678    -24.678    514.393    583.814    514.393    515.291    514.393
 82.770    521.000    574.763    -53.763    514.352    573.899    514.352    515.243    514.352
 82.870    548.000    566.694    -18.694    514.309    565.829    514.309    515.194    514.309
 82.970    553.000    560.594     -7.594    514.265    559.727    514.265    515.145    514.265
 83.070    522.000    556.523    -34.523    514.219    555.653    514.219    515.095    514.219
 83.170    571.581    554.474     17.107    514.172    553.600    514.172    515.044    514.172
 83.270    563.000    554.349      8.651    514.123    553.471    514.123    514.993    514.123
 83.370    554.000    555.948     -1.948    514.073    555.066    514.073    514.940    514.073
 83.470    569.000    558.962     10.038    514.022    558.075    514.022    514.887    514.022
 83.570    595.542    562.970     32.572    513.969    562.078    513.969    514.831    513.969
 83.670    590.000    567.453     22.547    513.915    566.556    513.915    514.776    513.915
 83.770    514.000    571.815    -57.815    513.859    570.915    513.859    514.719    513.859
 83.870    571.921    575.426     -3.506    513.802    574.524    513.802    514.661    513.802
 83.970    604.406    577.698     26.708    513.744    576.794    513.744    514.603    513.744
 84.070    624.201    578.190     46.011    513.684    577.287    513.684    514.543    513.684
 84.170    551.000    576.735    -25.735    513.622    575.833    513.622    514.482    513.622
 84.270    567.000    573.472     -6.472    513.559    572.573    513.559    514.420    513.559
 84.370    553.000    568.793    -15.793    513.495    567.897    513.495    514.357    513.495
 84.470    548.971    563.206    -14.236    513.429    562.314    513.429    514.292    513.429
 84.570    585.000    557.228     27.772    513.362    556.339    513.362    514.227    513.362
 84.670    516.301    551.309    -35.009    513.293    550.423    513.293    514.160    513.293
 84.770    541.000    545.803     -4.803    513.223    544.918    513.223    514.093    513.223
 84.870    538.000    540.949     -2.949    513.152    540.064    513.152    514.024    513.152
 84.970    560.000    536.876     23.124    513.079    535.991    513.079    513.954    513.079
 85.070    506.000    533.619    -27.619    513.004    532.733    513.004    513.883    513.004
 85.170    567.000    531.140     35.860    512.928    530.252    512.928    513.811    512.928
 85.270    564.722    529.356     35.366    512.851    528.465    512.851    513.737    512.851
 85.370    570.657    528.168     42.489    512.772    527.272    512.772    513.663    512.772
 85.470    492.921    527.478    -34.557    512.692    526.578    512.692    513.587    512.692
 85.570    510.000    527.211    -17.211    512.611    526.307    512.611    513.510    512.611
 85.670    485.666    527.325    -41.659    512.527    526.414    512.527    513.432    512.527
 85.770    561.578    527.814     33.765    512.443    526.896    512.443    513.354    512.443
 85.870    523.075    528.712     -5.637    512.357    527.787    512.357    513.273    512.357
 85.970    540.000    530.097      9.903    512.269    529.164    512.269    513.192    512.269
 86.070    526.000    532.081     -6.081    512.181    531.139    512.181    513.110    512.181
 86.170    548.000    534.811     13.189    512.090    533.858    512.090    513.027    512.090
 86.270    597.000    538.448     58.552    511.999    537.483    511.999    512.943    511.999
 86.370    535.000    543.155     -8.155    511.905    542.177    511.905    512.857    511.905
 86.470    557.000    549.070      7.930    511.811    548.076    511.811    512.771    511.811
 86.570    562.000    556.274      5.726    511.715    555.263    511.715    512.683    511.715
 86.670    564.171    564.760     -0.589    511.617    563.730    511.617    512.595    511.617
 86.770    598.644    574.399     24.245    511.518    573.349    511.518    512.506    511.518
 86.870    541.934    584.913    -42.979    511.418    583.841    511.418    512.415    511.418
 86.970    617.628    595.861     21.767    511.316    594.768    511.316    512.324    511.316
 87.070    611.893    606.636      5.256    511.213    605.522    511.213    512.232    511.213
 87.170    662.093    616.488     45.605    511.108    615.354    511.108    512.139    511.108
 87.270    637.000    624.577     12.423    511.002    623.425    511.002    512.045    511.002
 87.370    663.000    630.091     32.909    510.894    628.923    510.894    511.950    510.894
 87.470    627.000    632.423     -5.423    510.785    631.244    510.785    511.855    510.785
 87.570    654.000    631.353     22.647    510.675    630.166    510.675    511.759    510.675
 87.670    597.254    627.120    -29.865    510.563    625.926    510.563    511.662    510.563
 87.770    666.249    620.339     45.910    510.450    619.141    510.450    511.564    510.450
 87.870    594.000    611.846    -17.846    510.335    610.644    510.335    511.466    510.335
 87.970    577.934    602.537    -24.603    510.219    601.331    510.219    511.367    510.219
 88.070    630.896    593.271     37.625    510.102    592.059    510.102    511.267    510.102
 88.170    590.414    584.801      5.612    509.983    583.583    509.983    511.167    509.983
 88.270    614.000    577.740     36.260    509.863    576.512    509.863    511.067    509.863
 88.370    540.607    572.527    -31.921    509.741    571.288    509.741    510.966    509.741
 88.470    593.383    569.423     23.960    509.618    568.171    509.618    510.865    509.618
 88.570    587.032    568.501     18.530    509.493    567.235    509.493    510.764    509.493
 88.670    554.000    569.664    -15.664    509.368    568.381    509.368    510.663    509.368
 88.770    587.123    572.648     14.475    509.240    571.347    509.240    510.561    509.240
 88.870    532.000    577.050    -45.050    509.112    575.730    509.112    510.460    509.112
 88.970    574.000    582.345     -8.345    508.982    581.004    508.982    510.359    508.982
 89.070    598.000    587.916     10.084    508.850    586.551    508.850    510.258    508.850
 89.170    580.150    593.085    -12.935    508.718    591.695    508.718    510.158    508.718
 89.270    587.000    597.171    -10.171    508.583    595.753    508.583    510.058    508.583
 89.370    572.000    599.569    -27.569    508.448    598.118    508.448    509.959    508.448
 89.470    567.000    599.858    -32.858    508.311    598.372    508.311    509.861    508.311
 89.570    590.000    597.901     -7.901    508.173    596.374    508.173    509.764    508.173
 89.670    624.641    593.860     30.781    508.033    592.287    508.033    509.668    508.033
 89.770    563.000    588.130    -25.130    507.892    586.506    507.892    509.575    507.892
 89.870    599.000    581.251     17.749    507.750    579.572    507.750    509.483    507.750
 89.970    515.000    573.786    -58.786    507.607    572.045    507.607    509.394    507.607
 90.070    565.035    566.222     -1.187    507.462    564.417    507.462    509.308    507.462
 90.170    586.549    558.973     27.576    507.316    557.098    507.316    509.225    507.316
 90.270    538.000    552.349    -14.349    507.168    550.398    507.168    509.147    507.168
 90.370    573.319    546.552     26.766    507.019    544.520    507.019    509.074    507.019
 90.470    535.000    541.687     -6.687    506.869    539.566    506.869    509.007    506.869
 90.570    532.000    537.773     -5.773    506.717    535.554    506.717    508.949    506.717
 90.670    506.788    534.765    -27.977    506.565    532.439    506.565    508.900    506.565
 90.770    529.000    532.579     -3.579    506.411    530.132    506.411    508.863    506.411
 90.870    516.543    531.112    -14.570    506.255    528.530    506.255    508.842    506.255
 90.970    484.000    530.266    -46.266    506.099    527.528    506.099    508.839    506.099
 91.070    529.000    529.959     -0.959    505.941    527.041    505.941    508.859    505.941
 91.170    556.000    530.139     25.861    505.782    527.012    505.782    508.908    505.782
 91.270    508.000    530.790    -22.790    505.621    527.419    505.621    508.990    505.621
 91.370    525.346    531.937     -6.590    505.459    528.280    505.459    509.113    505.459
 91.470    517.000    533.647    -16.647    505.297    529.655    505.297    509.285    505.297
 91.570    571.000    536.032     34.968    505.132    531.646    505.132    509.514    505.132
 91.670    530.560    539.240     -8.680    504.967    534.392    504.967    509.808    504.967
 91.770    553.000    543.452      9.548    504.800    538.066    504.800    510.177    504.800
 91.870    510.787    548.875    -38.088    504.632    542.865    504.632    510.629    504.632
 91.970    568.000    555.727     12.273    504.463    549.000    504.463    511.173    504.463
 92.070    527.000    564.209    -37.209    504.293    556.667    504.293    511.815    504.293
 92.170    612.198    574.492     37.706    504.122    566.028    504.122    512.560    504.122
 92.270    622.703    586.686     36.017    503.949    577.195    503.949    513.409    503.949
 92.370    598.000    600.814     -2.814    503.775    590.189    503.775    514.362    503.775
 92.470    614.730    616.761     -2.030    503.600    604.905    503.600    515.413    503.600
 92.570    668.408    634.375     34.033    503.424    621.200    503.424    516.549    503.424
 92.670    701.000    653.317     47.683    503.247    638.753    503.247    517.754    503.247
 92.770    654.156    673.077    -18.921    503.068    657.082    503.068    519.001    503.068
 92.870    658.000    693.040    -35.040    502.889    675.607    502.889    520.254    502.889
 92.970    714.000    712.510      1.490    502.708    693.679    502.708    521.468    502.708
 93.070    744.000    730.797     13.203    502.526    710.666    502.526    522.584    502.526
 93.170    758.000    747.344     10.656    502.343    726.077    502.343    523.535    502.343
 93.270    767.000    761.831      5.169    502.159    739.662    502.159    524.253    502.159
 93.370    792.000    774.221     17.779    501.974    751.449    501.974    524.672    501.974
 93.470    763.000    784.702    -21.702    501.788    761.672    501.788    524.746    501.788
 93.570    805.000    793.595     11.405    501.600    770.672    501.600    524.455    501.600
 93.670    813.000    801.276     11.724    501.412    778.812    501.412    523.809    501.412
 93.770    784.406    808.129    -23.723    501.222    786.439    501.222    522.848    501.222
 93.870    829.000    814.594     14.406    501.032    793.929    501.032    521.635    501.032
 93.970    828.661    821.174      7.487    500.840    801.718    500.840    520.237    500.840
 94.070    816.000    828.386    -12.386    500.648    810.253    500.648    518.723    500.648
 94.170    890.638    836.628     54.010    500.454    819.873    500.454    517.154    500.454
 94.270    850.000    846.015      3.985    500.260    830.643    500.260    515.580    500.260
 94.370    912.000    856.268     55.732    500.064    842.244    500.064    514.039    500.064
 94.470    916.995    866.668     50.327    499.868    853.930    499.868    512.560    499.868
 94.570    901.000    876.109     24.891    499.670    864.575    499.670    511.164    499.670
 94.670    937.000    883.216     53.784    499.472    872.789    499.472    509.865    499.472
 94.770    940.000    886.537     53.463    499.272    877.114    499.272    508.668    499.272
 94.870    917.000    884.804     32.196    499.072    876.280    499.072    507.578    499.072
 94.970    952.000    877.227     74.773    498.871    869.494    498.871    506.593    498.871
 95.070    846.000    863.705    -17.705    498.668    856.662    498.668    505.709    498.668
 95.170    871.026    844.879     26.147    498.465    838.427    498.465    504.921    498.465
 95.270    842.160    822.003     20.157    498.261    816.053    498.261    504.221    498.261
 95.370    818.000    796.724     21.276    498.056    791.192    498.056    503.600    498.056
 95.470    761.000    770.861     -9.861    497.851    765.674    497.851    503.050    497.851
 95.570    768.000    746.250     21.750    497.644    741.345    497.644    502.563    497.644
 95.670    755.633    724.642     30.991    497.437    719.960    497.437    502.129    497.437
 95.770    743.850    707.633     36.217    497.228    703.127    497.228    501.741    497.228
 95.870    722.000    696.639     25.361    497.019    692.267    497.019    501.393    497.019
 95.970    683.000    692.871     -9.871    496.809    688.597    496.809    501.078    496.809
 96.070    732.000    697.330     34.670    496.599    693.125    496.599    500.791    496.599
 96.170    670.000    710.805    -40.805    496.387    706.642    496.387    500.528    496.387
 96.270    744.000    733.850     10.150    496.175    729.708    496.175    500.286    496.175
 96.370    735.000    766.743    -31.743    495.962    762.603    495.962    500.062    495.962
 96.470    779.000    809.477    -30.477    495.748    805.321    495.748    499.854    495.748
 96.570    816.051    861.624    -45.573    495.534    857.439    495.534    499.659    495.534
 96.670    930.000    922.274      7.726    495.319    918.047    495.319    499.478    495.319
 96.770   1044.691    989.975     54.715    495.103    985.694    495.103    499.309    495.103
 96.870   1093.152   1062.674     30.478    494.886   1058.328    494.886    499.152    494.886
 96.970   1156.000   1137.697     18.303    494.669   1133.278    494.669    499.007    494.669
 97.070   1160.043   1211.774    -51.731    494.451   1207.272    494.451    498.873    494.451
 97.170   1234.852   1281.128    -46.276    494.233   1276.534    494.233    498.752    494.233
 97.270   1341.000   1341.665     -0.665    494.014   1336.970    494.014    498.644    494.014
 97.370   1389.000   1389.325     -0.325    493.794   1384.519    493.794    498.550    493.794
 97.470   1478.472   1420.609     57.863    493.574   1415.679    493.574    498.471    493.574
 97.570   1372.932   1433.181    -60.249    493.353   1428.112    493.353    498.408    493.353
 97.670   1405.000   1426.341    -21.341    493.131   1421.114    493.131    498.364    493.131
 97.770   1361.000   1401.135    -40.135    492.910   1395.727    492.910    498.342    492.910
 97.870   1366.000   1360.068      5.932    492.687   1354.451    492.687    498.344    492.687
 97.970   1309.000   1306.585      2.415    492.464   1300.726    492.464    498.375    492.464
 98.070   1261.000   1244.553     16.447    492.240   1238.414    492.240    498.441    492.240
 98.170   1241.208   1177.883     63.325    492.016   1171.417    492.016    498.548    492.016
 98.270   1094.000   1110.276    -16.276    491.792   1103.430    491.792    498.705    491.792
 98.370   1049.000   1045.082      3.918    491.567   1037.794    491.567    498.921    491.567
 98.470    944.715    985.220    -40.505    491.342    977.413    491.342    499.209    491.342
 98.570    886.000    933.141    -47.141    491.116    924.727    491.116    499.583    491.116
 98.670    855.000    890.837    -35.837    490.890    881.710    490.890    500.061    490.890
 98.770    838.000    859.866    -21.866    490.663    849.902    490.663    500.662    490.663
 98.870    869.408    841.398     28.010    490.436    830.451    490.436    501.410    490.436
 98.970    781.293    836.271    -54.978    490.209    824.170    490.209    502.327    490.209
 99.070    832.799    845.035    -12.236    489.982    831.582    489.982    503.442    489.982
 99.170    868.000    867.982      0.018    489.754    852.954    489.754    504.784    489.754
 99.270    921.000    905.152     15.848    489.526    888.294    489.526    506.379    489.526
 99.370   1004.988    956.301     48.687    489.297    937.333    489.297    508.259    489.297
 99.470    969.000   1020.858    -51.858    489.068    999.471    489.068    510.448    489.068
 99.570   1060.000   1097.848    -37.848    488.839   1073.713    488.839    512.970    488.839
 99.670   1175.130   1185.827    -10.697    488.610   1158.595    488.610    515.844    488.610
 99.770   1249.000   1282.812    -33.812    488.381   1252.124    488.381    519.079    488.381
 99.870   1414.000   1386.242     27.758    488.151   1351.740    488.151    522.678    488.151
 99.970   1543.000   1492.960     50.040    487.922   1454.293    487.922    526.631    487.922
100.070   1627.000   1599.283     27.717    487.692   1556.124    487.692    530.914    487.692
100.170   1737.000   1701.171     35.829    487.462   1653.231    487.462    535.488    487.462
100.270   1881.000   1794.503     86.497    487.232   1741.553    487.232    540.294    487.232
100.370   1835.506   1875.479    -39.973    487.002   1817.368    487.002    545.252    487.002
100.470   1886.000   1940.909    -54.909    486.772   1877.590    486.772    550.255    486.772
100.570   2019.123   1988.372     30.751    486.541   1919.931    486.541    555.169    486.541
100.670   2019.000   2016.224      2.776    486.311   1942.911    486.311    559.832    486.311
100.770   2097.000   2023.520     73.480    486.081   1945.772    486.081    564.052    486.081
100.870   1980.000   2010.050    -30.050    485.851   1928.512    485.851    567.624    485.851
100.970   1892.196   1976.540    -84.343    485.620   1892.063    485.620    570.341    485.620
101.070   1891.000   1924.888    -33.888    485.390   1838.503    485.390    572.021    485.390
101.170   1939.000   1858.222     80.778    485.160   1771.090    485.160    572.536    485.160
101.270   1757.468   1780.647    -23.180    484.930   1693.980    484.930    571.834    484.930
101.370   1644.597   1696.756    -52.159    484.700   1611.731    484.700    569.951    484.700
101.470   1661.000   1611.081     49.919    484.471   1528.765    484.471    566.999    484.471
101.570   1501.000   1527.651    -26.651    484.241   1448.937    484.241    563.151    484.241
101.670   1413.000   1449.712    -36.712    484.012   1375.294    484.012    558.610    484.012
101.770   1377.715   1379.596     -1.881    483.783   1309.957    483.783    553.585    483.783
101.870   1285.000   1318.683    -33.683    483.554   1254.116    483.554    548.271    483.554
101.970   1221.000   1267.439    -46.439    483.325   1208.065    483.325    542.835    483.325
102.070   1253.000   1225.484     27.516    483.097   1171.286    483.097    537.420    483.097
102.170   1183.000   1191.702     -8.702    482.869   1142.551    482.869    532.136    482.869
102.270   1229.381   1164.382     64.999    482.641   1120.064    482.641    527.069    482.641
102.370   1149.986   1141.391      8.595    482.414   1101.627    482.414    522.283    482.414
102.470   1134.000   1120.407     13.593    482.187   1084.876    482.187    517.821    482.187
102.570   1050.000   1099.190    -49.190    481.960   1067.544    481.960    513.709    481.960
102.670   1072.000   1075.877     -3.877    481.734   1047.754    481.734    509.960    481.734
102.770   1000.000   1049.222    -49.222    481.508   1024.257    481.508    506.575    481.508
102.870   1068.894   1018.701     50.193    481.283    996.541    481.283    503.545    481.283
102.970    992.000    984.471      7.529    481.058    964.776    481.058    500.852    481.058
103.070    979.000    947.195     31.805    480.834    929.649    480.834    498.475    480.834
103.170    883.084    907.844    -24.759    480.610    892.156    480.610    496.388    480.610
103.270    832.669    867.508    -34.839    480.387    853.416    480.387    494.563    480.387
103.370    778.689    827.274    -48.585    480.165    814.544    480.165    492.971    480.165
103.470    791.000    788.138      2.862    479.943    776.567    479.943    491.583    479.943
103.570    787.000    750.955     36.045    479.721    740.366    479.721    490.372    479.721
103.670    697.919    716.406    -18.487    479.501    706.648    479.501    489.313    479.501
103.770    727.000    684.982     42.018    479.281    675.928    479.281    488.382    479.281
103.870    668.000    656.983     11.017    479.062    648.525    479.062    487.560    479.062
103.970    662.000    632.526     29.474    478.843    624.574    478.843    486.828    478.843
104.070    643.000    611.569     31.431    478.626    604.050    478.626    486.172    478.626
104.170    617.000    593.943     23.057    478.409    586.795    478.409    485.579    478.409
104.270    599.833    579.384     20.449    478.193    572.556    478.193    485.038    478.193
104.370    526.525    567.572    -41.047    477.977    561.022    477.977    484.541    477.977
104.470    558.000    558.161     -0.161    477.763    551.854    477.763    484.081    477.763
104.570    595.757    550.806     44.951    477.550    544.713    477.550    483.651    477.550
104.670    594.000    545.186     48.814    477.337    539.282    477.337    483.247    477.337
104.770    581.000    541.018     39.982    477.126    535.282    477.126    482.866    477.126
104.870    535.000    538.066     -3.066    476.915    532.479    476.915    482.505    476.915
104.970    556.900    536.144     20.756    476.706    530.689    476.706    482.161    476.706
105.070    507.000    535.116    -28.116    476.497    529.780    476.497    481.832    476.497
105.170    537.000    534.897      2.103    476.290    529.666    476.290    481.518    476.290
105.270    552.000    535.444     16.556    476.084    530.307    476.084    481.217    476.084
105.370    548.000    536.759     11.241    475.878    531.705    475.878    480.927    475.878
105.470    557.000    538.871     18.129    475.675    533.890    475.675    480.648    475.675
105.570    580.000    541.838     38.162    475.472    536.920    475.472    480.380    475.472
105.670    557.000    545.734     11.266    475.270    540.871    475.270    480.122    475.270
105.770    556.382    550.638      5.744    475.070    545.822    475.070    479.873    475.070
105.870    550.000    556.625     -6.625    474.871    551.847    474.871    479.632    474.871
105.970    591.000    563.747     27.253    474.673    559.000    474.673    479.400    474.673
106.070    625.000    572.023     52.977    474.477    567.300    474.477    479.177    474.477
106.170    623.783    581.422     42.361    474.282    576.717    474.282    478.961    474.282
106.270    556.000    591.878    -35.878    474.088    587.185    474.088    478.753    474.088
106.370    623.819    603.255     20.564    473.896    598.566    473.896    478.553    473.896
106.470    584.189    615.352    -31.163    473.705    610.663    473.705    478.360    473.705
106.570    607.000    627.914    -20.914    473.516    623.218    473.516    478.175    473.516
106.670    626.000    640.629    -14.629    473.328    635.922    473.328    477.996    473.328
106.770    654.488    653.140      1.348    473.142    648.415    473.142    477.825    473.142
106.870    662.000    665.055     -3.055    472.957    660.309    472.957    477.661    472.957
106.970    699.000    675.975     23.025    472.774    671.203    472.774    477.504    472.774
107.070    638.000    685.518    -47.518    472.593    680.716    472.593    477.354    472.593
107.170    663.000    693.371    -30.371    472.413    688.533    472.413    477.211    472.413
107.270    716.000    699.329     16.671    472.236    694.451    472.236    477.075    472.236
107.370    742.273    703.340     38.932    472.059    698.418    472.059    476.947    472.059
107.470    675.000    705.520    -30.520    471.885    700.549    471.885    476.826    471.885
107.570    726.000    706.132     19.868    471.712    701.106    471.712    476.713    471.712
107.670    648.000    705.544    -57.544    471.542    700.457    471.542    476.607    471.542
107.770    701.000    704.170     -3.170    471.373    699.018    471.373    476.509    471.373
107.870    658.000    702.418    -44.418    471.206    697.193    471.206    476.418    471.206
107.970    701.000    700.640      0.360    471.041    695.337    471.041    476.337    471.041
108.070    671.000    699.108    -28.108    470.878    693.720    470.878    476.263    470.878
108.170    654.000    697.991    -43.991    470.717    692.511    470.717    476.198    470.717
108.270    737.862    697.349     40.514    470.558    691.769    470.558    476.142    470.558
108.370    673.533    697.125    -23.591    470.401    691.439    470.401    476.096    470.401
108.470    723.000    697.155     25.845    470.247    691.354    470.247    476.058    470.247
108.570    687.145    697.178    -10.033    470.094    691.255    470.094    476.031    470.094
108.670    690.000    696.861     -6.861    469.944    690.808    469.944    476.015    469.944
108.770    666.000    695.837    -29.837    469.795    689.644    469.795    476.009    469.795
108.870    696.000    693.747      2.253    469.650    687.405    469.650    476.015    469.650
108.970    697.310    690.302      7.008    469.506    683.801    469.506    476.032    469.506
109.070    649.491    685.321    -35.830    469.365    678.650    469.365    476.062    469.365
109.170    657.000    678.764    -21.764    469.226    671.911    469.226    476.106    469.226
109.270    632.000    670.725    -38.725    469.089    663.679    469.089    476.163    469.089
109.370    652.469    661.411     -8.942    468.955    654.159    468.955    476.236    468.955
109.470    606.172    651.105    -44.933    468.824    643.631    468.824    476.324    468.824
109.570    617.000    640.123    -23.123    468.695    632.414    468.695    476.430    468.695
109.670    640.000    628.791     11.209    468.568    620.830    468.568    476.554    468.568
109.770    615.000    617.418     -2.418    468.444    609.187    468.444    476.698    468.444
109.870    572.771    606.285    -33.514    468.323    597.765    468.323    476.865    468.323
109.970    613.000    595.637     17.363    468.204    586.805    468.204    477.055    468.204
110.070    593.657    585.676      7.981    468.089    576.509    468.089    477.272    468.089
110.170    626.000    576.561     49.439    467.975    567.031    467.975    477.519    467.975
110.270    554.000    568.406    -14.406    467.865    558.483    467.865    477.800    467.865
110.370    550.837    561.280    -10.443    467.758    550.928    467.758    478.119    467.758
110.470    588.000    555.218     32.782    467.653    544.398    467.653    478.481    467.653
110.570    537.000    550.216    -13.216    467.551    538.881    467.551    478.892    467.551
110.670    532.000    546.242    -14.242    467.452    534.339    467.452    479.359    467.452
110.770    503.577    543.244    -39.668    467.356    530.710    467.356    479.892    467.356
110.870    618.000    541.155     76.845    467.264    527.918    467.264    480.501    467.264
110.970    539.000    539.900     -0.900    467.174    525.876    467.174    481.197    467.174
111.070    536.000    539.400     -3.400    467.087    524.491    467.087    481.994    467.087
111.170    546.342    539.582      6.760    467.004    523.675    467.004    482.908    467.004
111.270    573.866    540.374     33.493    466.923    523.336    466.923    483.957    466.923
111.370    571.000    541.696     29.304    466.846    523.377    466.846    485.160    466.846
111.470    543.000    543.515     -0.515    466.772    523.739    466.772    486.542    466.772
111.570    578.000    545.827     32.173    466.702    524.396    466.702    488.127    466.702
111.670    554.000    548.581      5.419    466.634    525.268    466.634    489.940    466.634
111.770    534.000    551.763    -17.763    466.570    526.313    466.570    492.013    466.570
111.870    564.345    555.372      8.973    466.510    527.497    466.510    494.378    466.510
111.970    573.167    559.421     13.745    466.453    528.801    466.453    497.065    466.453
112.070    530.000    563.934    -33.934    466.400    530.217    466.400    500.108    466.400
112.170    601.325    568.944     32.380    466.350    531.745    466.350    503.540    466.350
112.270    549.306    574.497    -25.191    466.304    533.399    466.304    507.393    466.304
112.370    645.000    580.643     64.357    466.261    535.199    466.261    511.696    466.261
112.470    559.057    587.440    -28.383    466.222    537.176    466.222    516.476    466.222
112.570    565.573    594.951    -29.378    466.187    539.372    466.187    521.756    466.187
112.670    637.609    603.246     34.363    466.155    541.838    466.155    527.553    466.155
112.770    582.000    612.400    -30.400    466.128    544.642    466.128    533.876    466.128
112.870    597.000    622.503    -25.503    466.104    547.870    466.104    540.725    466.104
112.970    628.000    633.655     -5.655    466.084    551.635    466.084    548.093    466.084
113.070    628.833    645.984    -17.151    466.068    556.083    466.068    555.956    466.068
113.170    639.000    659.646    -20.646    466.056    561.406    466.056    564.282    466.056
113.270    643.963    674.842    -30.879    466.048    567.854    466.048    573.021    466.048
113.370    658.000    691.831    -33.831    466.045    575.751    466.045    582.106    466.045
113.470    714.000    710.945      3.055    466.045    585.517    466.045    591.452    466.045
113.570    711.863    732.612    -20.750    466.050    597.685    466.050    600.953    466.050
113.670    737.000    757.377    -20.377    466.058    612.926    466.058    610.479    466.058
113.770    765.000    785.921    -20.921    466.071    632.079    466.071    619.878    466.071
113.870    833.641    819.091     14.551    466.089    656.167    466.089    628.969    466.089
113.970    794.000    857.919    -63.919    466.110    686.425    466.110    637.552    466.110
114.070    848.000    903.646    -55.646    466.137    724.314    466.137    645.405    466.137
114.170    923.000    957.737    -34.737    466.167    771.532    466.167    652.295    466.167
114.270    999.143   1021.895    -22.752    466.202    830.010    466.202    657.994    466.202
114.370   1033.000   1098.056    -65.056    466.242    901.891    466.242    662.293    466.242
114.470   1250.427   1188.370     62.057    466.286    989.499    466.286    665.019    466.286
114.570   1361.501   1295.164     66.337    466.335   1095.275    466.335    666.061    466.335
114.670   1493.196   1420.870     72.326    466.389   1221.691    466.389    665.373    466.389
114.770   1643.847   1567.918     75.929    466.447   1371.147    466.447    662.989    466.447
114.870   1868.000   1738.601    129.399    466.510   1545.832    466.510    659.013    466.510
114.970   2069.000   1934.909    134.091    466.578   1747.573    466.578    653.608    466.578
115.070   2314.000   2158.342    155.658    466.651   1977.666    466.651    646.979    466.651
115.170   2467.000   2409.717     57.283    466.729   2236.701    466.729    639.355    466.729
115.270   2873.000   2688.979    184.021    466.812   2524.391    466.812    630.966    466.812
115.370   3209.000   2995.030    213.970    466.899   2839.420    466.899    622.037    466.899
115.470   3303.000   3325.601    -22.601    466.992   3179.311    466.992    612.773    466.992
115.570   3722.000   3677.147     44.853    467.090   3540.342    467.090    603.357    467.090
115.670   4052.054   4044.813      7.241    467.194   3917.500    467.194    593.946    467.194
115.770   4349.000   4422.442    -73.442    467.302   4304.497    467.302    584.673    467.302
115.870   4854.000   4802.644     51.356    467.416   4693.838    467.416    575.647    467.416
115.970   5226.000   5176.934     49.066    467.535   5076.948    467.535    566.957    467.535
116.070   5535.000   5535.925     -0.925    467.660   5444.374    467.660    558.673    467.660
116.170   5890.000   5869.603     20.397    467.790   5786.050    467.790    550.846    467.790
116.270   6113.000   6167.692    -54.692    467.925   6091.663    467.925    543.512    467.925
116.370   6296.498   6420.130   -123.632    468.066   6351.130    468.066    536.696    468.066
116.470   6550.000   6617.666    -67.666    468.213   6555.186    468.213    530.407    468.213
116.570   6834.000   6752.541     81.459    468.365   6696.067    468.365    524.646    468.365
116.670   6953.327   6819.184    134.144    468.524   6768.210    468.524    519.406    468.524
116.770   6836.000   6814.782     21.218    468.687   6768.812    468.687    514.671    468.687
116.870   6596.912   6739.591   -142.680    468.857   6698.145    468.857    510.419    468.857
116.970   6577.000   6596.893    -19.893    469.033   6559.512    469.033    506.623    469.033
117.070   6165.000   6392.620   -227.620    469.214   6358.873    469.214    503.256    469.214
117.170   6158.003   6134.747     23.257    469.401   6104.231    469.401    500.284    469.401
117.270   5957.958   5832.590    125.368    469.595   5804.933    469.595    497.676    469.595
117.370   5323.000   5496.140   -173.140    469.794   5471.003    469.794    495.397    469.794
117.470   5050.000   5135.499    -85.499    470.000   5112.574    470.000    493.417    470.000
117.570   4825.071   4760.428     64.643    470.212   4739.440    470.212    491.704    470.212
117.670   4325.122   4380.010    -54.889    470.430   4360.716    470.430    490.228    470.430
117.770   3929.462   4002.405    -72.943    470.655   3984.588    470.655    488.961    470.655
117.870   3530.466   3634.669   -104.203    470.886   3618.142    470.886    487.879    470.886
117.970   3173.154   3282.652   -109.498    471.123   3267.253    471.123    486.959    471.123
118.070   2863.000   2950.958    -87.958    471.367   2936.545    471.367    486.180    471.367
118.170   2605.000   2642.953    -37.953    471.617   2629.407    471.617    485.525    471.617
118.270   2353.000   2360.835     -7.835    471.874   2348.054    471.874    484.976    471.874
118.370   2105.000   2105.739     -0.739    472.137   2093.635    472.137    484.520    472.137
118.470   1870.000   1877.863     -7.863    472.408   1866.365    472.408    484.145    472.408
118.570   1659.000   1676.625    -17.625    472.685   1665.669    472.685    483.841    472.685
118.670   1476.000   1500.806    -24.806    472.969   1490.341    472.969    483.599    472.969
118.770   1370.694   1348.712     21.982    473.259   1338.694    473.259    483.412    473.259
118.870   1188.000   1218.393    -30.393    473.557   1208.783    473.557    483.274    473.557
118.970   1094.361   1107.642    -13.281    473.862   1098.408    473.862    483.179    473.862
119.070   1039.000   1014.212     24.788    474.174   1005.326    474.174    483.123    474.174
119.170    918.000    935.895    -17.895    474.492    927.332    474.492    483.104    474.492
119.270    892.090    870.592     21.499    474.818    862.329    474.818    483.117    474.818
119.370    813.000    816.367     -3.367    475.152    808.383    475.152    483.160    475.152
119.470    737.000    771.478    -34.478    475.492    763.756    475.492    483.232    475.492
119.570    707.603    734.395    -26.791    475.840    726.916    475.840    483.331    475.840
119.670    731.144    703.794     27.350    476.196    696.542    476.196    483.456    476.196
119.770    628.000    678.555    -50.555    476.559    671.514    476.559    483.605    476.559
119.870    629.000    657.741    -28.741    476.929    650.896    476.929    483.779    476.929
119.970    633.000    640.581     -7.581    477.307    633.916    477.307    483.975    477.307
120.070    597.000    626.445    -29.445    477.693    619.946    477.693    484.194    477.693
120.170    621.000    614.826      6.174    478.086    608.479    478.086    484.436    478.086
120.270    566.358    605.319    -38.961    478.487    599.109    478.487    484.700    478.487
120.370    565.000    597.601    -32.601    478.896    591.515    478.896    484.986    478.896
120.470    578.000    591.417    -13.417    479.313    585.441    479.313    485.293    479.313
120.570    565.000    586.566    -21.566    479.738    580.686    479.738    485.623    479.738
120.670    604.000    582.889     21.111    480.171    577.092    480.171    485.973    480.171
120.770    550.457    580.261    -29.804    480.612    574.534    480.612    486.346    480.612
120.870    563.919    578.581    -14.662    481.062    572.910    481.062    486.740    481.062
120.970    611.000    577.768     33.232    481.519    572.140    481.519    487.155    481.519
121.070    577.909    577.752      0.157    481.985    572.155    481.985    487.591    481.985
121.170    586.000    578.474      7.526    482.459    572.895    482.459    488.049    482.459
121.270    556.447    579.879    -23.432    482.942    574.305    482.942    488.527    482.942
121.370    567.000    581.912    -14.912    483.433    576.332    483.433    489.026    483.433
121.470    634.000    584.518     49.482    483.932    578.921    483.932    489.545    483.932
121.570    616.000    587.640     28.360    484.440    582.015    484.440    490.083    484.440
121.670    606.000    591.214     14.786    484.957    585.551    484.957    490.640    484.957
121.770    586.000    595.169     -9.169    485.483    589.459    485.483    491.215    485.483
121.870    589.000    599.430    -10.430    486.017    593.664    486.017    491.808    486.017
121.970    569.627    603.911    -34.283    486.561    598.083    486.561    492.416    486.561
122.070    614.000    608.521      5.479    487.113    602.626    487.113    493.038    487.113
122.170    572.000    613.164    -41.164    487.674    607.197    487.674    493.674    487.674
122.270    624.000    617.734      6.266    488.245    611.693    488.245    494.322    488.245
122.370    660.000    622.126     37.874    488.824    616.011    488.824    494.978    488.824
122.470    634.000    626.232      7.768    489.413    620.044    489.413    495.642    489.413
122.570    628.000    629.947     -1.947    490.011    623.691    490.011    496.311    490.011
122.670    670.000    633.174     36.826    490.619    626.857    490.619    496.981    490.619
122.770    631.000    635.826     -4.826    491.236    629.460    491.236    497.649    491.236
122.870    653.450    637.841     15.609    491.862    631.436    491.862    498.316    491.862
122.970    625.039    639.174    -14.135    492.498    632.744    492.498    498.977    492.498
123.070    651.000    639.804     11.196    493.143    633.367    493.143    499.630    493.143
123.170    652.000    639.736     12.264    493.799    633.311    493.799    500.273    493.799
123.270    629.689    638.999     -9.310    494.464    632.607    494.464    500.905    494.464
123.370    638.000    637.641      0.359    495.139    631.302    495.139    501.525    495.139
123.470    642.000    635.723      6.277    495.823    629.461    495.823    502.133    495.823
123.570    587.814    633.319    -45.505    496.518    627.152    496.518    502.729    496.518
123.670    648.383    630.504     17.879    497.223    624.454    497.223    503.315    497.223
123.770    603.562    627.359    -23.797    497.938    621.443    497.938    503.894    497.938
123.870    633.428    623.961      9.466    498.663    618.194    498.663    504.466    498.663
123.970    627.000    620.384      6.616    499.399    614.781    499.399    505.036    499.399
124.070    649.740    616.697     33.043    500.144    611.267    500.144    505.606    500.144
124.170    584.700    612.960    -28.259    500.901    607.711    500.901    506.177    500.901
124.270    572.273    609.223    -36.950    501.667    604.161    501.667    506.754    501.667
124.370    623.000    605.529     17.471    502.444    600.657    502.444    507.337    502.444
124.470    598.000    601.908     -3.908    503.232    597.230    503.232    507.930    503.232
124.570    637.839    598.381     39.458    504.031    593.900    504.031    508.529    504.031
124.670    602.000    594.970      7.030    504.840    590.679    504.840    509.144    504.840
124.770    574.000    591.678    -17.678    505.660    587.575    505.660    509.776    505.660
124.870    597.301    588.508      8.792    506.492    584.587    506.492    510.423    506.492
124.970    575.000    585.458    -10.458    507.334    581.713    507.334    511.087    507.334
