neutron_powder_diffraction_0114
R_wp: 4.004
Temperature (K): 956.823
Counts: 83506.00
Wavelength (Ã…): 2.52098
COMMENTS
Test file for demonstrating the .xyy file format in Reel1.0
END OF HEADER
   tth       Y_obs     Y_calc      Y_res    Background    Phase_1_Nuc    Phase_1_Mag    Phase_2_Nuc    Phase_2_Mag
  9.970    582.000    550.427     31.573    549.311    550.239    549.311    549.498    549.311
 10.070    584.000    550.889     33.111    549.694    550.701    549.694    549.881    549.694
 10.170    587.287    551.353     35.934    550.068    551.165    550.068    550.256    550.068
 10.270    538.459    551.822    -13.363    550.432    551.633    550.432    550.621    550.432
 10.370    578.272    552.298     25.974    550.787    552.108    550.787    550.977    550.787
 10.470    513.000    552.785    -39.785    551.133    552.594    551.133    551.323    551.133
 10.570    544.999    553.288     -8.289    551.469    553.096    551.469    551.661    551.469
 10.670    590.000    553.814     36.186    551.797    553.621    551.797    551.989    551.797
 10.770    580.000    554.371     25.629    552.116    554.177    552.116    552.309    552.116
 10.870    589.021    554.970     34.051    552.426    554.775    552.426    552.619    552.426
 10.970    554.800    555.628     -0.828    552.727    555.432    552.727    552.921    552.727
 11.070    577.000    556.368     20.632    553.019    556.171    553.019    553.214    553.019
 11.170    585.623    557.226     28.397    553.303    557.028    553.303    553.499    553.303
 11.270    575.000    558.246     16.754    553.578    558.046    553.578    553.775    553.578
 11.370    561.974    559.521      2.453    553.844    559.321    553.844    554.042    553.844
 11.470    601.000    561.251     39.749    554.102    561.048    554.102    554.301    554.102
 11.570    553.000    563.913    -10.913    554.352    563.709    554.352    554.552    554.352
 11.670    573.000    568.638      4.362    554.594    568.430    554.594    554.794    554.594
 11.770    635.000    577.611     57.389    554.827    577.397    554.827    555.028    554.827
 11.870    547.570    593.897    -46.327    555.052    593.673    555.052    555.254    555.052
 11.970    584.700    619.667    -34.967    555.269    619.428    555.269    555.472    555.269
 12.070    678.000    652.426     25.574    555.478    652.168    555.478    555.682    555.478
 12.170    708.000    680.874     27.126    555.679    680.599    555.679    555.884    555.679
 12.270    641.000    687.875    -46.875    555.872    687.595    555.872    556.078    555.872
 12.370    717.033    667.724     49.309    556.058    667.455    556.058    556.265    556.058
 12.470    594.625    634.946    -40.322    556.236    634.694    556.236    556.444    556.236
 12.570    603.000    605.431     -2.431    556.406    605.195    556.406    556.615    556.406
 12.670    556.801    585.308    -28.507    556.569    585.083    556.569    556.778    556.569
 12.770    544.000    573.867    -29.867    556.724    573.647    556.724    556.934    556.724
 12.870    527.000    568.028    -41.028    556.871    567.810    556.871    557.083    556.871
 12.970    576.430    565.072     11.359    557.012    564.855    557.012    557.224    557.012
 13.070    551.000    563.426    -12.426    557.145    563.209    557.145    557.358    557.145
 13.170    551.214    562.384    -11.170    557.271    562.167    557.271    557.485    557.271
 13.270    549.000    561.663    -12.663    557.389    561.445    557.389    557.605    557.389
 13.370    536.696    561.141    -24.445    557.501    560.923    557.501    557.718    557.501
 13.470    579.000    560.754     18.246    557.606    560.535    557.606    557.823    557.606
 13.570    546.000    560.463    -14.463    557.703    560.243    557.703    557.922    557.703
 13.670    569.000    560.242      8.758    557.794    560.021    557.794    558.014    557.794
 13.770    553.000    560.072     -7.072    557.878    559.851    557.878    558.099    557.878
 13.870    536.000    559.942    -23.942    557.955    559.720    557.955    558.177    557.955
 13.970    594.000    559.839     34.161    558.026    559.615    558.026    558.249    558.026
 14.070    514.000    559.756    -45.756    558.090    559.531    558.090    558.314    558.090
 14.170    561.743    559.688      2.054    558.147    559.463    558.147    558.372    558.147
 14.270    527.736    559.633    -31.897    558.198    559.406    558.198    558.425    558.198
 14.370    510.000    559.586    -49.586    558.243    559.358    558.243    558.470    558.243
 14.470    534.814    559.545    -24.731    558.281    559.316    558.281    558.510    558.281
 14.570    563.492    559.508      3.984    558.313    559.277    558.313    558.543    558.313
 14.670    582.148    559.473     22.675    558.338    559.242    558.338    558.570    558.338
 14.770    604.083    559.440     44.643    558.358    559.207    558.358    558.590    558.358
 14.870    535.000    559.407    -24.407    558.371    559.173    558.371    558.605    558.371
 14.970    522.000    559.373    -37.373    558.379    559.138    558.379    558.614    558.379
 15.070    593.000    559.338     33.662    558.380    559.102    558.380    558.616    558.380
 15.170    566.000    559.301      6.699    558.376    559.064    558.376    558.613    558.376
 15.270    533.484    559.262    -25.777    558.365    559.023    558.365    558.604    558.365
 15.370    564.000    559.220      4.780    558.349    558.980    558.349    558.589    558.349
 15.470    532.000    559.175    -27.175    558.328    558.934    558.328    558.569    558.328
 15.570    564.761    559.127      5.633    558.300    558.885    558.300    558.543    558.300
 15.670    537.908    559.076    -21.168    558.267    558.832    558.267    558.511    558.267
 15.770    521.178    559.021    -37.843    558.228    558.776    558.228    558.474    558.228
 15.870    565.000    558.962      6.038    558.184    558.716    558.184    558.431    558.184
 15.970    553.000    558.900     -5.900    558.135    558.652    558.135    558.383    558.135
 16.070    548.570    558.834    -10.264    558.080    558.584    558.080    558.330    558.080
 16.170    551.000    558.778     -7.778    558.020    558.527    558.020    558.271    558.020
 16.270    541.000    558.814    -17.814    557.955    558.562    557.955    558.207    557.955
 16.370    536.925    558.747    -21.822    557.884    558.493    557.884    558.138    557.884
 16.470    510.495    558.667    -48.172    557.809    558.411    557.809    558.064    557.809
 16.570    517.142    558.601    -41.459    557.728    558.344    557.728    557.985    557.728
 16.670    538.000    558.519    -20.519    557.642    558.260    557.642    557.901    557.642
 16.770    599.001    558.425     40.576    557.552    558.165    557.552    557.812    557.552
 16.870    606.000    558.326     47.674    557.456    558.064    557.456    557.718    557.456
 16.970    577.000    558.223     18.777    557.356    557.960    557.356    557.619    557.356
 17.070    532.432    558.116    -25.684    557.251    557.851    557.251    557.516    557.251
 17.170    608.000    558.005     49.995    557.141    557.738    557.141    557.407    557.141
 17.270    524.389    557.889    -33.500    557.027    557.621    557.027    557.295    557.027
 17.370    541.000    557.770    -16.770    556.907    557.500    556.907    557.177    556.907
 17.470    549.000    557.647     -8.647    556.784    557.375    556.784    557.055    556.784
 17.570    555.000    557.520     -2.520    556.656    557.246    556.656    556.929    556.656
 17.670    556.000    557.389     -1.389    556.523    557.114    556.523    556.798    556.523
 17.770    539.599    557.258    -17.659    556.386    556.981    556.386    556.663    556.386
 17.870    562.000    557.119      4.881    556.245    556.841    556.245    556.524    556.245
 17.970    564.000    556.977      7.023    556.100    556.696    556.100    556.380    556.100
 18.070    536.000    556.830    -20.830    555.950    556.547    555.950    556.233    555.950
 18.170    530.000    556.680    -26.680    555.796    556.395    555.796    556.081    555.796
 18.270    547.000    556.526     -9.526    555.638    556.239    555.638    555.925    555.638
 18.370    542.851    556.368    -13.517    555.476    556.080    555.476    555.765    555.476
 18.470    533.000    556.207    -23.207    555.310    555.916    555.310    555.601    555.310
 18.570    550.000    556.042     -6.042    555.140    555.749    555.140    555.433    555.140
 18.670    506.000    555.874    -49.874    554.966    555.579    554.966    555.261    554.966
 18.770    552.000    555.702     -3.702    554.789    555.405    554.789    555.086    554.789
 18.870    571.000    555.528     15.472    554.607    555.229    554.607    554.907    554.607
 18.970    565.000    555.361      9.639    554.422    555.059    554.422    554.724    554.422
 19.070    565.000    555.242      9.758    554.233    554.939    554.233    554.537    554.233
 19.170    536.564    555.070    -18.506    554.041    554.764    554.041    554.347    554.041
 19.270    542.000    554.886    -12.886    553.845    554.577    553.845    554.153    553.845
 19.370    534.000    554.696    -20.696    553.645    554.385    553.645    553.956    553.645
 19.470    512.000    554.502    -42.502    553.442    554.189    553.442    553.755    553.442
 19.570    551.000    554.306     -3.306    553.235    553.990    553.235    553.551    553.235
 19.670    521.000    554.107    -33.107    553.025    553.788    553.025    553.344    553.025
 19.770    535.000    553.905    -18.905    552.812    553.583    552.812    553.133    552.812
 19.870    596.759    553.700     43.059    552.595    553.376    552.595    552.919    552.595
 19.970    509.861    553.493    -43.632    552.375    553.166    552.375    552.702    552.375
 20.070    541.000    553.287    -12.287    552.152    552.957    552.152    552.482    552.152
 20.170    550.000    553.118     -3.118    551.926    552.785    551.926    552.259    551.926
 20.270    544.000    552.913     -8.913    551.697    552.577    551.697    552.033    551.697
 20.370    546.326    552.697     -6.370    551.465    552.358    551.465    551.803    551.465
 20.470    540.000    552.478    -12.478    551.229    552.136    551.229    551.571    551.229
 20.570    506.000    552.257    -46.257    550.991    551.912    550.991    551.336    550.991
 20.670    533.069    552.034    -18.965    550.750    551.686    550.750    551.098    550.750
 20.770    525.326    551.809    -26.483    550.506    551.457    550.506    550.858    550.506
 20.870    491.000    551.583    -60.583    550.259    551.228    550.259    550.614    550.259
 20.970    505.000    551.363    -46.363    550.009    551.005    550.009    550.368    550.009
 21.070    529.594    551.149    -21.556    549.757    550.787    549.757    550.119    549.757
 21.170    553.000    550.920      2.080    549.502    550.554    549.502    549.868    549.502
 21.270    520.000    550.687    -30.687    549.244    550.318    549.244    549.614    549.244
 21.370    566.000    550.454     15.546    548.984    550.081    548.984    549.358    548.984
 21.470    546.000    550.220     -4.220    548.721    549.843    548.721    549.099    548.721
 21.570    591.000    549.986     41.014    548.456    549.604    548.456    548.838    548.456
 21.670    544.000    549.752     -5.752    548.189    549.366    548.189    548.575    548.189
 21.770    548.000    549.530     -1.530    547.918    549.139    547.918    548.309    547.918
 21.870    568.755    549.334     19.421    547.646    548.939    547.646    548.041    547.646
 21.970    518.505    549.110    -30.605    547.371    548.711    547.371    547.771    547.371
 22.070    545.000    548.903     -3.903    547.094    548.498    547.094    547.499    547.094
 22.170    553.000    548.675      4.325    546.815    548.266    546.815    547.224    546.815
 22.270    550.245    548.446      1.799    546.533    548.031    546.533    546.948    546.533
 22.370    541.000    548.223     -7.223    546.249    547.803    546.249    546.669    546.249
 22.470    555.364    548.039      7.324    545.964    547.614    545.964    546.389    545.964
 22.570    560.000    547.843     12.157    545.676    547.412    545.676    546.107    545.676
 22.670    553.000    547.641      5.359    545.386    547.204    545.386    545.823    545.386
 22.770    604.000    547.437     56.563    545.094    546.995    545.094    545.537    545.094
 22.870    541.000    547.240     -6.240    544.800    546.791    544.800    545.250    544.800
 22.970    552.000    547.056      4.944    544.505    546.601    544.505    544.960    544.505
 23.070    553.000    546.917      6.083    544.207    546.455    544.207    544.669    544.207
 23.170    517.000    546.789    -29.789    543.908    546.320    543.908    544.377    543.908
 23.270    570.000    546.656     23.344    543.607    546.180    543.607    544.083    543.607
 23.370    578.000    546.550     31.450    543.304    546.067    543.304    543.788    543.304
 23.470    517.993    546.490    -28.498    542.999    546.000    542.999    543.491    542.999
 23.570    548.000    546.467      1.533    542.693    545.968    542.693    543.193    542.693
 23.670    572.000    546.511     25.489    542.385    546.004    542.385    542.893    542.385
 23.770    529.000    546.639    -17.639    542.075    546.123    542.075    542.593    542.075
 23.870    534.000    546.882    -12.882    541.764    546.357    541.764    542.291    541.764
 23.970    551.000    547.309      3.691    541.452    546.775    541.452    541.988    541.452
 24.070    568.886    548.064     20.821    541.138    547.521    541.138    541.684    541.138
 24.170    539.000    549.492    -10.492    540.822    548.940    540.822    541.379    540.822
 24.270    554.000    552.377      1.623    540.505    551.816    540.505    541.073    540.505
 24.370    555.000    558.175     -3.175    540.187    557.606    540.187    540.767    540.187
 24.470    602.863    568.847     34.017    539.868    568.274    539.868    540.459    539.868
 24.570    595.000    585.686      9.314    539.547    585.113    539.547    540.151    539.547
 24.670    617.000    606.953     10.047    539.225    606.382    539.225    539.842    539.225
 24.770    627.000    625.360      1.640    538.901    624.789    538.901    539.533    538.901
 24.870    644.141    629.907     14.234    538.577    629.324    538.577    539.223    538.577
 24.970    643.376    616.688     26.688    538.251    616.080    538.251    538.913    538.251
 25.070    630.879    594.798     36.080    537.925    594.158    537.925    538.603    537.925
 25.170    582.000    574.613      7.387    537.597    573.942    537.597    538.293    537.597
 25.270    562.000    560.414      1.586    537.268    559.714    537.268    537.983    537.268
 25.370    568.000    552.002     15.998    536.938    551.276    536.938    537.672    536.938
 25.470    540.000    547.474     -7.474    536.607    546.724    536.607    537.362    536.607
 25.570    572.000    545.022     26.978    536.276    544.249    536.276    537.052    536.276
 25.670    585.000    543.547     41.453    535.943    542.749    535.943    536.743    535.943
 25.770    521.185    542.530    -21.345    535.609    541.707    535.609    536.435    535.609
 25.870    541.000    541.763     -0.763    535.275    540.913    535.275    536.127    535.275
 25.970    580.000    541.157     38.843    534.940    540.278    534.940    535.820    534.940
 26.070    559.000    540.668     18.332    534.604    539.758    534.604    535.515    534.604
 26.170    585.072    540.272     44.800    534.267    539.330    534.267    535.211    534.267
 26.270    573.000    539.955     33.045    533.930    538.977    533.930    534.909    533.930
 26.370    522.000    539.708    -17.708    533.592    538.692    533.592    534.609    533.592
 26.470    555.000    539.530     15.470    533.253    538.473    533.253    534.311    533.253
 26.570    539.000    539.418     -0.418    532.914    538.317    532.914    534.016    532.914
 26.670    571.000    539.378     31.622    532.574    538.229    532.574    533.724    532.574
 26.770    516.000    539.420    -23.420    532.234    538.219    532.234    533.435    532.234
 26.870    556.235    539.556     16.679    531.893    538.299    531.893    533.151    531.893
 26.970    524.000    539.808    -15.808    531.552    538.488    531.552    532.871    531.552
 27.070    571.155    540.203     30.952    531.210    538.816    531.210    532.597    531.210
 27.170    551.000    540.785     10.215    530.868    539.324    530.868    532.328    530.868
 27.270    581.180    541.612     39.568    530.525    540.070    530.525    532.066    530.525
 27.370    556.000    542.783     13.217    530.182    541.152    530.182    531.813    530.182
 27.470    501.605    544.478    -42.873    529.839    542.748    529.839    531.567    529.839
 27.570    568.474    547.155     21.319    529.495    545.316    529.495    531.332    529.495
 27.670    592.000    552.262     39.738    529.151    550.301    529.151    531.109    529.151
 27.770    588.000    563.997     24.003    528.807    561.899    528.807    530.897    528.807
 27.870    581.000    591.670    -10.670    528.463    589.416    528.463    530.701    528.463
 27.970    695.000    648.527     46.473    528.118    646.091    528.118    530.520    528.118
 28.070    688.058    740.740    -52.682    527.774    738.096    527.774    530.357    527.774
 28.170    890.000    848.504     41.496    527.429    845.638    527.429    530.214    527.429
 28.270    900.000    918.549    -18.549    527.084    915.459    527.084    530.093    527.084
 28.370    899.000    903.759     -4.759    526.739    900.447    526.739    529.995    526.739
 28.470    832.294    824.236      8.058    526.394    820.679    526.394    529.923    526.394
 28.570    762.000    743.713     18.287    526.049    739.871    526.049    529.878    526.049
 28.670    770.000    709.568     60.432    525.704    705.401    525.704    529.860    525.704
 28.770    729.000    730.326     -1.326    525.359    725.801    525.359    529.868    525.359
 28.870    785.762    780.949      4.812    525.014    776.046    525.014    529.900    525.014
 28.970    761.000    815.664    -54.664    524.669    810.373    524.669    529.950    524.669
 29.070    804.000    798.140      5.860    524.324    792.459    524.324    530.011    524.324
 29.170    769.956    736.652     33.304    523.980    730.577    523.980    530.069    523.980
 29.270    661.000    665.710     -4.710    523.635    659.251    523.635    530.109    523.635
 29.370    608.000    610.203     -2.203    523.291    603.395    523.291    530.111    523.291
 29.470    599.000    576.187     22.813    522.947    569.088    522.947    530.052    522.947
 29.570    568.000    558.560      9.440    522.603    551.254    522.603    529.914    522.603
 29.670    582.000    550.051     31.949    522.260    542.634    522.260    529.678    522.260
 29.770    632.000    545.649     86.351    521.917    538.231    521.917    529.336    521.917
 29.870    548.000    542.939      5.061    521.574    535.626    521.574    528.889    521.574
 29.970    541.000    540.999      0.001    521.231    533.887    521.231    528.344    521.231
 30.070    636.000    539.527     96.473    520.889    532.696    520.889    527.720    520.889
 30.170    491.468    538.464    -46.995    520.547    531.975    520.547    527.036    520.547
 30.270    552.000    537.927     14.073    520.206    531.818    520.206    526.314    520.206
 30.370    596.000    538.325     57.675    519.865    532.613    519.865    525.575    519.865
 30.470    499.694    540.555    -40.861    519.524    535.241    519.524    524.834    519.524
 30.570    556.000    546.065      9.935    519.184    541.136    519.184    524.103    519.184
 30.670    570.000    556.302     13.698    518.845    551.737    518.845    523.392    518.845
 30.770    553.668    571.287    -17.620    518.506    567.060    518.506    522.705    518.506
 30.870    633.000    587.689     45.311    518.167    583.773    518.167    522.045    518.167
 30.970    608.000    598.024      9.976    517.830    594.397    517.830    521.412    517.830
 31.070    637.000    595.369     41.631    517.492    592.015    517.492    520.807    517.492
 31.170    622.000    581.195     40.805    517.156    578.093    517.156    520.228    517.156
 31.270    526.000    563.281    -37.281    516.820    560.408    516.820    519.673    516.820
 31.370    561.000    548.017     12.983    516.484    545.349    516.484    519.141    516.484
 31.470    520.000    537.660    -17.660    516.149    535.174    516.149    518.629    516.149
 31.570    491.000    531.637    -40.637    515.815    529.313    515.815    518.137    515.815
 31.670    556.000    528.411     27.589    515.482    526.230    515.482    517.661    515.482
 31.770    523.000    526.658     -3.658    515.150    524.606    515.150    517.200    515.150
 31.870    520.000    525.609     -5.609    514.818    523.672    514.818    516.753    514.818
 31.970    511.000    524.913    -13.913    514.487    523.080    514.487    516.319    514.487
 32.070    538.934    524.434     14.500    514.157    522.694    514.157    515.895    514.157
 32.170    559.000    524.122     34.878    513.827    522.466    513.827    515.482    513.827
 32.270    506.438    523.959    -17.521    513.499    522.379    513.499    515.077    513.499
 32.370    552.000    523.942     28.058    513.171    522.432    513.171    514.681    513.171
 32.470    558.000    524.080     33.920    512.844    522.632    512.844    514.291    512.844
 32.570    570.000    524.393     45.607    512.518    523.001    512.518    513.909    512.518
 32.670    485.075    524.909    -39.834    512.193    523.568    512.193    513.532    512.193
 32.770    540.000    525.674     14.326    511.869    524.380    511.869    513.162    511.869
 32.870    516.000    526.754    -10.754    511.546    525.503    511.546    512.796    511.546
 32.970    486.277    528.248    -41.971    511.224    527.036    511.224    512.434    511.224
 33.070    569.000    530.312     38.688    510.902    529.135    510.902    512.077    510.902
 33.170    529.000    533.237     -4.237    510.582    532.093    510.582    511.724    510.582
 33.270    534.471    537.666     -3.194    510.263    536.551    510.263    511.375    510.263
 33.370    562.000    545.113     16.887    509.945    544.024    509.945    511.030    509.945
 33.470    529.000    558.927    -29.927    509.628    557.862    509.628    510.687    509.628
 33.570    595.000    585.330      9.670    509.312    584.284    509.312    510.348    509.312
 33.670    629.429    633.153     -3.724    508.997    632.121    508.997    510.012    508.997
 33.770    763.965    710.217     53.747    508.683    709.194    508.683    509.678    508.683
 33.870    851.733    815.517     36.216    508.370    814.502    508.370    509.347    508.370
 33.970    959.000    929.088     29.912    508.059    928.085    508.059    509.019    508.059
 34.070    998.000   1007.465     -9.465    507.748   1006.485    507.748    508.693    507.748
 34.170   1015.000   1006.756      8.244    507.439   1005.810    507.439    508.370    507.439
 34.270    893.770    927.218    -33.448    507.131    926.301    507.131    508.049    507.131
 34.370    812.000    812.909     -0.909    506.824    812.011    506.824    507.730    506.824
 34.470    672.414    707.116    -34.702    506.518    706.230    506.518    507.413    506.518
 34.570    596.943    629.617    -32.674    506.214    628.738    506.214    507.099    506.214
 34.670    612.220    581.311     30.909    505.911    580.439    505.911    506.787    505.911
 34.770    533.000    554.345    -21.345    505.609    553.479    505.609    506.476    505.609
 34.870    544.000    539.903      4.097    505.308    539.044    505.308    506.168    505.308
 34.970    534.000    531.789      2.211    505.009    530.936    505.009    505.862    505.009
 35.070    536.000    526.669      9.331    504.710    525.823    504.710    505.557    504.710
 35.170    490.843    523.039    -32.195    504.414    522.198    504.414    505.255    504.414
 35.270    512.000    520.257     -8.257    504.118    519.421    504.118    504.954    504.118
 35.370    496.479    518.033    -21.555    503.824    517.202    503.824    504.656    503.824
 35.470    488.000    516.208    -28.208    503.531    515.381    503.531    504.359    503.531
 35.570    507.546    514.681     -7.135    503.240    513.857    503.240    504.064    503.240
 35.670    528.000    513.383     14.617    502.950    512.562    502.950    503.771    502.950
 35.770    489.712    512.263    -22.551    502.661    511.444    502.661    503.480    502.661
 35.870    519.335    511.285      8.050    502.374    510.468    502.374    503.191    502.374
 35.970    482.000    510.422    -28.422    502.088    509.607    502.088    502.903    502.088
 36.070    452.000    509.653    -57.653    501.804    508.839    501.804    502.617    501.804
 36.170    518.404    508.963      9.441    501.521    508.150    501.521    502.334    501.521
 36.270    546.000    508.340     37.660    501.240    507.529    501.240    502.051    501.240
 36.370    505.196    507.777     -2.581    500.960    506.965    500.960    501.771    500.960
 36.470    482.315    507.266    -24.951    500.681    506.455    500.681    501.493    500.681
 36.570    522.461    506.806     15.655    500.404    505.994    500.404    501.216    500.404
 36.670    519.000    506.394     12.606    500.128    505.582    500.128    500.941    500.128
 36.770    526.538    506.036     20.502    499.854    505.222    499.854    500.668    499.854
 36.870    489.250    505.744    -16.494    499.582    504.929    499.582    500.397    499.582
 36.970    486.729    505.554    -18.825    499.311    504.738    499.311    500.128    499.311
 37.070    519.000    505.548     13.452    499.041    504.730    499.041    499.860    499.041
 37.170    492.000    505.882    -13.882    498.773    505.062    498.773    499.594    498.773
 37.270    481.000    506.797    -25.797    498.507    505.975    498.507    499.331    498.507
 37.370    479.205    508.552    -29.348    498.242    507.728    498.242    499.069    498.242
 37.470    515.000    511.258      3.742    497.979    510.432    497.979    498.808    497.979
 37.570    491.000    514.612    -23.612    497.717    513.783    497.717    498.550    497.717
 37.670    551.000    517.665     33.335    497.457    516.834    497.457    498.293    497.457
 37.770    476.649    518.954    -42.304    497.199    518.121    497.199    498.039    497.199
 37.870    504.000    517.671    -13.671    496.942    516.837    496.942    497.786    496.942
 37.970    517.151    514.638      2.513    496.687    513.800    496.687    497.535    496.687
 38.070    494.000    511.143    -17.143    496.434    510.302    496.434    497.286    496.434
 38.170    490.000    507.934    -17.934    496.182    507.087    496.182    497.039    496.182
 38.270    487.000    505.317    -18.317    495.932    504.464    495.932    496.794    495.932
 38.370    481.000    503.364    -22.364    495.683    502.503    495.683    496.550    495.683
 38.470    523.869    501.983     21.886    495.436    501.115    495.436    496.309    495.436
 38.570    493.000    501.022     -8.022    495.191    500.147    495.191    496.069    495.191
 38.670    477.000    500.339    -23.339    494.947    499.457    494.947    495.832    494.947
 38.770    463.000    499.831    -36.831    494.706    498.941    494.706    495.596    494.706
 38.870    509.000    499.426      9.574    494.465    498.530    494.465    495.363    494.465
 38.970    501.000    499.083      1.917    494.227    498.180    494.227    495.131    494.227
 39.070    511.148    498.778     12.370    493.990    497.868    493.990    494.901    493.990
 39.170    528.647    498.499     30.148    493.755    497.581    493.755    494.673    493.755
 39.270    525.764    498.239     27.525    493.522    497.314    493.522    494.448    493.522
 39.370    497.000    497.994     -0.994    493.290    497.062    493.290    494.224    493.290
 39.470    542.118    497.764     44.354    493.061    496.823    493.061    494.002    493.061
 39.570    532.750    497.546     35.204    492.833    496.597    492.833    493.782    492.833
 39.670    474.350    497.339    -22.990    492.606    496.382    492.606    493.565    492.606
 39.770    485.799    497.144    -11.345    492.382    496.177    492.382    493.349    492.382
 39.870    503.468    496.959      6.508    492.159    495.983    492.159    493.135    492.159
 39.970    496.000    496.785     -0.785    491.938    495.800    491.938    492.924    491.938
 40.070    521.000    496.622     24.378    491.719    495.627    491.719    492.715    491.719
 40.170    525.302    496.471     28.832    491.501    495.466    491.501    492.507    491.501
 40.270    513.000    496.332     16.668    491.286    495.316    491.286    492.302    491.286
 40.370    508.000    496.205     11.795    491.072    495.179    491.072    492.099    491.072
 40.470    455.016    496.094    -41.078    490.860    495.057    490.860    491.898    490.860
 40.570    436.000    495.998    -59.998    490.650    494.950    490.650    491.699    490.650
 40.670    487.000    495.921     -8.921    490.441    494.861    490.441    491.503    490.441
 40.770    479.031    495.864    -16.834    490.234    494.792    490.234    491.308    490.234
 40.870    474.000    495.832    -21.832    490.030    494.747    490.030    491.116    490.030
 40.970    468.000    495.828    -27.828    489.827    494.730    489.827    490.926    489.827
 41.070    519.000    495.858     23.142    489.625    494.747    489.625    490.738    489.625
 41.170    484.167    495.930    -11.763    489.426    494.805    489.426    490.553    489.426
 41.270    488.000    496.053     -8.053    489.229    494.913    489.229    490.370    489.229
 41.370    510.000    496.239     13.761    489.033    495.085    489.033    490.189    489.033
 41.470    506.000    496.508      9.492    488.839    495.339    488.839    490.010    488.839
 41.570    488.430    496.888     -8.458    488.647    495.703    488.647    489.834    488.647
 41.670    466.000    497.428    -31.428    488.457    496.227    488.457    489.660    488.457
 41.770    484.000    498.226    -14.226    488.269    497.009    488.269    489.489    488.269
 41.870    522.000    499.494     22.506    488.082    498.260    488.082    489.319    488.082
 41.970    495.754    501.668     -5.914    487.898    500.417    487.898    489.153    487.898
 42.070    522.170    505.559     16.611    487.715    504.292    487.715    488.989    487.715
 42.170    522.000    512.426      9.574    487.534    511.142    487.534    488.827    487.534
 42.270    567.000    523.784     43.216    487.355    522.486    487.355    488.668    487.355
 42.370    526.000    540.756    -14.756    487.178    539.445    487.178    488.511    487.178
 42.470    539.798    562.986    -23.188    487.002    561.666    487.002    488.357    487.002
 42.570    584.000    587.385     -3.385    486.829    586.057    486.829    488.206    486.829
 42.670    593.000    607.283    -14.283    486.657    605.945    486.657    488.057    486.657
 42.770    570.000    614.093    -44.093    486.488    612.738    486.488    487.911    486.488
 42.870    628.000    603.945     24.055    486.320    602.563    486.320    487.768    486.320
 42.970    566.000    582.165    -16.165    486.154    580.746    486.154    487.628    486.154
 43.070    518.000    557.495    -39.495    485.990    556.035    485.990    487.490    485.990
 43.170    550.000    535.946     14.054    485.828    534.446    485.828    487.355    485.828
 43.270    490.199    519.948    -29.749    485.667    518.410    485.667    487.224    485.667
 43.370    532.836    509.441     23.395    485.509    507.867    485.509    487.095    485.509
 43.470    521.000    503.133     17.867    485.352    501.524    485.352    486.969    485.352
 43.570    523.000    499.513     23.487    485.198    497.870    485.198    486.847    485.198
 43.670    502.000    497.405      4.595    485.045    495.726    485.045    486.728    485.045
 43.770    507.000    496.084     10.916    484.894    494.369    484.894    486.612    484.894
 43.870    490.547    495.173     -4.626    484.745    493.422    484.745    486.499    484.745
 43.970    523.000    494.495     28.505    484.598    492.706    484.598    486.390    484.598
 44.070    458.093    493.967    -35.874    484.453    492.137    484.453    486.285    484.453
 44.170    507.209    493.546     13.663    484.309    491.674    484.309    486.183    484.309
 44.270    490.000    493.206     -3.206    484.168    491.291    484.168    486.085    484.168
 44.370    518.000    492.933     25.067    484.028    490.971    484.028    485.991    484.028
 44.470    501.000    492.713      8.287    483.890    490.703    483.890    485.901    483.890
 44.570    475.745    492.538    -16.793    483.754    490.478    483.754    485.815    483.754
 44.670    531.413    492.402     39.011    483.620    490.290    483.620    485.734    483.620
 44.770    483.000    492.300     -9.300    483.488    490.133    483.488    485.657    483.488
 44.870    494.709    492.229      2.479    483.358    490.003    483.358    485.585    483.358
 44.970    515.560    492.187     23.373    483.230    489.899    483.230    485.518    483.230
 45.070    535.000    492.171     42.829    483.103    489.819    483.103    485.456    483.103
 45.170    507.000    492.180     14.820    482.979    489.760    482.979    485.400    482.979
 45.270    466.000    492.215    -26.215    482.856    489.722    482.856    485.349    482.856
 45.370    529.294    492.274     37.020    482.735    489.705    482.735    485.305    482.735
 45.470    477.000    492.359    -15.359    482.616    489.709    482.616    485.267    482.616
 45.570    511.000    492.469     18.531    482.499    489.733    482.499    485.236    482.499
 45.670    507.000    492.608     14.392    482.383    489.780    482.383    485.211    482.383
 45.770    497.000    492.775      4.225    482.270    489.850    482.270    485.195    482.270
 45.870    448.000    492.973    -44.973    482.159    489.945    482.159    485.187    482.159
 45.970    518.978    493.206     25.773    482.049    490.067    482.049    485.188    482.049
 46.070    533.000    493.476     39.524    481.941    490.219    481.941    485.198    481.941
 46.170    517.000    493.788     23.212    481.835    490.405    481.835    485.219    481.835
 46.270    504.545    494.149     10.396    481.731    490.630    481.731    485.250    481.731
 46.370    520.000    494.564     25.436    481.629    490.899    481.629    485.294    481.629
 46.470    499.000    495.044      3.956    481.528    491.221    481.528    485.352    481.528
 46.570    485.601    495.601    -10.000    481.429    491.607    481.429    485.423    481.429
 46.670    495.000    496.252     -1.252    481.333    492.074    481.333    485.511    481.333
 46.770    491.000    497.029     -6.029    481.238    492.649    481.238    485.616    481.238
 46.870    458.697    497.984    -39.287    481.145    493.386    481.145    485.741    481.145
 46.970    531.000    499.226     31.774    481.053    494.390    481.053    485.888    481.053
 47.070    525.185    500.967     24.218    480.964    495.870    480.964    486.059    480.964
 47.170    499.000    503.583     -4.583    480.876    498.198    480.876    486.257    480.876
 47.270    501.000    507.663     -6.663    480.790    501.962    480.790    486.485    480.790
 47.370    517.000    513.967      3.033    480.706    507.916    480.706    486.747    480.706
 47.470    519.000    523.214     -4.214    480.624    516.775    480.624    487.046    480.624
 47.570    539.000    535.679      3.321    480.544    528.810    480.544    487.388    480.544
 47.670    557.000    550.677      6.323    480.465    543.331    480.465    487.777    480.465
 47.770    607.226    566.055     41.171    480.388    558.181    480.388    488.218    480.388
 47.870    581.000    578.053      2.947    480.313    569.599    480.313    488.718    480.313
 47.970    560.000    582.534    -22.534    480.240    573.442    480.240    489.283    480.240
 48.070    582.000    578.034      3.966    480.169    568.240    480.169    489.919    480.169
 48.170    563.645    567.317     -3.672    480.099    556.748    480.099    490.633    480.099
 48.270    554.000    554.802     -0.802    480.031    543.376    480.031    491.432    480.031
 48.370    536.000    543.808     -7.808    479.965    531.435    479.965    492.321    479.965
 48.470    522.000    535.972    -13.972    479.900    522.557    479.900    493.306    479.900
 48.570    568.000    531.633     36.367    479.838    517.077    479.838    494.389    479.838
 48.670    502.796    530.367    -27.570    479.777    514.573    479.777    495.569    479.777
 48.770    517.000    531.483    -14.483    479.718    514.361    479.718    496.841    479.718
 48.870    505.000    534.375    -29.375    479.660    515.847    479.660    498.190    479.660
 48.970    557.300    538.683     18.618    479.605    518.695    479.605    499.595    479.605
 49.070    549.000    544.363      4.637    479.551    522.898    479.551    501.019    479.551
 49.170    567.379    551.824     15.555    479.499    528.914    479.499    502.412    479.499
 49.270    608.403    562.368     46.034    479.448    538.108    479.448    503.711    479.448
 49.370    581.872    579.264      2.609    479.399    553.825    479.399    504.840    479.399
 49.470    656.000    609.689     46.311    479.352    583.319    479.352    505.719    479.352
 49.570    683.426    667.041     16.386    479.307    640.058    479.307    506.277    479.307
 49.670    775.000    771.843      3.157    479.263    744.613    479.263    506.465    479.263
 49.770    965.000    947.901     17.099    479.221    920.808    479.221    506.262    479.221
 49.870   1149.616   1211.069    -61.453    479.181   1184.483    479.181    505.688    479.181
 49.970   1520.000   1552.402    -32.402    479.142   1526.654    479.142    504.792    479.142
 50.070   1989.961   1923.221     66.740    479.105   1898.587    479.105    503.646    479.105
 50.170   2180.256   2232.225    -51.969    479.070   2208.915    479.070    502.329    479.070
 50.270   2351.000   2370.142    -19.142    479.036   2348.295    479.036    500.917    479.036
 50.370   2294.000   2277.140     16.860    479.004   2256.800    479.004    499.474    479.004
 50.470   1986.124   1995.938     -9.814    478.974   1977.059    478.974    498.051    478.974
 50.570   1690.000   1631.983     58.017    478.945   1614.461    478.945    496.683    478.945
 50.670   1290.413   1283.502      6.911    478.918   1267.221    478.918    495.393    478.918
 50.770    977.000   1008.689    -31.689    478.893    993.540    478.893    494.195    478.893
 50.870    849.000    823.721     25.279    478.869    809.606    478.869    493.095    478.869
 50.970    727.000    715.636     11.364    478.847    702.469    478.847    492.094    478.847
 51.070    673.000    659.247     13.753    478.826    646.945    478.826    491.189    478.826
 51.170    609.381    630.099    -20.718    478.807    618.580    478.807    490.377    478.807
 51.270    602.212    611.189     -8.977    478.789    600.372    478.789    489.650    478.789
 51.370    616.000    594.477     21.523    478.774    584.285    478.774    489.003    478.774
 51.470    579.000    578.344      0.656    478.759    568.704    478.759    488.428    478.759
 51.570    562.000    563.718     -1.718    478.746    554.568    478.746    487.920    478.746
 51.670    528.000    551.671    -23.671    478.735    542.952    478.735    487.472    478.735
 51.770    590.000    542.668     47.332    478.725    534.328    478.725    487.078    478.725
 51.870    562.000    536.575     25.425    478.717    528.569    478.717    486.734    478.717
 51.970    511.293    532.915    -21.623    478.711    525.201    478.711    486.433    478.711
 52.070    574.000    531.135     42.865    478.706    523.674    478.706    486.173    478.706
 52.170    528.714    530.801     -2.086    478.702    523.560    478.702    485.949    478.702
 52.270    507.897    531.687    -23.790    478.700    524.635    478.700    485.757    478.700
 52.370    561.000    533.854     27.146    478.699    526.963    478.699    485.596    478.699
 52.470    505.300    537.713    -32.413    478.700    530.958    478.700    485.461    478.700
 52.570    596.000    544.244     51.756    478.702    537.602    478.702    485.351    478.702
 52.670    595.979    555.323     40.656    478.706    548.771    478.706    485.264    478.706
 52.770    586.000    574.074     11.926    478.711    567.594    478.711    485.198    478.711
 52.870    574.450    604.977    -30.527    478.718    598.550    478.718    485.152    478.718
 52.970    689.913    653.320     36.594    478.726    646.929    478.726    485.124    478.726
 53.070    719.616    723.656     -4.040    478.736    717.287    478.736    485.114    478.736
 53.170    801.000    817.298    -16.298    478.747    810.937    478.747    485.121    478.747
 53.270    989.000    929.346     59.654    478.759    922.980    478.759    485.145    478.759
 53.370   1047.000   1045.905      1.095    478.773   1039.522    478.773    485.184    478.773
 53.470   1193.217   1142.770     50.447    478.788   1136.360    478.788    485.238    478.788
 53.570   1227.881   1190.498     37.383    478.805   1184.048    478.805    485.307    478.805
 53.670   1216.839   1171.113     45.726    478.823   1164.606    478.823    485.392    478.823
 53.770   1127.692   1092.820     34.872    478.842   1086.236    478.842    485.491    478.842
 53.870    922.000    982.458    -60.458    478.863    975.776    478.863    485.605    478.863
 53.970    793.000    867.353    -74.353    478.885    860.553    478.885    485.735    478.885
 54.070    701.000    765.787    -64.787    478.908    758.855    478.908    485.880    478.908
 54.170    670.000    686.255    -16.255    478.933    679.177    478.933    486.040    478.933
 54.270    631.000    629.787      1.213    478.959    622.550    478.959    486.218    478.959
 54.370    613.000    592.915     20.085    478.986    585.505    478.986    486.412    478.986
 54.470    561.000    570.458     -9.458    479.015    562.861    479.015    486.624    479.015
 54.570    574.000    557.500     16.500    479.045    549.700    479.045    486.854    479.045
 54.670    510.900    550.334    -39.434    479.076    542.314    479.076    487.104    479.076
 54.770    544.000    546.579     -2.579    479.109    538.320    479.109    487.374    479.109
 54.870    577.000    544.889     32.111    479.142    536.372    479.142    487.666    479.142
 54.970    534.000    544.581    -10.581    479.177    535.783    479.177    487.982    479.177
 55.070    567.000    545.342     21.658    479.214    536.240    479.214    488.322    479.214
 55.170    533.825    547.056    -13.231    479.251    537.624    479.251    488.690    479.251
 55.270    590.000    549.715     40.285    479.290    539.925    479.290    489.086    479.290
 55.370    581.000    553.391     27.609    479.329    543.214    479.329    489.514    479.329
 55.470    558.000    558.250     -0.250    479.371    547.651    479.371    489.976    479.371
 55.570    546.000    564.614    -18.614    479.413    553.557    479.413    490.476    479.413
 55.670    590.978    573.118     17.860    479.456    561.564    479.456    491.018    479.456
 55.770    578.000    585.035     -7.035    479.501    572.937    479.501    491.604    479.501
 55.870    640.318    602.844     37.474    479.546    590.153    479.546    492.242    479.546
 55.970    628.000    631.089     -3.089    479.593    617.748    479.593    492.935    479.593
 56.070    651.080    677.332    -26.252    479.641    663.279    479.641    493.691    479.641
 56.170    768.799    752.696     16.103    479.690    737.859    479.690    494.517    479.690
 56.270    875.901    871.075      4.826    479.741    855.379    479.741    495.420    479.741
 56.370    947.000   1046.107    -99.107    479.792   1029.469    479.792    496.409    479.792
 56.470   1205.000   1285.604    -80.604    479.844   1267.938    479.844    497.496    479.844
 56.570   1522.000   1584.461    -62.461    479.898   1565.676    479.898    498.692    479.898
 56.670   1948.000   1917.939     30.061    479.952   1897.937    479.952    500.009    479.952
 56.770   2176.000   2237.442    -61.442    480.008   2216.114    480.008    501.462    480.008
 56.870   2374.000   2473.073    -99.073    480.064   2450.289    480.064    503.066    480.064
 56.970   2479.000   2554.461    -75.461    480.122   2530.048    480.122    504.837    480.122
 57.070   2466.000   2452.989     13.011    480.181   2426.725    480.181    506.795    480.181
 57.170   2201.993   2205.386     -3.393    480.240   2177.020    480.240    508.956    480.240
 57.270   1912.739   1884.797     27.941    480.301   1854.068    480.301    511.342    480.301
 57.370   1564.000   1559.215      4.785    480.363   1525.860    480.363    513.973    480.363
 57.470   1247.073   1273.839    -26.766    480.425   1237.590    480.425    516.869    480.425
 57.570   1034.234   1050.320    -16.086    480.489   1010.900    480.489    520.048    480.489
 57.670    911.000    891.660     19.340    480.553    848.782    480.553    523.528    480.553
 57.770    775.932    789.202    -13.270    480.619    742.566    480.619    527.320    480.619
 57.870    691.353    729.785    -38.432    480.685    679.085    480.685    531.431    480.685
 57.970    710.332    701.161      9.172    480.753    646.090    480.753    535.855    480.753
 58.070    687.460    694.781     -7.320    480.821    635.052    480.821    540.572    480.821
 58.170    730.000    706.249     23.751    480.890    641.613    480.890    545.541    480.890
 58.270    713.886    734.278    -20.393    480.960    664.552    480.960    550.694    480.960
 58.370    784.000    778.982      5.018    481.031    704.083    481.031    555.930    481.031
 58.470    870.000    840.082     29.918    481.102    760.072    481.102    561.108    481.102
 58.570    925.000    915.334      9.666    481.175    830.452    481.175    566.048    481.175
 58.670    970.000    999.426    -29.426    481.248    910.129    481.248    570.538    481.248
 58.770   1150.000   1084.205     65.795    481.322    991.181    481.322    574.345    481.322
 58.870   1124.000   1161.007    -37.007    481.397   1065.172    481.397    577.243    481.397
 58.970   1241.000   1222.917     18.083    481.473   1125.376    481.473    579.038    481.473
 59.070   1247.656   1263.911    -16.254    481.550   1165.890    481.550    579.608    481.550
 59.170   1315.294   1278.180     37.114    481.627   1180.943    481.627    578.914    481.627
 59.270   1262.453   1264.346     -1.893    481.705   1169.091    481.705    577.016    481.705
 59.370   1278.000   1229.863     48.137    481.784   1137.639    481.784    574.058    481.784
 59.470   1318.000   1188.232    129.768    481.863   1099.884    481.863    570.244    481.863
 59.570   1264.000   1152.938    111.062    481.944   1069.081    481.944    565.804    481.944
 59.670   1232.000   1135.070     96.930    482.025   1056.092    482.025    560.968    482.025
 59.770   1088.246   1143.915    -55.669    482.106   1070.000    482.106    555.944    482.106
 59.870   1220.315   1185.786     34.529    482.189   1116.951    482.189    550.901    482.189
 59.970   1307.000   1259.987     47.013    482.272   1196.123    482.272    545.971    482.272
 60.070   1380.000   1355.400     24.600    482.355   1296.314    482.355    541.246    482.355
 60.170   1550.000   1450.040     99.960    482.440   1395.483    482.440    536.789    482.440
 60.270   1515.783   1514.351      1.432    482.525   1464.045    482.525    532.633    482.525
 60.370   1472.013   1520.757    -48.744    482.610   1474.406    482.610    528.796    482.610
 60.470   1489.000   1458.454     30.546    482.696   1415.748    482.696    525.279    482.696
 60.570   1342.000   1340.341      1.659    482.783   1300.966    482.783    522.075    482.783
 60.670   1203.062   1193.200      9.862    482.871   1156.850    482.871    519.171    482.871
 60.770   1064.000   1043.532     20.468    482.958   1009.914    482.958    516.550    482.958
 60.870    935.000    910.468     24.532    483.047    879.313    483.047    514.190    483.047
 60.970    811.000    804.485      6.515    483.136    775.544    483.136    512.073    483.136
 61.070    695.000    728.692    -33.692    483.226    701.738    483.226    510.176    483.226
 61.170    633.000    681.445    -48.445    483.316    656.274    483.316    508.481    483.316
 61.270    697.000    659.387     37.613    483.406    635.819    483.406    506.965    483.406
 61.370    680.425    659.951     20.474    483.497    637.821    483.497    505.611    483.497
 61.470    679.000    682.617     -3.617    483.589    661.780    483.589    504.398    483.589
 61.570    751.509    728.717     22.792    483.681    709.044    483.681    503.311    483.681
 61.670    763.000    799.980    -36.980    483.773    781.359    483.773    502.333    483.773
 61.770    921.000    896.228     24.772    483.866    878.563    483.866    501.448    483.866
 61.870   1019.000   1012.927      6.073    483.959    996.138    483.959    500.644    483.959
 61.970   1073.000   1139.336    -66.336    484.053   1123.360    484.053    499.908    484.053
 62.070   1202.643   1257.690    -55.047    484.147   1242.476    484.147    499.232    484.147
 62.170   1363.970   1344.540     19.430    484.242   1330.053    484.242    498.607    484.242
 62.270   1368.640   1377.100     -8.460    484.337   1363.310    484.337    498.028    484.337
 62.370   1216.000   1345.034   -129.034    484.432   1331.912    484.432    497.492    484.432
 62.470   1186.885   1257.617    -70.733    484.527   1245.125    484.527    496.994    484.527
 62.570   1167.799   1137.142     30.656    484.623   1125.236    484.623    496.532    484.623
 62.670    978.000   1007.092    -29.092    484.720    995.726    484.720    496.105    484.720
 62.770    829.000    885.442    -56.442    484.816    874.574    484.816    495.711    484.816
 62.870    726.974    783.016    -56.042    484.913    772.608    484.913    495.349    484.913
 62.970    698.000    704.047     -6.047    485.010    694.064    485.010    495.016    485.010
 63.070    698.212    647.762     50.450    485.108    638.174    485.108    494.713    485.108
 63.170    592.488    610.441    -17.953    485.205    601.221    485.205    494.436    485.205
 63.270    576.000    587.396    -11.396    485.303    578.521    485.303    494.185    485.303
 63.370    581.000    574.391      6.609    485.401    565.837    485.401    493.957    485.401
 63.470    543.000    568.391    -25.391    485.500    560.138    485.500    493.752    485.500
 63.570    573.864    567.778      6.087    485.598    559.804    485.598    493.568    485.598
 63.670    594.000    572.251     21.749    485.697    564.538    485.697    493.403    485.697
 63.770    568.074    582.605    -14.531    485.796    575.133    485.796    493.256    485.796
 63.870    638.483    600.404     38.079    485.895    593.153    485.895    493.127    485.895
 63.970    655.150    627.538     27.612    485.994    620.490    485.994    493.013    485.994
 64.070    621.654    665.616    -43.962    486.094    658.755    486.094    492.914    486.094
 64.170    719.000    715.204      3.796    486.193    708.514    486.193    492.829    486.193
 64.270    733.393    775.018    -41.625    486.293    768.484    486.293    492.756    486.293
 64.370    811.000    841.198    -30.198    486.393    834.809    486.393    492.696    486.393
 64.470    946.334    906.838     39.497    486.492    900.587    486.492    492.647    486.492
 64.570    984.851    962.277     22.575    486.592    956.161    486.592    492.608    486.592
 64.670   1075.000    997.288     77.712    486.692    991.307    486.692    492.579    486.692
 64.770    955.000   1005.300    -50.300    486.792    999.454    486.792    492.560    486.792
 64.870   1018.000    986.443     31.557    486.892    980.731    486.892    492.549    486.892
 64.970    980.338    946.598     33.740    486.992    941.014    486.992    492.547    486.992
 65.070    895.433    894.362      1.071    487.092    888.896    487.092    492.552    487.092
 65.170    873.000    838.272     34.728    487.192    832.913    487.192    492.565    487.192
 65.270    815.000    784.787     30.213    487.292    779.522    487.292    492.585    487.292
 65.370    691.368    737.380    -46.012    487.392    732.198    487.392    492.611    487.392
 65.470    647.087    696.951    -49.864    487.492    691.840    487.492    492.644    487.492
 65.570    685.000    663.093     21.907    487.592    658.041    487.592    492.683    487.592
 65.670    603.000    635.226    -32.226    487.692    630.225    487.692    492.728    487.692
 65.770    614.342    612.876      1.466    487.791    607.917    487.791    492.779    487.791
 65.870    591.407    595.516     -4.109    487.891    590.594    487.891    492.836    487.891
 65.970    584.000    582.532      1.468    487.991    577.642    487.991    492.897    487.991
 66.070    558.000    573.293    -15.293    488.090    568.430    488.090    492.964    488.090
 66.170    555.000    567.218    -12.218    488.189    562.379    488.189    493.036    488.189
 66.270    502.000    563.806    -61.806    488.288    558.987    488.288    493.114    488.288
 66.370    543.661    562.652    -18.991    488.387    557.849    488.387    493.196    488.387
 66.470    531.000    563.481    -32.481    488.486    558.690    488.486    493.283    488.486
 66.570    612.893    566.208     46.684    488.584    561.424    488.584    493.375    488.584
 66.670    551.000    571.044    -20.044    488.683    566.262    488.683    493.472    488.683
 66.770    622.566    578.644     43.922    488.781    573.860    488.781    493.574    488.781
 66.870    582.000    590.344     -8.344    488.879    585.551    488.879    493.681    488.879
 66.970    559.000    608.455    -49.455    488.976    603.649    488.976    493.793    488.976
 67.070    653.953    636.594     17.358    489.074    631.769    489.074    493.911    489.074
 67.170    635.000    679.900    -44.900    489.171    675.051    489.171    494.033    489.171
 67.270    769.000    744.930     24.070    489.268    740.053    489.268    494.161    489.268
 67.370    786.886    838.989    -52.103    489.364    834.080    489.364    494.294    489.364
 67.470    980.156    968.729     11.427    489.460    963.787    489.460    494.433    489.460
 67.570   1148.000   1138.039      9.961    489.556   1133.065    489.556    494.578    489.556
 67.670   1378.000   1345.569     32.431    489.652   1340.565    489.652    494.728    489.652
 67.770   1561.000   1582.380    -21.380    489.747   1577.352    489.747    494.886    489.747
 67.870   1783.557   1830.235    -46.678    489.842   1825.188    489.842    495.050    489.842
 67.970   2072.000   2061.049     10.951    489.936   2055.987    489.936    495.221    489.936
 68.070   2151.461   2239.015    -87.555    490.031   2233.939    490.031    495.399    490.031
 68.170   2414.000   2328.631     85.369    490.124   2323.529    490.124    495.585    490.124
 68.270   2430.000   2309.031    120.969    490.218   2303.879    490.218    495.780    490.218
 68.370   2187.000   2185.231      1.769    490.310   2179.990    490.310    495.984    490.310
 68.470   2086.000   1985.053    100.947    490.403   1979.680    490.403    496.197    490.403
 68.570   1907.000   1745.281    161.719    490.495   1739.740    490.495    496.420    490.495
 68.670   1561.690   1499.396     62.295    490.586   1493.658    490.586    496.654    490.586
 68.770   1250.348   1272.033    -21.686    490.677   1266.080    490.677    496.900    490.677
 68.870   1038.000   1078.023    -40.023    490.768   1071.843    490.768    497.158    490.768
 68.970    952.166    923.402     28.765    490.858    916.986    490.858    497.431    490.858
 69.070    811.234    807.401      3.833    490.948    800.744    490.948    497.719    490.948
 69.170    752.000    724.901     27.099    491.037    717.996    491.037    498.023    491.037
 69.270    682.000    668.829     13.171    491.125    661.666    491.125    498.345    491.125
 69.370    597.970    632.032    -34.061    491.213    624.597    491.213    498.688    491.213
 69.470    615.000    608.403      6.597    491.300    600.680    491.300    499.053    491.300
 69.570    616.000    593.326     22.674    491.387    585.294    491.387    499.442    491.387
 69.670    552.000    583.629    -31.629    491.473    575.260    491.473    499.860    491.473
 69.770    566.000    577.298    -11.298    491.559    568.564    491.559    500.309    491.559
 69.870    579.000    573.143      5.857    491.644    564.008    491.644    500.792    491.644
 69.970    574.000    570.498      3.502    491.728    560.921    491.728    501.316    491.728
 70.070    591.000    569.012     21.988    491.812    558.948    491.812    501.885    491.812
 70.170    607.000    568.523     38.477    491.895    557.921    491.895    502.505    491.895
 70.270    570.000    568.992      1.008    491.977    557.792    491.977    503.184    491.977
 70.370    581.686    570.487     11.199    492.059    558.622    492.059    503.931    492.059
 70.470    567.000    573.208     -6.208    492.140    560.599    492.140    504.754    492.140
 70.570    593.000    577.552     15.448    492.220    564.111    492.220    505.665    492.220
 70.670    618.048    584.222     33.826    492.300    569.848    492.300    506.676    492.300
 70.770    549.821    594.378    -44.557    492.379    578.955    492.379    507.801    492.379
 70.870    593.851    609.810    -15.960    492.457    593.208    492.457    509.056    492.457
 70.970    628.237    633.090     -4.854    492.534    615.159    492.534    510.456    492.534
 71.070    666.235    667.619     -1.384    492.611    648.193    492.611    512.020    492.611
 71.170    745.200    717.468     27.732    492.687    696.360    492.687    513.767    492.687
 71.270    831.981    786.904     45.076    492.762    763.908    492.762    515.717    492.762
 71.370    847.000    879.560    -32.560    492.836    854.450    492.836    517.889    492.836
 71.470    975.848    997.289    -21.441    492.910    969.822    492.910    520.303    492.910
 71.570   1090.000   1138.894    -48.894    492.983   1108.811    492.983    522.976    492.983
 71.670   1264.000   1298.955    -34.955    493.054   1265.984    493.054    525.923    493.054
 71.770   1434.000   1466.987    -32.987    493.125   1430.849    493.125    529.156    493.125
 71.870   1588.000   1627.141    -39.141    493.196   1587.556    493.196    532.677    493.196
 71.970   1762.000   1759.075      2.925    493.265   1715.773    493.265    536.479    493.265
 72.070   1821.000   1841.351    -20.351    493.333   1794.082    493.333    540.541    493.333
 72.170   1846.000   1858.192    -12.192    493.401   1806.743    493.401    544.823    493.401
 72.270   1750.000   1806.662    -56.662    493.467   1750.878    493.467    549.258    493.467
 72.370   1608.000   1698.247    -90.247    493.533   1638.068    493.533    553.745    493.533
 72.470   1597.000   1553.146     43.854    493.598   1488.647    493.598    558.148    493.598
 72.570   1459.000   1392.581     66.419    493.662   1324.011    493.662    562.292    493.662
 72.670   1247.809   1234.054     13.755    493.725   1161.872    493.725    565.969    493.725
 72.770   1074.000   1089.777    -15.777    493.787   1014.666    493.787    568.958    493.787
 72.870   1005.950    966.720     39.230    493.848    889.573    493.848    571.048    493.848
 72.970    861.000    867.335     -6.335    493.908    789.211    493.908    572.078    493.908
 73.070    809.000    790.666     18.334    493.967    712.706    493.967    571.967    493.967
 73.170    736.000    733.631      2.369    494.025    656.962    494.025    570.727    494.025
 73.270    723.000    692.226     30.774    494.082    617.869    494.082    568.467    494.082
 73.370    652.000    662.464    -10.464    494.138    591.261    494.138    565.366    494.138
 73.470    644.853    640.941      3.912    494.193    573.517    494.193    561.639    494.193
 73.570    665.000    625.066     39.934    494.247    561.827    494.247    557.507    494.247
 73.670    609.385    613.055     -3.670    494.299    554.206    494.299    553.169    494.299
 73.770    577.000    603.776    -26.776    494.351    549.359    494.351    548.789    494.351
 73.870    581.336    596.566    -15.230    494.402    546.497    494.402    544.494    494.402
 73.970    557.793    591.047    -33.253    494.452    545.151    494.452    540.372    494.452
 74.070    561.457    586.980    -25.522    494.500    545.024    494.500    536.484    494.500
 74.170    622.543    584.160     38.383    494.548    545.877    494.548    532.863    494.548
 74.270    612.000    582.348     29.652    494.594    547.453    494.594    529.526    494.594
 74.370    610.000    581.227     28.773    494.639    549.431    494.639    526.477    494.639
 74.470    617.000    580.387     36.613    494.683    551.407    494.683    523.709    494.683
 74.570    597.000    579.355     17.645    494.726    552.920    494.726    521.212    494.726
 74.670    614.000    577.653     36.347    494.768    553.505    494.768    518.969    494.768
 74.770    621.000    574.954     46.046    494.808    552.854    494.808    516.962    494.808
 74.870    599.000    571.216     27.784    494.848    550.944    494.848    515.171    494.848
 74.970    618.000    566.708     51.292    494.886    548.065    494.886    513.576    494.886
 75.070    634.000    561.900     72.100    494.923    544.706    494.923    512.158    494.923
 75.170    614.000    557.328     56.672    494.959    541.423    494.959    510.898    494.959
 75.270    608.000    553.521     54.479    494.993    538.763    494.993    509.778    494.993
 75.370    550.000    550.981     -0.981    495.027    537.246    495.027    508.783    495.027
 75.470    528.000    550.199    -22.199    495.059    537.375    495.059    507.896    495.059
 75.570    551.000    551.655     -0.655    495.090    539.647    495.090    507.105    495.090
 75.670    516.873    555.814    -38.941    495.119    544.536    495.119    506.398    495.119
 75.770    562.000    563.085     -1.085    495.148    552.463    495.148    505.764    495.148
 75.870    557.000    573.754    -16.754    495.175    563.723    495.175    505.193    495.175
 75.970    590.726    587.881      2.845    495.200    578.383    495.200    504.679    495.200
 76.070    634.164    605.191     28.973    495.225    596.176    495.225    504.213    495.225
 76.170    636.836    624.968     11.867    495.248    616.393    495.248    503.789    495.248
 76.270    617.000    645.980    -28.980    495.270    637.806    495.270    503.403    495.270
 76.370    662.009    666.442     -4.433    495.291    658.636    495.291    503.049    495.291
 76.470    760.000    684.065     75.935    495.310    676.599    495.310    502.725    495.310
 76.570    687.000    696.321     -9.321    495.328    689.170    495.328    502.426    495.328
 76.670    751.100    701.036     50.063    495.344    694.180    495.344    502.150    495.344
 76.770    674.000    697.208    -23.208    495.359    690.628    495.359    501.894    495.359
 76.870    710.199    685.467     24.732    495.373    679.145    495.373    501.656    495.373
 76.970    686.472    667.761     18.711    495.386    661.681    495.386    501.435    495.386
 77.070    662.451    646.572     15.879    495.397    640.716    495.397    501.229    495.397
 77.170    621.000    624.241     -3.241    495.406    618.594    495.406    501.035    495.406
 77.270    577.000    602.639    -25.639    495.415    597.188    495.415    500.854    495.415
 77.370    539.000    583.076    -44.076    495.422    577.806    495.422    500.683    495.422
 77.470    511.000    566.312    -55.312    495.427    561.211    495.427    500.523    495.427
 77.570    587.000    552.629     34.371    495.431    547.686    495.431    500.371    495.431
 77.670    585.993    541.938     44.055    495.434    537.142    495.434    500.228    495.434
 77.770    517.368    533.900    -16.532    495.435    529.242    495.435    500.092    495.435
 77.870    542.263    528.051     14.212    495.435    523.522    495.435    499.963    495.435
 77.970    523.000    523.898     -0.898    495.433    519.491    495.433    499.841    495.433
 78.070    554.205    520.996     33.209    495.430    516.702    495.430    499.724    495.430
 78.170    518.000    518.977     -0.977    495.425    514.790    495.425    499.612    495.425
 78.270    522.000    517.563      4.437    495.419    513.476    495.419    499.506    495.419
 78.370    515.000    516.557     -1.557    495.411    512.566    495.411    499.404    495.411
 78.470    498.000    515.832    -17.832    495.402    511.930    495.402    499.305    495.402
 78.570    497.000    515.308    -18.308    495.391    511.489    495.391    499.211    495.391
 78.670    493.000    514.940    -21.940    495.379    511.200    495.379    499.120    495.379
 78.770    500.000    514.711    -14.711    495.366    511.044    495.366    499.033    495.366
 78.870    477.991    514.616    -36.625    495.351    511.019    495.351    498.948    495.351
 78.970    541.219    514.667     26.552    495.334    511.135    495.334    498.866    495.334
 79.070    490.000    514.882    -24.882    495.316    511.411    495.316    498.787    495.316
 79.170    513.000    515.288     -2.288    495.296    511.874    495.296    498.710    495.296
 79.270    500.950    515.917    -14.968    495.275    512.557    495.275    498.635    495.275
 79.370    504.000    516.808    -12.808    495.252    513.497    495.252    498.562    495.252
 79.470    516.544    518.004     -1.460    495.227    514.740    495.227    498.491    495.227
 79.570    477.000    519.560    -42.560    495.201    516.338    495.201    498.422    495.201
 79.670    561.559    521.545     40.013    495.174    518.364    495.174    498.353    495.174
 79.770    514.442    524.058     -9.616    495.145    520.914    495.145    498.286    495.145
 79.870    529.706    527.231      2.475    495.114    524.122    495.114    498.220    495.114
 79.970    556.918    531.242     25.676    495.082    528.166    495.082    498.155    495.082
 80.070    520.000    536.326    -16.326    495.048    533.282    495.048    498.090    495.048
 80.170    533.000    542.785     -9.785    495.012    539.771    495.012    498.025    495.012
 80.270    573.000    550.986     22.014    494.975    548.001    494.975    497.960    494.975
 80.370    559.000    561.321     -2.321    494.936    558.365    494.936    497.895    494.936
 80.470    603.263    574.103     29.160    494.896    571.176    494.896    497.828    494.896
 80.570    571.510    589.592    -18.081    494.854    586.695    494.854    497.760    494.854
 80.670    571.000    607.694    -36.694    494.811    604.827    494.811    497.691    494.811
 80.770    641.000    628.004     12.996    494.765    625.168    494.765    497.619    494.765
 80.870    673.401    649.761     23.640    494.718    646.958    494.718    497.546    494.718
 80.970    656.000    671.878    -15.878    494.670    669.109    494.670    497.470    494.670
 81.070    626.000    693.058    -67.058    494.620    690.324    494.620    497.392    494.620
 81.170    747.234    711.984     35.250    494.568    709.285    494.568    497.313    494.568
 81.270    746.000    727.486     18.514    494.514    724.823    494.514    497.231    494.514
 81.370    738.884    738.643      0.241    494.459    736.015    494.459    497.147    494.459
 81.470    760.439    744.849     15.590    494.402    742.256    494.402    497.063    494.402
 81.570    762.000    745.868     16.132    494.344    743.308    494.344    496.977    494.344
 81.670    787.253    741.824     45.429    494.284    739.295    494.284    496.889    494.284
 81.770    741.000    733.135      7.865    494.222    730.634    494.222    496.802    494.222
 81.870    744.000    720.482     23.518    494.158    718.008    494.158    496.713    494.158
 81.970    681.083    704.820    -23.736    494.093    702.368    494.093    496.624    494.093
 82.070    729.000    687.290     41.710    494.026    684.860    494.026    496.534    494.026
 82.170    619.786    669.010    -49.223    493.958    666.597    493.958    496.444    493.958
 82.270    648.000    650.853     -2.853    493.887    648.457    493.887    496.354    493.887
 82.370    607.695    633.365    -25.670    493.815    630.982    493.815    496.263    493.815
 82.470    656.543    616.844     39.699    493.742    614.473    493.742    496.171    493.742
 82.570    608.000    601.488      6.512    493.666    599.127    493.666    496.080    493.666
 82.670    569.000    587.511    -18.511    493.589    585.157    493.589    495.988    493.589
 82.770    542.000    575.152    -33.152    493.510    572.805    493.510    495.895    493.510
 82.870    534.208    564.641    -30.433    493.429    562.299    493.429    495.802    493.429
 82.970    538.038    556.158    -18.119    493.347    553.819    493.347    495.708    493.347
 83.070    542.000    549.813     -7.813    493.263    547.476    493.263    495.614    493.263
 83.170    573.992    545.645     28.347    493.177    543.309    493.177    495.519    493.177
 83.270    549.167    543.612      5.555    493.090    541.276    493.090    495.424    493.090
 83.370    469.000    543.580    -74.580    493.001    541.244    493.001    495.328    493.001
 83.470    502.000    545.315    -43.315    492.910    542.976    492.910    495.231    492.910
 83.570    518.000    548.472    -30.472    492.817    546.130    492.817    495.133    492.817
 83.670    510.000    552.601    -42.601    492.722    550.257    492.722    495.035    492.722
 83.770    522.357    557.157    -34.800    492.626    554.810    492.626    494.936    492.626
 83.870    581.000    561.519     19.481    492.528    559.169    492.528    494.835    492.528
 83.970    574.942    565.035      9.907    492.429    562.683    492.429    494.735    492.429
 84.070    597.839    567.101     30.738    492.327    564.749    492.327    494.633    492.327
 84.170    605.632    567.283     38.349    492.224    564.931    492.224    494.530    492.224
 84.270    519.751    565.430    -45.679    492.119    563.078    492.119    494.426    492.119
 84.370    555.000    561.710     -6.710    492.012    559.361    492.012    494.322    492.012
 84.470    557.060    556.539      0.521    491.904    554.191    491.904    494.216    491.904
 84.570    588.126    550.442     37.684    491.794    548.095    491.794    494.110    491.794
 84.670    580.951    543.944     37.007    491.682    541.598    491.682    494.003    491.682
 84.770    464.000    537.502    -73.502    491.568    535.155    491.568    493.894    491.568
 84.870    498.418    531.470    -33.052    491.453    529.122    491.453    493.785    491.453
 84.970    546.573    526.096     20.477    491.336    523.744    491.336    493.674    491.336
 85.070    555.917    521.521     34.397    491.217    519.164    491.217    493.563    491.217
 85.170    566.000    517.792     48.208    491.096    515.429    491.096    493.451    491.096
 85.270    512.000    514.886     -2.886    490.973    512.515    490.973    493.338    490.973
 85.370    483.000    512.734    -29.734    490.849    510.354    490.849    493.223    490.849
 85.470    493.753    511.240    -17.487    490.723    508.850    490.723    493.108    490.723
 85.570    523.000    510.310     12.690    490.595    507.908    490.595    492.992    490.595
 85.670    471.858    509.864    -38.006    490.466    507.450    490.466    492.875    490.466
 85.770    507.638    509.850     -2.212    490.335    507.422    490.335    492.757    490.335
 85.870    489.000    510.249    -21.249    490.202    507.805    490.202    492.639    490.202
 85.970    503.000    511.081     -8.081    490.067    508.621    490.067    492.519    490.067
 86.070    555.000    512.406     42.594    489.930    509.929    489.930    492.398    489.930
 86.170    543.000    514.317     28.683    489.792    511.820    489.792    492.277    489.792
 86.270    515.000    516.936     -1.936    489.652    514.418    489.652    492.155    489.652
 86.370    514.000    520.405     -6.405    489.510    517.864    489.510    492.032    489.510
 86.470    547.000    524.868     22.132    489.367    522.302    489.367    491.908    489.367
 86.570    507.000    530.451    -23.451    489.222    527.857    489.222    491.783    489.222
 86.670    580.361    537.236     43.125    489.075    534.613    489.075    491.658    489.075
 86.770    572.148    545.232     26.916    488.926    542.578    488.926    491.532    488.926
 86.870    570.000    554.345     15.655    488.775    551.657    488.775    491.406    488.775
 86.970    547.000    564.348    -17.348    488.623    561.624    488.623    491.279    488.623
 87.070    594.000    574.866     19.134    488.469    572.106    488.469    491.151    488.469
 87.170    543.278    585.370    -42.092    488.313    582.573    488.313    491.023    488.313
 87.270    593.457    595.179     -1.722    488.156    592.345    488.156    490.895    488.156
 87.370    562.271    603.505    -41.233    487.997    600.635    487.997    490.766    487.997
 87.470    613.043    609.553      3.490    487.836    606.649    487.836    490.637    487.836
 87.570    608.262    612.685     -4.423    487.673    609.749    487.673    490.508    487.673
 87.670    626.000    612.603     13.397    487.509    609.637    487.509    490.378    487.509
 87.770    625.000    609.444     15.556    487.343    606.450    487.343    490.249    487.343
 87.870    605.000    603.729      1.271    487.175    600.707    487.175    490.119    487.175
 87.970    597.000    596.217      0.783    487.006    593.168    487.006    489.990    487.006
 88.070    639.000    587.756     51.244    486.835    584.677    486.835    489.861    486.835
 88.170    594.676    579.179     15.498    486.662    576.067    486.662    489.732    486.662
 88.270    570.000    571.236     -1.236    486.487    568.090    486.487    489.604    486.487
 88.370    587.575    564.554     23.021    486.311    561.369    486.311    489.476    486.311
 88.470    601.957    559.598     42.360    486.133    556.372    486.133    489.349    486.133
 88.570    568.000    556.656     11.344    485.953    553.385    485.953    489.223    485.953
 88.670    601.000    555.833     45.167    485.772    552.515    485.772    489.098    485.772
 88.770    586.000    557.058     28.942    485.589    553.688    485.589    488.974    485.589
 88.870    594.219    560.091     34.128    485.404    556.667    485.404    488.853    485.404
 88.970    570.000    564.547      5.453    485.218    561.065    485.218    488.732    485.218
 89.070    573.000    569.915      3.085    485.030    566.370    485.030    488.614    485.030
 89.170    589.038    575.581     13.457    484.841    571.970    484.841    488.499    484.841
 89.270    611.000    580.866     30.134    484.649    577.183    484.649    488.386    484.649
 89.370    578.000    585.074     -7.074    484.456    581.314    484.456    488.276    484.456
 89.470    580.000    587.579     -7.579    484.262    583.736    484.262    488.170    484.262
 89.570    632.404    587.938     44.467    484.066    584.004    484.066    488.068    484.066
 89.670    624.000    585.990     38.010    483.868    581.957    483.868    487.970    483.868
 89.770    599.310    581.888     17.422    483.668    577.746    483.668    487.877    483.668
 89.870    582.000    576.031      5.969    483.467    571.772    483.467    487.789    483.467
 89.970    529.452    568.952    -39.500    483.265    564.567    483.265    487.708    483.265
 90.070    565.000    561.207      3.793    483.060    556.686    483.060    487.634    483.060
 90.170    543.607    553.303     -9.696    482.855    548.637    482.855    487.567    482.855
 90.270    542.041    545.661     -3.620    482.647    540.839    482.647    487.508    482.647
 90.370    535.000    538.603     -3.603    482.438    533.616    482.438    487.458    482.438
 90.470    547.083    532.350     14.732    482.227    527.187    482.227    487.417    482.227
 90.570    495.000    527.026    -32.026    482.015    521.675    482.015    487.388    482.015
 90.670    480.000    522.656    -42.656    481.802    517.105    481.802    487.369    481.802
 90.770    518.000    519.248     -1.248    481.586    513.484    481.586    487.363    481.586
 90.870    522.000    516.729      5.271    481.370    510.738    481.370    487.370    481.370
 90.970    550.316    515.002     35.314    481.151    508.769    481.151    487.392    481.151
 91.070    494.000    513.973    -19.973    480.931    507.482    480.931    487.428    480.931
 91.170    461.000    513.560    -52.560    480.710    506.794    480.710    487.480    480.710
 91.270    483.311    513.707    -30.395    480.487    506.646    480.487    487.550    480.487
 91.370    550.000    514.388     35.612    480.263    507.015    480.263    487.636    480.263
 91.470    528.440    515.617     12.822    480.037    507.913    480.037    487.741    480.037
 91.570    500.000    517.449    -17.449    479.810    509.392    479.810    487.865    479.810
 91.670    547.003    519.977     27.026    479.581    511.546    479.581    488.009    479.581
 91.770    557.345    523.331     34.014    479.351    514.504    479.351    488.172    479.351
 91.870    502.000    527.670    -25.670    479.119    518.426    479.119    488.355    479.119
 91.970    551.000    533.173     17.827    478.886    523.491    478.886    488.558    478.886
 92.070    576.000    540.028     35.972    478.651    529.887    478.651    488.779    478.651
 92.170    519.397    548.410    -29.013    478.415    537.791    478.415    489.018    478.415
 92.270    545.127    558.466    -13.339    478.178    547.350    478.178    489.272    478.178
 92.370    511.000    570.290    -59.290    477.939    558.663    477.939    489.539    477.939
 92.470    557.156    583.908    -26.752    477.699    571.759    477.699    489.816    477.699
 92.570    565.351    599.253    -33.903    477.457    586.576    477.457    490.097    477.457
 92.670    659.000    616.153     42.847    477.214    602.947    477.214    490.378    477.214
 92.770    604.077    634.316    -30.239    476.970    620.587    476.970    490.651    476.970
 92.870    661.000    653.325      7.675    476.724    639.088    476.724    490.908    476.724
 92.970    614.000    672.646    -58.646    476.477    657.925    476.477    491.141    476.477
 93.070    704.159    691.665     12.494    476.229    676.495    476.229    491.339    476.229
 93.170    757.000    709.768     47.232    475.979    694.193    475.979    491.492    475.979
 93.270    765.000    726.459     38.541    475.728    710.533    475.728    491.592    475.728
 93.370    704.000    741.461    -37.461    475.476    725.248    475.476    491.628    475.476
 93.470    799.627    754.757     44.870    475.223    738.326    475.223    491.592    475.223
 93.570    761.084    766.528     -5.445    474.968    749.956    474.968    491.481    474.968
 93.670    836.000    777.036     58.964    474.712    760.401    474.712    491.290    474.712
 93.770    765.334    786.520    -21.185    474.455    769.900    474.455    491.020    474.455
 93.870    782.550    795.167    -12.616    474.196    778.639    474.196    490.673    474.196
 93.970    877.000    803.158     73.842    473.937    786.791    473.937    490.256    473.937
 94.070    872.000    810.744     61.256    473.676    794.600    473.676    489.775    473.676
 94.170    819.000    818.251      0.749    473.414    802.383    473.414    489.241    473.414
 94.270    871.000    825.994     45.006    473.151    810.445    473.151    488.662    473.151
 94.370    803.480    834.140    -30.660    472.886    818.943    472.886    488.050    472.886
 94.470    881.000    842.568     38.432    472.621    827.745    472.621    487.415    472.621
 94.570    840.343    850.795    -10.452    472.354    836.360    472.354    486.765    472.354
 94.670    915.000    857.987     57.013    472.087    843.945    472.087    486.110    472.087
 94.770    920.141    863.043     57.097    471.818    849.394    471.818    485.455    471.818
 94.870    897.000    864.749     32.251    471.548    851.484    471.548    484.808    471.548
 94.970    902.978    861.990     40.988    471.277    849.097    471.277    484.173    471.277
 95.070    900.000    854.186     45.814    471.005    841.647    471.005    483.555    471.005
 95.170    853.000    841.206     11.794    470.732    829.000    470.732    482.955    470.732
 95.270    880.000    823.619     56.381    470.458    811.721    470.458    482.377    470.458
 95.370    830.000    802.546     27.454    470.183    790.932    470.183    481.822    470.183
 95.470    798.000    779.459     18.541    469.907    768.101    469.907    481.292    469.907
 95.570    752.581    755.982     -3.402    469.630    744.853    469.630    480.786    469.630
 95.670    729.000    733.751     -4.751    469.352    722.822    469.352    480.306    469.352
 95.770    730.000    714.319     15.681    469.073    703.562    469.073    479.851    469.073
 95.870    781.000    699.140     81.860    468.793    688.528    468.793    479.422    468.793
 95.970    726.000    689.498     36.502    468.512    679.003    468.512    479.019    468.512
 96.070    691.000    686.508      4.492    468.231    676.103    468.231    478.642    468.231
 96.170    668.000    691.103    -23.103    467.948    680.760    467.948    478.291    467.948
 96.270    690.000    704.019    -14.019    467.665    693.712    467.665    477.965    467.665
 96.370    780.000    725.781     54.219    467.381    715.483    467.381    477.664    467.381
 96.470    802.904    756.665     46.238    467.096    746.351    467.096    477.389    467.096
 96.570    789.000    796.663     -7.663    466.810    786.306    466.810    477.139    466.810
 96.670    827.000    845.415    -18.415    466.524    834.991    466.524    476.916    466.524
 96.770    864.000    902.153    -38.153    466.236    891.635    466.236    476.719    466.236
 96.870    958.905    965.633     -6.728    465.948    954.996    465.948    476.548    465.948
 96.970   1046.838   1034.089     12.749    465.660   1023.307    465.660    476.405    465.660
 97.070   1075.030   1105.208    -30.178    465.370   1094.254    465.370    476.290    465.370
 97.170   1155.033   1176.128    -21.095    465.080   1164.977    465.080    476.204    465.080
 97.270   1250.000   1243.491      6.509    464.789   1232.114    464.789    476.149    464.789
 97.370   1270.000   1303.569    -33.569    464.498   1291.938    464.498    476.125    464.498
 97.470   1310.542   1352.543    -42.001    464.206   1340.626    464.206    476.135    464.206
 97.570   1419.000   1386.947     32.053    463.913   1374.710    463.913    476.180    463.913
 97.670   1484.000   1404.248     79.752    463.620   1391.655    463.620    476.263    463.620
 97.770   1472.949   1403.365     69.584    463.326   1390.375    463.326    476.384    463.326
 97.870   1436.413   1384.876     51.537    463.032   1371.444    463.032    476.548    463.032
 97.970   1296.721   1350.836    -54.115    462.737   1336.914    462.737    476.756    462.737
 98.070   1313.171   1304.303      8.868    462.441   1289.839    462.441    477.011    462.441
 98.170   1200.000   1248.822    -48.822    462.146   1233.761    462.146    477.315    462.146
 98.270   1123.995   1188.024    -64.029    461.849   1172.310    461.849    477.673    461.849
 98.370   1092.000   1125.371    -33.371    461.553   1108.943    461.553    478.088    461.553
 98.470   1103.000   1064.016     38.984    461.255   1046.812    461.255    478.561    461.255
 98.570   1032.000   1006.738     25.262    460.958    988.693    460.958    479.097    460.958
 98.670    979.000    955.914     23.086    460.660    936.960    460.660    479.699    460.660
 98.770    951.770    913.523     38.247    460.362    893.590    460.362    480.369    460.362
 98.870    853.000    881.216    -28.216    460.063    860.232    460.063    481.112    460.063
 98.970    854.000    860.231     -6.231    459.764    838.122    459.764    481.929    459.764
 99.070    850.592    851.491     -0.899    459.465    828.180    459.465    482.823    459.465
 99.170    815.671    855.621    -39.951    459.166    831.031    459.166    483.797    459.166
 99.270    889.523    872.973     16.550    458.866    847.024    458.866    484.851    458.866
 99.370    935.721    903.633     32.088    458.567    876.245    458.567    485.987    458.567
 99.470    908.416    947.420    -39.004    458.267    918.514    458.267    487.205    458.267
 99.570   1058.905   1003.857     55.048    457.966    973.356    457.966    488.503    457.966
 99.670   1100.822   1072.129     28.693    457.666   1039.957    457.666    489.879    457.666
 99.770   1219.769   1151.029     68.740    457.366   1117.116    457.366    491.329    457.366
 99.870   1257.000   1238.899     18.101    457.065   1203.180    457.065    492.847    457.065
 99.970   1257.000   1333.582    -76.582    456.765   1296.002    456.765    494.424    456.765
100.070   1472.000   1432.394     39.606    456.464   1392.910    456.464    496.048    456.464
100.170   1565.000   1532.153     32.847    456.164   1490.737    456.164    497.704    456.164
100.270   1660.000   1629.304     30.696    455.863   1585.945    455.863    499.374    455.863
100.370   1682.000   1720.150    -38.150    455.563   1674.858    455.563    501.036    455.563
100.470   1851.534   1801.154     50.380    455.263   1753.967    455.263    502.661    455.263
100.570   1881.412   1869.260     12.152    454.962   1820.245    454.962    504.220    454.962
100.670   1961.000   1922.057     38.943    454.662   1871.313    454.662    505.677    454.662
100.770   1976.000   1957.773     18.227    454.362   1905.437    454.362    506.997    454.362
100.870   2043.655   1975.187     68.469    454.062   1921.430    454.062    508.139    454.062
100.970   2036.000   1973.606     62.394    453.763   1918.638    453.763    509.067    453.763
101.070   1918.000   1953.033    -35.033    453.463   1897.098    453.463    509.746    453.463
101.170   1990.000   1914.447     75.553    453.164   1857.819    453.164    510.146    453.164
101.270   1911.000   1860.014     50.986    452.866   1802.985    452.866    510.246    452.866
101.370   1736.107   1793.027    -56.920    452.567   1735.905    452.567    510.033    452.567
101.470   1686.602   1717.560    -30.958    452.269   1660.655    452.269    509.505    452.269
101.570   1697.008   1637.941     59.067    451.971   1581.555    451.971    508.670    451.971
101.670   1493.000   1558.247    -65.247    451.674   1502.665    451.674    507.548    451.674
101.770   1427.000   1481.948    -54.948    451.377   1427.430    451.377    506.166    451.377
101.870   1424.000   1411.703     12.297    451.081   1358.478    451.081    504.555    451.081
101.970   1289.255   1349.291    -60.035    450.785   1297.550    450.785    502.754    450.785
102.070   1339.000   1295.610     43.390    450.490   1245.508    450.490    500.800    450.490
102.170   1227.126   1250.728    -23.602    450.195   1202.383    450.195    498.731    450.195
102.270   1186.336   1213.964    -27.627    449.901   1167.457    449.901    496.584    449.901
102.370   1125.000   1183.987    -58.987    449.607   1139.370    449.607    494.390    449.607
102.470   1096.461   1158.972    -62.511    449.314   1116.265    449.314    492.178    449.314
102.570   1165.000   1136.784     28.216    449.022   1095.985    449.022    489.973    449.022
102.670   1109.000   1115.232     -6.232    448.730   1076.316    448.730    487.794    448.730
102.770   1064.134   1092.334    -28.199    448.440   1055.260    448.440    485.658    448.440
102.870   1064.000   1066.659     -2.659    448.150   1031.373    448.150    483.577    448.150
102.970   1051.000   1037.376     13.624    447.860   1003.813    447.860    481.563    447.860
103.070    974.000   1004.349    -30.349    447.572    972.436    447.572    479.620    447.572
103.170    946.000    968.009    -22.009    447.285    937.668    447.285    477.756    447.285
103.270    945.000    929.167     15.833    446.998    900.316    446.998    475.972    446.998
103.370    870.000    888.824    -18.824    446.712    861.383    446.712    474.270    446.712
103.470    865.000    848.030     16.970    446.428    821.914    446.428    472.652    446.428
103.570    815.000    807.777      7.223    446.144    782.905    446.144    471.115    446.144
103.670    822.514    768.952     53.563    445.861    745.243    445.861    469.659    445.861
103.770    699.464    732.290    -32.826    445.580    709.667    445.580    468.283    445.580
103.870    723.000    698.365     24.635    445.300    676.753    445.300    466.982    445.300
103.970    659.000    667.574     -8.574    445.020    646.900    445.020    465.756    445.020
104.070    599.448    640.147    -40.699    444.742    620.342    444.742    464.601    444.742
104.170    583.171    616.152    -32.981    444.465    597.150    444.465    463.513    444.465
104.270    639.000    595.524     43.476    444.190    577.263    444.190    462.490    444.190
104.370    591.000    578.092     12.908    443.915    560.512    443.915    461.528    443.915
104.470    562.000    563.605     -1.605    443.642    546.650    443.642    460.624    443.642
104.570    563.000    551.768     11.232    443.371    535.386    443.371    459.775    443.371
104.670    540.000    542.266     -2.266    443.101    526.409    443.101    458.977    443.101
104.770    567.124    534.792     32.332    442.832    519.411    442.832    458.227    442.832
104.870    508.050    529.056    -21.006    442.564    514.111    442.564    457.522    442.564
104.970    519.302    524.809     -5.507    442.299    510.258    442.299    456.860    442.299
105.070    494.142    521.842    -27.701    442.034    507.647    442.034    456.237    442.034
105.170    488.389    519.993    -31.604    441.772    506.118    441.772    455.651    441.772
105.270    563.815    519.144     44.671    441.511    505.558    441.511    455.100    441.511
105.370    497.120    519.223    -22.103    441.251    505.895    441.251    454.581    441.251
105.470    517.000    520.196     -3.196    440.993    507.097    440.993    454.092    440.993
105.570    540.326    522.061     18.265    440.737    509.164    440.737    453.631    440.737
105.670    570.000    524.845     45.156    440.483    512.126    440.483    453.197    440.483
105.770    552.000    528.594     23.406    440.231    516.030    440.231    452.788    440.231
105.870    546.000    533.366     12.634    439.980    520.935    439.980    452.402    439.980
105.970    499.418    539.217    -39.799    439.731    526.898    439.731    452.039    439.731
106.070    559.000    546.189     12.811    439.485    533.963    439.485    451.696    439.485
106.170    566.000    554.299     11.701    439.240    542.148    439.240    451.374    439.240
106.270    587.679    563.529     24.150    438.997    551.436    438.997    451.071    438.997
106.370    597.000    573.812     23.188    438.756    561.761    438.756    450.785    438.756
106.470    556.000    585.032    -29.032    438.518    573.007    438.518    450.518    438.518
106.570    645.642    597.016     48.627    438.281    585.002    438.281    450.268    438.281
106.670    616.000    609.534      6.466    438.047    597.518    438.047    450.034    438.047
106.770    585.000    622.306    -37.306    437.815    610.273    437.815    449.816    437.815
106.870    599.000    635.000    -36.000    437.585    622.938    437.585    449.615    437.585
106.970    602.000    647.249    -45.249    437.357    635.144    437.357    449.429    437.357
107.070    652.000    658.662     -6.662    437.132    646.503    437.132    449.259    437.132
107.170    664.000    668.858     -4.858    436.909    656.631    436.909    449.104    436.909
107.270    688.000    677.496     10.504    436.689    665.190    436.689    448.965    436.689
107.370    687.000    684.329      2.671    436.471    671.931    436.471    448.841    436.471
107.470    709.909    689.243     20.666    436.256    676.742    436.256    448.733    436.256
107.570    722.546    692.288     30.258    436.043    679.670    436.043    448.640    436.043
107.670    690.758    693.672     -2.915    435.832    680.925    435.832    448.564    435.832
107.770    647.116    693.730    -46.614    435.625    680.839    435.625    448.504    435.625
107.870    661.335    692.872    -31.537    435.420    679.824    435.420    448.461    435.420
107.970    700.000    691.525      8.475    435.218    678.304    435.218    448.435    435.218
108.070    734.414    690.073     44.342    435.018    676.665    435.018    448.427    435.018
108.170    692.684    688.833      3.851    434.822    675.223    434.822    448.437    434.822
108.270    682.932    688.023     -5.092    434.628    674.195    434.628    448.466    434.628
108.370    683.935    687.748     -3.814    434.437    673.685    434.437    448.515    434.437
108.470    657.178    688.024    -30.845    434.249    673.707    434.249    448.584    434.249
108.570    682.000    688.723     -6.723    434.065    674.134    434.065    448.675    434.065
108.670    728.000    689.625     38.375    433.883    674.745    433.883    448.788    433.883
108.770    697.222    690.413      6.809    433.704    675.221    433.704    448.925    433.704
108.870    688.000    690.709     -2.709    433.529    675.183    433.529    449.086    433.529
108.970    722.000    690.108     31.892    433.356    674.226    433.356    449.274    433.356
109.070    637.000    688.237    -51.237    433.187    671.973    433.187    449.489    433.187
109.170    650.000    684.802    -34.802    433.022    668.130    433.022    449.733    433.022
109.270    677.000    679.645     -2.645    432.859    662.537    432.859    450.008    432.859
109.370    722.322    672.759     49.563    432.700    655.185    432.700    450.316    432.700
109.470    648.000    664.287    -16.287    432.545    646.215    432.545    450.658    432.545
109.570    661.000    654.485      6.515    432.392    635.882    432.392    451.037    432.392
109.670    615.000    643.681    -28.681    432.244    624.511    432.244    451.455    432.244
109.770    615.000    632.234    -17.234    432.099    612.457    432.099    451.914    432.099
109.870    618.000    620.499     -2.499    431.958    600.075    431.958    452.418    431.958
109.970    625.000    608.808     16.192    431.820    587.693    431.820    452.968    431.820
110.070    560.972    597.458    -36.485    431.686    575.607    431.686    453.568    431.686
110.170    625.000    586.703     38.297    431.556    564.067    431.556    454.221    431.556
110.270    610.301    576.752     33.550    431.430    553.277    431.430    454.930    431.430
110.370    569.000    567.762      1.238    431.307    543.394    431.307    455.698    431.307
110.470    576.000    559.847     16.153    431.189    534.526    431.189    456.530    431.189
110.570    591.000    553.071     37.929    431.074    526.734    431.074    457.429    431.074
110.670    532.000    547.460    -15.460    430.964    520.041    430.964    458.398    430.964
110.770    546.000    543.002      2.998    430.858    514.430    430.858    459.442    430.858
110.870    586.000    539.656     46.344    430.755    509.857    430.755    460.565    430.755
110.970    527.735    537.357     -9.622    430.657    506.254    430.657    461.770    430.657
111.070    552.722    536.029     16.694    430.564    503.537    430.564    463.063    430.564
111.170    543.000    535.581      7.419    430.474    501.614    430.474    464.447    430.474
111.270    565.146    535.923     29.222    430.389    500.390    430.389    465.928    430.389
111.370    556.333    536.965     19.368    430.309    499.770    430.309    467.508    430.309
111.470    575.000    538.622     36.378    430.233    499.666    430.233    469.192    430.233
111.570    519.000    540.815    -21.815    430.161    499.995    430.161    470.984    430.161
111.670    565.000    543.476     21.524    430.094    500.684    430.094    472.888    430.094
111.770    527.000    546.547    -19.547    430.032    501.672    430.032    474.908    430.032
111.870    576.000    549.979     26.021    429.974    502.907    429.974    477.047    429.974
111.970    571.916    553.735     18.181    429.921    504.350    429.921    479.307    429.921
112.070    547.000    557.790    -10.790    429.873    505.972    429.873    481.692    429.873
112.170    545.000    562.130    -17.130    429.830    507.757    429.830    484.203    429.830
112.270    542.342    566.753    -24.411    429.792    509.704    429.792    486.842    429.792
112.370    535.942    571.667    -35.725    429.758    511.818    429.758    489.608    429.758
112.470    538.000    576.891    -38.891    429.730    514.122    429.730    492.501    429.730
112.570    571.000    582.455    -11.455    429.707    516.644    429.707    495.519    429.707
112.670    543.000    588.397    -45.397    429.689    519.428    429.689    498.659    429.689
112.770    556.000    594.768    -38.768    429.676    522.531    429.676    501.915    429.676
112.870    580.000    601.634    -21.634    429.669    526.023    429.669    505.282    429.669
112.970    628.000    609.079     18.921    429.667    529.998    429.667    508.749    429.667
113.070    601.000    617.210    -16.210    429.670    534.575    429.670    512.306    429.670
113.170    619.000    626.168     -7.168    429.678    539.909    429.678    515.938    429.678
113.270    658.786    636.133     22.653    429.692    546.198    429.692    519.627    429.692
113.370    611.000    647.341    -36.341    429.712    553.700    429.712    523.353    429.712
113.470    616.000    660.095    -44.095    429.738    562.740    429.738    527.089    429.738
113.570    643.000    674.782    -31.782    429.769    573.737    429.769    530.808    429.769
113.670    697.183    691.893      5.290    429.805    587.214    429.805    534.477    429.805
113.770    688.000    712.044    -24.044    429.848    603.823    429.848    538.058    429.848
113.870    701.000    735.992    -34.992    429.896    624.361    429.896    541.511    429.896
113.970    746.832    764.631    -17.800    429.951    649.767    429.951    544.792    429.951
114.070    837.725    799.125     38.600    430.011    681.250    430.011    547.855    430.011
114.170    789.000    840.784    -51.784    430.078    720.167    430.078    550.655    430.078
114.270    874.000    891.107    -17.107    430.150    768.062    430.150    553.143    430.150
114.370    895.802    951.810    -56.008    430.229    826.696    430.229    555.277    430.229
114.470    987.000   1024.799    -37.799    430.314    898.015    430.314    557.016    430.314
114.570   1035.000   1112.139    -77.139    430.405    984.117    430.405    558.327    430.405
114.670   1210.000   1215.997     -5.997    430.503   1087.196    430.503    559.183    430.503
114.770   1308.537   1338.581    -30.044    430.607   1209.475    430.607    559.569    430.607
114.870   1433.000   1482.040    -49.040    430.718   1353.112    430.718    559.478    430.718
114.970   1648.000   1648.360     -0.360    430.835   1520.087    430.835    558.914    430.835
115.070   1909.916   1839.229     70.686    430.959   1712.077    430.959    557.892    430.959
115.170   2099.000   2055.901     43.099    431.090   1930.310    431.090    556.437    431.090
115.270   2285.874   2299.044    -13.170    431.227   2175.423    431.227    554.579    431.227
115.370   2548.585   2568.594    -20.009    431.371   2447.316    431.371    552.360    431.371
115.470   2909.000   2863.621     45.379    431.522   2745.016    431.522    549.821    431.522
115.570   3195.209   3182.214     12.995    431.681   3066.568    431.681    547.009    431.681
115.670   3569.000   3521.392     47.608    431.846   3408.945    431.846    543.971    431.846
115.770   3690.000   3877.054   -187.054    432.018   3768.000    432.018    540.754    432.018
115.870   4121.000   4243.961   -122.961    432.197   4138.454    432.197    537.401    432.197
115.970   4562.000   4615.776    -53.776    432.384   4513.927    432.384    533.954    432.384
116.070   4868.000   4985.127   -117.127    432.578   4887.012    432.578    530.451    432.578
116.170   5320.000   5343.742    -23.742    432.779   5249.403    432.779    526.925    432.779
116.270   5695.000   5682.625     12.375    432.988   5592.075    432.988    523.407    432.988
116.370   5926.000   5992.317    -66.317    433.204   5905.542    433.204    519.922    433.204
116.470   6232.000   6263.263    -31.263    433.428   6180.226    433.428    516.493    433.428
116.570   6523.000   6486.288     36.712    433.660   6406.932    433.660    513.138    433.660
116.670   6642.000   6653.207    -11.207    433.899   6577.458    433.899    509.871    433.899
116.770   6747.000   6757.505    -10.505    434.146   6685.271    434.146    506.706    434.146
116.870   6958.000   6794.977    163.023    434.401   6726.153    434.401    503.652    434.401
116.970   6742.000   6764.200    -22.200    434.664   6698.669    434.664    500.716    434.664
117.070   6794.671   6666.696    127.975    434.935   6604.332    434.935    497.903    434.935
117.170   6529.000   6506.742     22.258    435.214   6447.412    435.214    495.218    435.214
117.270   6189.924   6290.881   -100.957    435.501   6234.447    435.501    492.663    435.501
117.370   5913.000   6027.272   -114.272    435.796   5973.594    435.796    490.239    435.796
117.470   5695.322   5725.007    -29.685    436.100   5673.947    436.100    487.945    436.100
117.570   5367.353   5393.519    -26.166    436.412   5344.938    436.412    485.782    436.412
117.670   4982.000   5042.099    -60.099    436.732   4995.863    436.732    483.746    436.732
117.770   4676.000   4679.549     -3.549    437.061   4635.528    437.061    481.837    437.061
117.870   4312.000   4313.932     -1.932    437.399   4271.999    437.399    480.051    437.399
117.970   3988.000   3952.392     35.608    437.745   3912.426    437.745    478.386    437.745
118.070   3575.316   3601.048    -25.732    438.100   3562.935    438.100    476.838    438.100
118.170   3295.286   3264.930     30.356    438.464   3228.561    438.464    475.403    438.464
118.270   2885.631   2947.970    -62.339    438.837   2913.242    438.837    474.077    438.837
118.370   2602.000   2653.032    -51.032    439.219   2619.848    439.219    472.857    439.219
118.470   2548.000   2381.981    166.019    439.609   2350.250    439.609    471.738    439.609
118.570   2119.000   2135.781    -16.781    440.009   2105.417    440.009    470.717    440.009
118.670   1863.904   1914.606    -50.702    440.418   1885.529    440.418    469.788    440.418
118.770   1688.000   1717.967    -29.967    440.837   1690.101    440.837    468.949    440.837
118.870   1565.798   1544.836     20.962    441.265   1518.111    441.265    468.194    441.265
118.970   1463.252   1393.780     69.472    441.702   1368.129    441.702    467.521    441.702
119.070   1290.000   1263.078     26.922    442.148   1238.438    442.148    466.925    442.148
119.170   1130.000   1150.834    -20.834    442.605   1127.146    442.605    466.402    442.605
119.270   1035.744   1055.082    -19.338    443.071   1032.291    443.071    465.948    443.071
119.370    978.000    973.868      4.132    443.546    951.921    443.546    465.562    443.546
119.470    864.000    905.312    -41.312    444.032    884.161    444.032    465.238    444.032
119.570    853.000    847.666      5.334    444.528    827.262    444.528    464.973    444.528
119.670    774.712    799.333    -24.621    445.033    779.634    445.033    464.766    445.033
119.770    785.000    758.895     26.105    445.549    739.858    445.549    464.613    445.549
119.870    730.363    725.109      5.254    446.074    706.695    446.074    464.511    446.074
119.970    707.590    696.906     10.684    446.610    679.078    446.610    464.457    446.610
120.070    653.000    673.380    -20.380    447.156    656.103    447.156    464.450    447.156
120.170    650.254    653.773     -3.518    447.713    637.014    447.713    464.487    447.713
120.270    659.000    637.454     21.546    448.280    621.182    448.280    464.566    448.280
120.370    590.000    623.908    -33.908    448.858    608.095    448.858    464.685    448.858
120.470    586.461    612.714    -26.254    449.446    597.331    449.446    464.843    449.446
120.570    592.588    603.531    -10.943    450.045    588.553    450.045    465.037    450.045
120.670    577.000    596.082    -19.082    450.655    581.485    450.655    465.266    450.655
120.770    580.815    590.145     -9.330    451.276    575.906    451.276    465.529    451.276
120.870    601.000    585.541     15.459    451.908    571.639    451.908    465.824    451.908
120.970    591.000    582.123      8.877    452.551    568.538    452.551    466.150    452.551
121.070    583.000    579.770      3.230    453.205    566.484    453.205    466.506    453.205
121.170    586.000    578.370      7.630    453.870    565.366    453.870    466.891    453.870
121.270    581.000    577.839      3.161    454.547    565.100    454.547    467.304    454.547
121.370    539.474    578.138    -38.664    455.235    565.649    455.235    467.743    455.235
121.470    561.986    579.176    -17.190    455.934    566.922    455.934    468.208    455.934
121.570    576.000    580.882     -4.882    456.645    568.851    456.645    468.699    456.645
121.670    615.649    583.191     32.458    457.368    571.370    457.368    469.213    457.368
121.770    567.801    586.032    -18.231    458.103    574.411    458.103    469.751    458.103
121.870    573.000    589.334    -16.334    458.849    577.901    458.849    470.311    458.849
121.970    567.000    593.018    -26.018    459.607    581.764    459.607    470.893    459.607
122.070    584.194    597.000    -12.806    460.378    585.916    460.378    471.496    460.378
122.170    578.000    601.190    -23.190    461.160    590.268    461.160    472.119    461.160
122.270    632.000    605.491     26.509    461.955    594.724    461.955    472.761    461.955
122.370    608.000    609.800     -1.800    462.762    599.183    462.762    473.422    462.762
122.470    600.411    614.011    -13.600    463.581    603.537    463.581    474.101    463.581
122.570    574.000    618.012    -44.012    464.413    607.677    464.413    474.797    464.413
122.670    626.000    621.694      4.306    465.258    611.494    465.258    475.509    465.258
122.770    584.845    624.950    -40.105    466.115    614.882    466.115    476.236    466.115
122.870    668.587    627.681     40.906    466.984    617.744    466.984    476.978    466.984
122.970    647.000    629.804     17.196    467.867    619.995    467.867    477.734    467.867
123.070    622.000    631.253     -9.253    468.763    621.573    468.763    478.503    468.763
123.170    587.705    631.989    -44.283    469.671    622.436    469.671    479.284    469.671
123.270    612.247    631.994    -19.747    470.593    622.570    470.593    480.078    470.593
123.370    655.000    631.278     23.722    471.528    621.984    471.528    480.883    471.528
123.470    630.000    629.874      0.126    472.476    620.711    472.476    481.699    472.476
123.570    657.000    627.833     29.167    473.438    618.803    473.438    482.527    473.438
123.670    602.987    625.220    -22.233    474.413    616.325    474.413    483.365    474.413
123.770    622.000    622.109     -0.109    475.402    613.352    475.402    484.214    475.402
123.870    599.000    618.579    -19.579    476.404    609.962    476.404    485.074    476.404
123.970    648.000    614.711     33.289    477.420    606.236    477.420    485.945    477.420
124.070    628.000    610.585     17.415    478.451    602.254    478.451    486.828    478.451
124.170    598.000    606.276     -8.276    479.495    598.092    479.495    487.723    479.495
124.270    616.000    601.857     14.143    480.553    593.821    480.553    488.630    480.553
124.370    567.000    597.393    -30.393    481.625    589.506    481.625    489.549    481.625
124.470    603.000    592.942     10.058    482.712    585.205    482.712    490.482    482.712
124.570    584.000    588.555     -4.555    483.813    580.969    483.813    491.429    483.813
124.670    610.000    584.275     25.725    484.928    576.840    484.928    492.390    484.928
124.770    603.000    580.136     22.864    486.058    572.852    486.058    493.366    486.058
124.870    557.000    576.166    -19.166    487.203    569.033    487.203    494.358    487.203
124.970    590.000    572.388     17.612    488.362    565.404    488.362    495.365    488.362
