neutron_powder_diffraction_0045
R_wp: 3.760
Temperature (K): 617.993
Counts: 83691.00
Wavelength (Ã…): 2.52098
COMMENTS
Test file for demonstrating the .xyy file format in Reel1.0
END OF HEADER
   tth       Y_obs     Y_calc      Y_res    Background    Phase_1_Nuc    Phase_1_Mag    Phase_2_Nuc    Phase_2_Mag
  9.970    719.114    682.104     37.010    680.615    681.662    681.056    680.615    680.615
 10.070    716.953    681.493     35.460    679.915    681.047    680.361    679.915    679.915
 10.170    681.084    680.896      0.188    679.216    680.445    679.667    679.216    679.216
 10.270    727.054    680.314     46.740    678.519    679.858    678.974    678.519    678.519
 10.370    657.462    679.750    -22.287    677.822    679.289    678.282    677.822    677.822
 10.470    722.000    679.207     42.793    677.126    678.741    677.591    677.126    677.126
 10.570    684.000    678.691      5.309    676.432    678.220    676.902    676.432    676.432
 10.670    692.000    678.208     13.792    675.738    677.731    676.213    675.738    675.738
 10.770    708.000    677.765     30.235    675.045    677.283    675.526    675.045    675.045
 10.870    708.000    677.373     30.627    674.354    676.886    674.840    674.354    674.354
 10.970    724.000    677.047     46.953    673.664    676.554    674.155    673.664    673.664
 11.070    693.000    676.807     16.193    672.974    676.308    673.471    672.974    672.974
 11.170    733.000    676.682     56.318    672.286    676.178    672.789    672.286    672.286
 11.270    699.000    676.715     22.285    671.599    676.205    672.107    671.599    671.599
 11.370    690.000    676.977     13.023    670.913    676.460    671.427    670.913    670.913
 11.470    638.690    677.604    -38.914    670.229    677.080    670.749    670.229    670.229
 11.570    715.127    678.896     36.231    669.545    678.365    670.071    669.545    669.545
 11.670    689.000    681.527      7.473    668.863    680.988    669.395    668.863    668.863
 11.770    791.000    686.833    104.167    668.182    686.285    668.721    668.182    668.182
 11.870    783.000    696.943     86.057    667.502    696.382    668.047    667.502    667.502
 11.970    784.000    714.146     69.854    666.824    713.568    667.375    666.824    666.824
 12.070    731.000    739.053     -8.053    666.147    738.455    666.704    666.147    666.147
 12.170    800.000    767.436     32.564    665.471    766.814    666.035    665.471    665.471
 12.270    823.661    787.582     36.079    664.796    786.942    665.367    664.796    664.796
 12.370    790.000    786.492      3.508    664.123    785.845    664.701    664.123    664.123
 12.470    767.000    764.503      2.497    663.451    763.861    664.036    663.451    663.451
 12.570    731.000    734.787     -3.787    662.780    734.154    663.373    662.780    662.780
 12.670    683.000    708.787    -25.787    662.111    708.161    662.711    662.111    662.111
 12.770    648.000    690.517    -42.517    661.444    689.894    662.051    661.444    661.444
 12.870    685.000    679.273      5.727    660.777    678.648    661.392    660.777    660.777
 12.970    702.749    672.752     29.997    660.112    672.123    660.735    660.112    660.112
 13.070    636.000    668.853    -32.853    659.449    668.218    660.079    659.449    659.449
 13.170    707.000    666.262     40.738    658.787    665.619    659.425    658.787    658.787
 13.270    639.000    664.331    -25.331    658.126    663.682    658.773    658.126    658.126
 13.370    637.000    662.850    -25.850    657.467    662.192    658.122    657.467    657.467
 13.470    635.000    661.549    -26.549    656.810    660.883    657.474    656.810    656.810
 13.570    639.000    660.356    -21.356    656.154    659.682    656.826    656.154    656.154
 13.670    634.565    659.273    -24.708    655.499    658.591    656.181    655.499    655.499
 13.770    632.000    658.276    -26.276    654.847    657.585    655.537    654.847    654.847
 13.870    679.557    657.345     22.212    654.195    656.645    654.895    654.195    654.195
 13.970    612.000    656.466    -44.466    653.545    655.756    654.254    653.545    653.545
 14.070    620.000    655.628    -35.628    652.897    654.909    653.616    652.897    652.897
 14.170    641.034    654.838    -13.804    652.251    654.109    652.979    652.251    652.251
 14.270    614.000    654.074    -40.074    651.606    653.334    652.344    651.606    651.606
 14.370    592.000    653.320    -61.320    650.962    652.570    651.711    650.962    650.962
 14.470    666.082    652.584     13.498    650.321    651.824    651.080    650.321    650.321
 14.570    626.000    651.862    -25.862    649.681    651.092    650.451    649.681    649.681
 14.670    610.172    651.154    -40.982    649.042    650.373    649.823    649.042    649.042
 14.770    682.670    650.458     32.212    648.406    649.666    649.198    648.406    648.406
 14.870    596.000    649.772    -53.772    647.771    648.968    648.574    647.771    647.771
 14.970    651.000    649.096      1.904    647.138    648.280    647.952    647.138    647.138
 15.070    651.000    648.427      2.573    646.506    647.600    647.333    646.506    646.506
 15.170    642.000    647.766     -5.766    645.876    646.927    646.715    645.876    645.876
 15.270    600.000    647.112    -47.112    645.248    646.260    646.099    645.248    645.248
 15.370    665.000    646.464     18.536    644.622    645.599    645.486    644.622    644.622
 15.470    654.000    645.821      8.179    643.998    644.944    644.874    643.998    643.998
 15.570    622.000    645.184    -23.184    643.375    644.293    644.265    643.375    643.375
 15.670    617.000    644.552    -27.552    642.754    643.648    643.657    642.754    642.754
 15.770    619.000    643.929    -24.929    642.135    643.011    643.052    642.135    642.135
 15.870    646.093    643.306      2.787    641.518    642.374    642.449    641.518    641.518
 15.970    639.000    642.687     -3.687    640.902    641.740    641.848    640.902    640.902
 16.070    658.000    642.071     15.929    640.289    641.110    641.249    640.289    640.289
 16.170    624.000    641.460    -17.460    639.677    640.484    640.653    639.677    639.677
 16.270    629.000    640.852    -11.852    639.067    639.861    640.059    639.067    639.067
 16.370    645.000    640.248      4.752    638.459    639.241    639.467    638.459    638.459
 16.470    644.000    639.648      4.352    637.853    638.624    638.877    637.853    637.853
 16.570    668.454    639.051     29.403    637.249    638.010    638.289    637.249    637.249
 16.670    623.000    638.462    -15.462    636.647    637.404    637.704    636.647    636.647
 16.770    590.000    637.875    -47.875    636.046    636.799    637.122    636.046    636.046
 16.870    599.287    637.288    -38.001    635.448    636.194    636.541    635.448    635.448
 16.970    621.000    636.704    -15.704    634.851    635.592    635.963    634.851    634.851
 17.070    623.000    636.124    -13.124    634.257    634.993    635.388    634.257    634.257
 17.170    624.000    635.561    -11.561    633.664    634.409    634.815    633.664    633.664
 17.270    653.000    635.052     17.948    633.074    633.880    634.246    633.074    633.074
 17.370    615.000    634.487    -19.487    632.485    633.295    633.677    632.485    632.485
 17.470    673.448    633.921     39.527    631.898    632.707    633.112    631.898    631.898
 17.570    623.000    633.364    -10.364    631.314    632.128    632.549    631.314    631.314
 17.670    652.920    632.810     20.110    630.731    631.552    631.989    630.731    630.731
 17.770    580.000    632.252    -52.252    630.151    630.972    631.431    630.151    630.151
 17.870    618.000    631.697    -13.697    629.572    630.394    630.876    629.572    629.572
 17.970    623.000    631.146     -8.146    628.996    629.818    630.323    628.996    628.996
 18.070    641.000    630.600     10.400    628.421    629.247    629.774    628.421    628.421
 18.170    592.312    630.078    -37.766    627.849    628.700    629.227    627.849    627.849
 18.270    629.000    629.544     -0.544    627.279    628.139    628.683    627.279    627.279
 18.370    590.451    629.006    -38.554    626.710    627.575    628.141    626.710    626.710
 18.470    634.444    628.470      5.973    626.144    627.012    627.603    626.144    626.144
 18.570    592.000    627.939    -35.939    625.580    626.451    627.068    625.580    625.580
 18.670    617.000    627.411    -10.411    625.018    625.894    626.535    625.018    625.018
 18.770    631.163    626.890      4.273    624.459    625.343    626.006    624.459    624.459
 18.870    593.000    626.377    -33.377    623.901    624.798    625.479    623.901    623.901
 18.970    645.647    625.860     19.787    623.345    624.249    624.956    623.345    623.345
 19.070    587.666    625.346    -37.679    622.792    623.702    624.436    622.792    622.792
 19.170    597.000    624.838    -27.838    622.240    623.159    623.919    622.240    622.240
 19.270    587.000    624.367    -37.367    621.691    622.645    623.414    621.691    621.691
 19.370    600.000    623.900    -23.900    621.144    622.134    622.911    621.144    621.144
 19.470    603.000    623.405    -20.405    620.600    621.599    622.405    620.600    620.600
 19.570    636.000    622.910     13.090    620.057    621.065    621.901    620.057    620.057
 19.670    603.000    622.419    -19.419    619.516    620.534    621.401    619.516    619.516
 19.770    639.000    621.932     17.068    618.978    620.006    620.904    618.978    618.978
 19.870    586.393    621.449    -35.056    618.442    619.480    620.411    618.442    618.442
 19.970    628.000    620.973      7.027    617.908    618.959    619.922    617.908    617.908
 20.070    612.000    620.516     -8.516    617.376    618.456    619.437    617.376    617.376
 20.170    622.370    620.064      2.305    616.847    617.953    618.958    616.847    616.847
 20.270    649.837    619.637     30.200    616.320    617.466    618.491    616.320    616.320
 20.370    587.000    619.195    -32.195    615.795    616.971    618.019    615.795    615.795
 20.470    607.264    618.801    -11.537    615.272    616.523    617.550    615.272    615.272
 20.570    622.335    618.368      3.967    614.751    616.034    617.085    614.751    614.751
 20.670    590.000    617.948    -27.948    614.233    615.557    616.624    614.233    614.233
 20.770    634.000    617.514     16.486    613.717    615.064    616.167    613.717    613.717
 20.870    574.000    617.104    -43.104    613.203    614.592    615.716    613.203    613.203
 20.970    569.000    616.722    -47.722    612.692    614.145    615.269    612.692    612.692
 21.070    628.607    616.305     12.302    612.183    613.661    614.826    612.183    612.183
 21.170    637.676    615.890     21.787    611.676    613.177    614.389    611.676    611.676
 21.270    579.622    615.485    -35.862    611.171    612.698    613.957    611.171    611.171
 21.370    624.000    615.092      8.908    610.669    612.228    613.533    610.669    610.669
 21.470    599.000    614.713    -15.713    610.168    611.770    613.111    610.168    610.168
 21.570    603.000    614.331    -11.331    609.671    611.308    612.694    609.671    609.671
 21.670    615.000    613.955      1.045    609.175    610.846    612.284    609.175    609.175
 21.770    565.774    613.584    -47.810    608.682    610.387    611.879    608.682    608.682
 21.870    636.663    613.221     23.441    608.191    609.932    611.481    608.191    608.191
 21.970    591.005    612.868    -21.863    607.703    609.482    611.089    607.703    607.703
 22.070    601.577    612.525    -10.948    607.216    609.038    610.703    607.216    607.216
 22.170    622.000    612.192      9.808    606.732    608.600    610.325    606.732    606.732
 22.270    658.008    611.870     46.138    606.251    608.167    609.954    606.251    606.251
 22.370    640.000    611.560     28.440    605.772    607.741    609.590    605.772    605.772
 22.470    643.243    611.263     31.981    605.295    607.323    609.235    605.295    605.295
 22.570    600.087    610.982    -10.895    604.820    606.915    608.887    604.820    604.820
 22.670    649.128    610.716     38.412    604.348    606.515    608.549    604.348    604.348
 22.770    609.000    610.474     -1.474    603.878    606.131    608.222    603.878    603.878
 22.870    602.000    610.245     -8.245    603.411    605.753    607.902    603.411    603.411
 22.970    651.208    610.035     41.173    602.945    605.388    607.593    602.945    602.945
 23.070    587.000    609.849    -22.849    602.483    605.037    607.294    602.483    602.483
 23.170    631.000    609.690     21.310    602.022    604.705    607.007    602.022    602.022
 23.270    583.754    609.562    -25.808    601.564    604.395    606.731    601.564    601.564
 23.370    656.057    609.471     46.586    601.109    604.111    606.469    601.109    601.109
 23.470    570.000    609.423    -39.423    600.655    603.859    606.220    600.655    600.655
 23.570    645.000    609.429     35.571    600.204    603.648    605.986    600.204    600.204
 23.670    602.421    609.498     -7.076    599.756    603.487    605.767    599.756    599.756
 23.770    586.000    609.647    -23.647    599.310    603.393    605.565    599.310    599.310
 23.870    636.000    609.899     26.101    598.866    603.386    605.380    598.866    598.866
 23.970    650.000    610.288     39.712    598.425    603.499    605.215    598.425    598.425
 24.070    589.000    610.871    -21.871    597.986    603.790    605.070    597.986    597.986
 24.170    583.000    611.764    -28.764    597.549    604.370    604.947    597.549    597.549
 24.270    616.000    613.221      2.779    597.115    605.492    604.848    597.115    597.115
 24.370    666.000    615.791     50.209    596.683    607.705    604.775    596.683    596.683
 24.470    637.000    620.501     16.499    596.254    612.033    604.731    596.254    596.254
 24.570    612.402    628.828    -16.425    595.827    619.951    604.719    595.827    595.827
 24.670    658.000    642.120     15.880    595.403    632.808    604.739    595.403    595.403
 24.770    628.542    660.244    -31.702    594.980    650.464    604.797    594.980    594.980
 24.870    760.000    679.475     80.525    594.561    669.190    604.897    594.561    594.561
 24.970    692.000    691.264      0.736    594.143    680.426    605.041    594.143    594.143
 25.070    639.662    688.031    -48.369    593.729    676.581    605.236    593.729    593.729
 25.170    713.000    672.475     40.525    593.316    660.350    605.486    593.316    593.316
 25.270    623.095    653.621    -30.526    592.906    640.759    605.800    592.906    592.906
 25.370    686.000    637.955     48.045    592.499    624.291    606.183    592.499    592.499
 25.470    587.107    627.459    -40.352    592.093    612.919    606.644    592.093    592.093
 25.570    608.000    621.479    -13.479    591.691    605.981    607.195    591.691    591.691
 25.670    628.000    618.534      9.466    591.290    601.982    607.847    591.290    591.290
 25.770    649.768    617.339     32.429    590.892    599.621    608.613    590.892    590.892
 25.870    661.000    617.106     43.894    590.497    598.092    609.512    590.497    590.497
 25.970    574.890    617.451    -42.561    590.104    596.993    610.563    590.104    590.104
 26.070    629.000    618.218     10.782    589.713    596.141    611.790    589.713    589.713
 26.170    641.000    619.355     21.645    589.325    595.457    613.223    589.325    589.325
 26.270    640.000    620.856     19.144    588.939    594.896    614.898    588.939    588.939
 26.370    654.000    622.743     31.257    588.556    594.437    616.860    588.556    588.556
 26.470    650.487    625.060     25.427    588.175    594.067    619.166    588.175    588.175
 26.570    642.000    627.862     14.138    587.797    593.775    621.881    587.797    587.797
 26.670    640.000    631.239      8.761    587.421    593.561    625.095    587.421    587.421
 26.770    612.000    635.313    -23.313    587.047    593.432    628.924    587.047    587.047
 26.870    683.521    640.230     43.291    586.676    593.387    633.515    586.676    586.676
 26.970    594.673    646.204    -51.531    586.307    593.439    639.067    586.307    586.307
 27.070    705.000    653.522     51.478    585.941    593.609    645.848    585.941    585.941
 27.170    670.550    662.579      7.971    585.577    593.924    654.225    585.577    585.577
 27.270    628.403    673.935    -45.532    585.215    594.424    664.717    585.215    585.215
 27.370    691.000    688.402      2.598    584.856    595.169    678.078    584.856    584.856
 27.470    692.544    707.243    -14.698    584.500    596.250    695.479    584.500    584.500
 27.570    675.000    732.771    -57.771    584.146    597.836    719.063    584.146    584.146
 27.670    788.606    770.607     18.000    583.794    600.335    754.041    583.794    583.794
 27.770    816.144    837.208    -21.065    583.445    604.937    815.674    583.445    583.445
 27.870    997.000    978.228     18.772    583.098    614.936    946.309    583.098    583.098
 27.970   1234.000   1293.897    -59.897    582.754    637.559   1238.921    582.754    582.754
 28.070   1963.751   1934.504     29.247    582.412    683.646   1832.940    582.412    582.412
 28.170   2890.000   3001.346   -111.346    582.072    760.519   2822.365    582.072    582.072
 28.270   4255.000   4346.391    -91.391    581.735    857.575   4069.868    581.735    581.735
 28.370   5500.026   5427.583     72.443    581.400    935.906   5072.449    581.400    581.400
 28.470   5605.926   5583.287     22.639    581.068    948.177   5215.815    581.068    581.068
 28.570   4814.000   4749.140     64.860    580.738    890.468   4439.295    580.738    580.738
 28.670   3629.000   3595.896     33.104    580.411    812.415   3363.877    580.411    580.411
 28.770   2732.000   2799.897    -67.897    580.086    764.390   2615.565    580.086    580.086
 28.870   2550.000   2606.249    -56.249    579.763    764.817   2421.119    579.763    579.763
 28.970   2890.000   2865.765     24.235    579.443    800.792   2644.334    579.443    579.443
 29.070   3260.000   3193.698     66.302    579.125    838.015   2934.801    579.125    579.125
 29.170   3309.000   3192.135    116.865    578.810    839.657   2931.401    578.810    578.810
 29.270   2674.574   2754.798    -80.224    578.497    796.542   2536.931    578.497    578.497
 29.370   2027.628   2118.359    -90.731    578.186    733.030   1963.681    578.186    578.186
 29.470   1462.000   1547.200    -85.200    577.878    675.905   1449.289    577.878    577.878
 29.570   1113.241   1152.830    -39.589    577.572    636.460   1094.009    577.572    577.572
 29.670    963.000    925.472     37.528    577.269    613.754    889.020    577.269    577.269
 29.770    889.000    807.940     81.060    576.968    602.064    782.859    576.968    576.968
 29.870    787.000    747.575     39.425    576.669    596.115    728.136    576.669    576.669
 29.970    729.000    713.193     15.807    576.373    592.792    696.776    576.373    576.373
 30.070    696.364    690.646      5.717    576.079    590.694    676.032    576.079    576.079
 30.170    725.573    674.378     51.195    575.788    589.293    660.873    575.788    575.788
 30.270    629.383    662.195    -32.812    575.499    588.421    649.271    575.499    575.499
 30.370    701.000    653.189     47.811    575.213    588.099    640.299    575.213    575.213
 30.470    634.000    647.218    -13.218    574.928    588.575    633.565    574.928    574.928
 30.570    683.000    644.966     38.034    574.646    590.457    629.146    574.646    574.646
 30.670    657.000    648.050      8.950    574.367    594.816    627.585    574.367    574.367
 30.770    701.000    658.569     42.431    574.090    602.956    629.677    574.090    574.090
 30.870    712.368    677.573     34.795    573.815    615.557    635.792    573.815    573.815
 30.970    730.000    702.522     27.478    573.543    631.248    644.762    573.543    573.543
 31.070    697.671    724.774    -27.103    573.273    645.195    652.786    573.273    573.273
 31.170    727.000    730.977     -3.977    573.005    649.890    654.027    573.005    573.005
 31.270    691.173    714.626    -23.453    572.740    641.682    645.629    572.740    572.740
 31.370    711.000    684.976     26.024    572.477    625.830    631.584    572.477    572.477
 31.470    662.000    655.148      6.852    572.216    609.772    617.566    572.216    572.216
 31.570    653.000    632.082     20.918    571.958    597.451    606.573    571.958    571.958
 31.670    616.338    616.965     -0.626    571.702    589.551    599.106    571.702    571.702
 31.770    634.000    608.028     25.972    571.449    585.085    594.385    571.449    571.449
 31.870    579.000    602.886    -23.886    571.198    582.715    591.364    571.198    571.198
 31.970    565.440    599.750    -34.310    570.949    581.439    589.256    570.949    570.949
 32.070    645.000    597.637     47.363    570.702    580.709    587.627    570.702    570.702
 32.170    613.000    596.097     16.903    570.458    580.279    586.273    570.458    570.458
 32.270    630.000    594.946     35.054    570.216    580.054    585.106    570.216    570.216
 32.370    600.232    594.105      6.127    569.976    579.995    584.084    569.976    569.976
 32.470    638.000    593.541     44.459    569.739    580.094    583.184    569.739    569.739
 32.570    620.000    593.243     26.757    569.504    580.352    582.392    569.504    569.504
 32.670    590.000    593.216     -3.216    569.272    580.785    581.700    569.272    569.272
 32.770    577.000    593.482    -16.482    569.041    581.418    581.103    569.041    569.041
 32.870    638.000    594.083     43.917    568.813    582.291    580.603    568.813    568.813
 32.970    577.493    595.081    -17.588    568.587    583.460    580.206    568.587    568.587
 33.070    608.000    596.571     11.429    568.364    585.010    579.923    568.364    568.364
 33.170    586.000    598.704    -12.704    568.142    587.068    579.776    568.142    568.142
 33.270    592.000    601.736     -9.736    567.923    589.851    579.805    567.923    567.923
 33.370    639.868    606.176     33.692    567.707    593.785    580.093    567.707    567.707
 33.470    623.000    613.143      9.857    567.492    599.805    580.824    567.492    567.492
 33.570    666.000    625.074     40.926    567.280    609.943    582.404    567.280    567.280
 33.670    620.215    646.694    -26.479    567.070    628.134    585.619    567.070    567.070
 33.770    696.856    685.506     11.350    566.863    660.629    591.721    566.863    566.863
 33.870    775.000    750.292     24.708    566.657    714.746    602.173    566.657    566.657
 33.970    867.000    846.272     20.728    566.454    794.834    617.848    566.454    566.454
 34.070    987.000    967.049     19.951    566.253    895.568    637.675    566.253    566.253
 34.170   1060.000   1085.017    -25.017    566.054    993.956    657.047    566.054    566.054
 34.270   1097.000   1150.162    -53.162    565.858   1048.343    667.616    565.858    565.858
 34.370   1118.000   1124.227     -6.227    565.663   1026.856    662.995    565.663    565.663
 34.470    978.000   1024.146    -46.146    565.471    943.593    646.007    565.471    565.471
 34.570    899.000    899.806     -0.806    565.281    840.105    624.979    565.281    565.281
 34.670    752.000    789.848    -37.848    565.094    748.582    606.360    565.094    565.094
 34.770    712.105    709.698      2.407    564.908    681.881    592.727    564.908    564.908
 34.870    652.000    658.655     -6.655    564.725    639.419    583.962    564.725    564.725
 34.970    637.000    628.945      8.055    564.544    614.720    578.768    564.544    564.544
 35.070    634.000    612.182     21.818    564.365    600.801    575.744    564.365    564.365
 35.170    564.776    602.335    -37.559    564.188    592.637    573.885    564.188    564.188
 35.270    633.000    595.985     37.015    564.013    587.379    572.619    564.013    564.013
 35.370    561.882    591.472    -29.590    563.841    583.644    571.668    563.841    563.841
 35.470    606.000    588.040     17.960    563.671    580.801    570.908    563.671    563.671
 35.570    611.000    585.325     25.675    563.503    578.548    570.278    563.503    563.503
 35.670    562.000    583.128    -21.128    563.337    576.719    569.745    563.337    563.337
 35.770    621.537    581.324     40.212    563.173    575.209    569.288    563.173    563.173
 35.870    612.000    579.827     32.173    563.011    573.943    568.894    563.011    563.011
 35.970    562.000    578.574    -16.574    562.851    572.871    568.553    562.851    562.851
 36.070    599.000    577.520     21.480    562.694    571.953    568.260    562.694    562.694
 36.170    595.000    576.633     18.367    562.538    571.160    568.010    562.538    562.538
 36.270    566.000    575.889     -9.889    562.385    570.471    567.802    562.385    562.385
 36.370    559.000    575.270    -16.270    562.234    569.869    567.635    562.234    562.234
 36.470    546.723    574.766    -28.043    562.085    569.341    567.510    562.085    562.085
 36.570    555.114    574.371    -19.258    561.938    568.878    567.431    561.938    561.938
 36.670    616.000    574.084     41.916    561.793    568.474    567.403    561.793    561.793
 36.770    532.031    573.909    -41.878    561.650    568.125    567.433    561.650    561.650
 36.870    587.540    573.856     13.684    561.509    567.830    567.534    561.509    561.509
 36.970    563.000    573.946    -10.946    561.370    567.594    567.722    561.370    561.370
 37.070    550.129    574.216    -24.087    561.233    567.430    568.019    561.233    561.233
 37.170    619.000    574.736     44.264    561.099    567.371    568.463    561.099    561.099
 37.270    609.000    575.646     33.354    560.966    567.487    569.123    560.966    560.966
 37.370    590.608    577.211     13.398    560.835    567.908    570.137    560.835    560.835
 37.470    563.000    579.910    -16.910    560.706    568.823    571.793    560.706    560.706
 37.570    587.777    584.525      3.253    560.580    570.442    574.661    560.580    560.580
 37.670    612.000    592.158     19.842    560.455    572.880    579.732    560.455    560.455
 37.770    549.000    604.051    -55.051    560.333    575.980    588.402    560.333    560.333
 37.870    579.234    621.011    -41.777    560.212    579.101    602.118    560.212    560.212
 37.970    688.685    642.524     46.161    560.093    581.082    621.531    560.093    560.093
 38.070    710.774    666.193     44.581    559.976    580.937    645.226    559.976    559.976
 38.170    693.000    687.248      5.752    559.862    578.821    668.283    559.862    559.862
 38.270    720.624    698.144     22.481    559.749    575.724    682.163    559.749    559.749
 38.370    674.486    692.645    -18.159    559.638    572.542    679.740    559.638    559.638
 38.470    628.000    672.629    -44.629    559.529    569.786    662.373    559.529    559.529
 38.570    624.000    646.492    -22.492    559.422    567.670    638.247    559.422    559.422
 38.670    612.000    621.935     -9.935    559.317    566.182    615.073    559.317    559.317
 38.770    590.000    602.742    -12.742    559.214    565.187    596.771    559.214    559.214
 38.870    585.060    589.530     -4.470    559.113    564.531    584.113    559.113    559.113
 38.970    512.000    581.230    -69.230    559.014    564.087    576.157    559.014    559.014
 39.070    607.000    576.274     30.726    558.916    563.771    571.419    558.916    558.916
 39.170    607.199    573.304     33.895    558.821    563.532    568.592    558.821    558.821
 39.270    584.000    571.417     12.583    558.727    563.341    566.804    558.727    558.727
 39.370    595.000    570.111     24.889    558.635    563.181    565.565    558.635    558.635
 39.470    568.000    569.133     -1.133    558.545    563.045    564.633    558.545    558.545
 39.570    535.244    568.360    -33.116    558.457    562.926    563.892    558.457    558.457
 39.670    573.667    567.733      5.934    558.371    562.822    563.282    558.371    558.371
 39.770    618.000    567.219     50.781    558.286    562.736    562.769    558.286    558.286
 39.870    601.749    566.791     34.958    558.204    562.664    562.331    558.204    558.204
 39.970    598.578    566.432     32.147    558.123    562.603    561.951    558.123    558.123
 40.070    602.466    566.130     36.336    558.044    562.555    561.619    558.044    558.044
 40.170    527.000    565.877    -38.877    557.967    562.519    561.325    557.967    557.967
 40.270    570.733    565.665      5.068    557.892    562.495    561.062    557.892    557.892
 40.370    557.000    565.491     -8.491    557.818    562.483    560.826    557.818    557.818
 40.470    551.000    565.350    -14.350    557.746    562.485    560.611    557.746    557.746
 40.570    561.000    565.241     -4.241    557.676    562.501    560.416    557.676    557.676
 40.670    577.046    565.161     11.885    557.608    562.532    560.237    557.608    557.608
 40.770    548.000    565.112    -17.112    557.541    562.581    560.073    557.541    557.541
 40.870    534.000    565.093    -31.093    557.477    562.649    559.921    557.477    557.477
 40.970    566.000    565.106      0.894    557.414    562.739    559.781    557.414    557.414
 41.070    524.000    565.154    -41.154    557.352    562.855    559.651    557.352    557.352
 41.170    526.865    565.239    -38.374    557.293    563.001    559.531    557.293    557.293
 41.270    581.024    565.368     15.656    557.235    563.183    559.420    557.235    557.235
 41.370    513.000    565.547    -52.547    557.178    563.409    559.318    557.178    557.178
 41.470    555.603    565.787    -10.184    557.124    563.688    559.224    557.124    557.124
 41.570    577.000    566.100     10.900    557.071    564.034    559.138    557.071    557.071
 41.670    597.310    566.506     30.804    557.020    564.467    559.061    557.020    557.020
 41.770    590.000    567.035     22.965    556.970    565.013    558.993    556.970    556.970
 41.870    557.000    567.737    -10.737    556.923    565.725    558.937    556.923    556.923
 41.970    565.305    568.712     -3.406    556.876    566.695    558.895    556.876    556.876
 42.070    546.000    570.157    -24.157    556.832    568.117    558.875    556.832    556.832
 42.170    566.000    572.457     -6.457    556.789    570.359    558.891    556.789    556.789
 42.270    570.610    576.286     -5.677    556.747    574.070    558.969    556.747    556.747
 42.370    557.200    582.655    -25.454    556.708    580.225    559.146    556.708    556.708
 42.470    577.793    592.773    -14.980    556.669    589.988    559.467    556.669    556.669
 42.570    578.000    607.623    -29.623    556.633    604.304    559.971    556.633    556.633
 42.670    593.696    627.220    -33.524    556.598    623.188    560.657    556.598    556.598
 42.770    623.000    649.662    -26.662    556.564    644.811    561.453    556.564    556.564
 42.870    628.000    670.187    -42.187    556.532    664.589    562.180    556.532    556.532
 42.970    644.615    681.583    -36.967    556.502    675.576    562.565    556.502    556.502
 43.070    664.000    678.533    -14.533    556.473    672.656    562.407    556.473    556.473
 43.170    601.000    662.670    -61.670    556.446    657.399    561.769    556.446    556.446
 43.270    601.000    640.743    -39.743    556.420    636.301    560.904    556.420    556.420
 43.370    616.282    619.128     -2.846    556.396    615.501    560.053    556.396    556.396
 43.470    559.173    601.363    -42.190    556.373    598.406    559.351    556.373    556.373
 43.570    580.759    588.484     -7.725    556.352    586.015    558.835    556.352    556.352
 43.670    582.526    580.001      2.524    556.332    577.854    558.488    556.332    556.332
 43.770    606.740    574.781     31.958    556.314    572.834    558.267    556.314    556.314
 43.870    537.000    571.666    -34.666    556.297    569.840    558.127    556.297    556.297
 43.970    566.000    569.779     -3.779    556.281    568.027    558.036    556.281    556.281
 44.070    605.000    568.573     36.427    556.267    566.869    557.974    556.267    556.267
 44.170    617.000    567.746     49.254    556.255    566.075    557.928    556.255    556.255
 44.270    572.000    567.146      4.854    556.244    565.499    557.893    556.244    556.244
 44.370    603.702    566.698     37.004    556.234    565.067    557.866    556.234    556.234
 44.470    536.765    566.360    -29.595    556.225    564.740    557.846    556.225    556.225
 44.570    558.000    566.107     -8.107    556.218    564.494    557.832    556.218    556.218
 44.670    587.799    565.922     21.877    556.213    564.313    557.822    556.213    556.213
 44.770    538.518    565.793    -27.275    556.209    564.185    557.818    556.209    556.209
 44.870    595.012    565.712     29.301    556.206    564.101    557.817    556.206    556.206
 44.970    533.000    565.671    -32.671    556.204    564.055    557.821    556.204    556.204
 45.070    594.384    565.666     28.718    556.204    564.042    557.829    556.204    556.204
 45.170    560.000    565.694     -5.694    556.205    564.059    557.840    556.205    556.205
 45.270    534.556    565.751    -31.195    556.208    564.103    557.856    556.208    556.208
 45.370    565.641    565.836     -0.195    556.211    564.172    557.876    556.211    556.211
 45.470    585.000    565.948     19.052    556.216    564.265    557.899    556.216    556.216
 45.570    604.742    566.085     38.657    556.223    564.381    557.927    556.223    556.223
 45.670    561.677    566.249     -4.571    556.230    564.520    557.959    556.230    556.230
 45.770    610.158    566.438     43.720    556.239    564.682    557.995    556.239    556.239
 45.870    563.638    566.655     -3.017    556.249    564.868    558.035    556.249    556.249
 45.970    584.000    566.901     17.099    556.261    565.080    558.081    556.261    556.261
 46.070    525.171    567.177    -42.006    556.273    565.317    558.132    556.273    556.273
 46.170    552.000    567.486    -15.486    556.287    565.584    558.188    556.287    556.287
 46.270    572.000    567.831      4.169    556.302    565.882    558.250    556.302    556.302
 46.370    550.851    568.217    -17.366    556.318    566.215    558.319    556.318    556.318
 46.470    555.000    568.649    -13.649    556.336    566.589    558.395    556.336    556.336
 46.570    561.090    569.134     -8.044    556.354    567.008    558.479    556.354    556.354
 46.670    602.502    569.680     32.822    556.374    567.480    558.573    556.374    556.374
 46.770    537.698    570.300    -32.602    556.395    568.017    558.676    556.395    556.395
 46.870    558.333    571.010    -12.677    556.417    568.633    558.792    556.417    556.417
 46.970    612.000    571.837     40.163    556.440    569.351    558.924    556.440    556.440
 47.070    565.000    572.826     -7.826    556.465    570.213    559.074    556.465    556.465
 47.170    528.881    574.063    -45.182    556.490    571.296    559.253    556.490    556.490
 47.270    579.895    575.708      4.188    556.517    572.744    559.476    556.517    556.517
 47.370    549.000    578.042    -29.042    556.544    574.812    559.769    556.544    556.544
 47.470    652.000    581.516     70.484    556.573    577.905    560.175    556.573    556.573
 47.570    630.000    586.741     43.259    556.603    582.580    560.752    556.603    556.603
 47.670    624.000    594.395     29.605    556.634    589.446    561.565    556.634    556.634
 47.770    573.634    604.976    -31.342    556.666    598.958    562.660    556.666    556.666
 47.870    605.517    618.443    -12.926    556.698    611.073    564.035    556.698    556.698
 47.970    679.760    633.767     45.993    556.732    624.859    565.596    556.732    556.732
 48.070    672.000    648.516     23.484    556.767    638.113    567.118    556.767    556.767
 48.170    659.000    658.931      0.069    556.803    647.425    568.251    556.803    556.803
 48.270    653.000    661.520     -8.520    556.840    649.630    568.673    556.840    556.840
 48.370    645.000    655.743    -10.743    556.878    644.234    568.336    556.878    556.878
 48.470    620.000    644.590    -24.590    556.917    633.942    567.523    556.917    556.917
 48.570    590.406    632.095    -41.689    556.957    622.403    566.617    556.957    556.957
 48.670    588.802    621.179    -32.378    556.998    612.257    565.897    556.998    556.998
 48.770    604.000    613.282     -9.282    557.040    604.800    565.505    557.040    557.040
 48.870    598.000    608.753    -10.753    557.083    600.338    565.485    557.083    557.083
 48.970    573.525    607.312    -33.787    557.126    598.604    565.825    557.126    557.126
 49.070    645.000    608.456     36.544    557.171    599.122    566.497    557.171    557.171
 49.170    572.640    611.766    -39.126    557.216    601.484    567.491    557.216    557.216
 49.270    582.688    617.131    -34.443    557.263    605.540    568.846    557.263    557.263
 49.370    593.892    624.994    -31.102    557.310    611.594    570.702    557.310    557.310
 49.470    675.212    636.873     38.339    557.358    620.799    573.421    557.358    557.358
 49.570    591.000    656.485    -65.485    557.407    636.029    577.848    557.407    557.407
 49.670    708.000    691.704     16.296    557.456    663.389    585.748    557.456    557.456
 49.770    722.634    756.970    -34.336    557.507    714.082    600.353    557.507    557.507
 49.870    822.000    874.450    -52.450    557.558    805.315    626.621    557.558    557.558
 49.970   1012.000   1070.850    -58.850    557.611    957.819    670.525    557.611    557.611
 50.070   1322.000   1367.038    -45.038    557.664   1187.800    736.733    557.664    557.664
 50.170   1658.000   1761.153   -103.153    557.717   1493.829    824.824    557.717    557.717
 50.270   2136.000   2211.133    -75.133    557.772   1843.315    925.351    557.772    557.772
 50.370   2605.000   2626.399    -21.399    557.827   2165.931   1018.085    557.827    557.827
 50.470   2780.921   2883.326   -102.405    557.883   2365.640   1075.449    557.883    557.883
 50.570   2843.000   2883.898    -40.898    557.940   2366.408   1075.434    557.940    557.940
 50.670   2667.000   2628.559     38.441    557.998   2168.587   1018.077    557.998    557.998
 50.770   2214.000   2215.933     -1.933    558.056   1848.788    925.360    558.056    558.056
 50.870   1727.000   1770.168    -43.168    558.115   1503.485    824.961    558.115    558.115
 50.970   1302.000   1382.166    -80.166    558.175   1203.362    737.116    558.175    558.175
 51.070   1051.000   1094.075    -43.075    558.235    981.221    671.191    558.235    558.235
 51.170    960.878    907.596     53.282    558.296    838.372    627.591    558.296    558.296
 51.270    851.000    801.162     49.838    558.358    757.901    601.670    558.358    558.358
 51.370    769.000    746.581     22.419    558.420    717.530    587.511    558.420    558.420
 51.470    738.507    719.425     19.082    558.483    697.688    580.255    558.483    558.483
 51.570    709.000    703.061      5.939    558.546    684.832    576.807    558.546    558.546
 51.670    687.000    689.105     -2.105    558.611    672.190    575.553    558.611    558.611
 51.770    699.000    675.569     23.431    558.675    658.502    575.763    558.675    558.675
 51.870    652.000    663.377    -11.377    558.741    645.065    577.066    558.741    558.741
 51.970    608.047    653.629    -45.582    558.807    633.347    579.096    558.807    558.807
 52.070    624.000    646.605    -22.605    558.873    624.177    581.304    558.873    558.873
 52.170    659.000    641.725     17.275    558.940    617.747    582.918    558.940    558.940
 52.270    657.816    637.956     19.860    559.008    613.821    583.140    559.008    559.008
 52.370    664.000    634.542     29.458    559.076    611.979    581.635    559.076    559.076
 52.470    651.000    631.498     19.502    559.145    611.830    578.810    559.145    559.145
 52.570    639.000    629.390      9.610    559.214    613.152    575.450    559.214    559.214
 52.670    675.000    628.952     46.048    559.284    615.994    572.239    559.284    559.284
 52.770    646.131    631.030     15.101    559.354    620.788    569.595    559.354    559.354
 52.870    645.000    636.786      8.214    559.425    628.526    567.683    559.425    559.425
 52.970    663.000    648.020     14.980    559.496    641.013    566.501    559.496    559.496
 53.070    674.000    667.480      6.520    559.568    661.078    565.966    559.568    559.568
 53.170    716.000    698.932     17.068    559.640    692.572    565.994    559.640    559.640
 53.270    800.962    746.699     54.263    559.712    739.864    566.540    559.712    559.712
 53.370    831.000    814.446     16.554    559.785    806.635    567.584    559.785    559.785
 53.470    931.000    903.268     27.732    559.858    894.016    569.096    559.858    559.858
 53.570   1010.007   1009.381      0.626    559.932    998.320    570.977    559.932    559.932
 53.670   1111.995   1121.703     -9.708    560.006   1108.694    573.000    560.006    560.006
 53.770   1160.931   1220.208    -59.277    560.081   1205.526    574.752    560.081    560.081
 53.870   1265.000   1278.866    -13.866    560.156   1263.267    575.752    560.156    560.156
 53.970   1270.000   1277.808     -7.808    560.231   1262.353    575.694    560.231    560.231
 54.070   1183.000   1217.576    -34.576    560.306   1203.360    574.539    560.306    560.306
 54.170   1102.000   1118.771    -16.771    560.382   1106.505    572.669    560.382    560.382
 54.270    940.000   1007.304    -67.304    560.459    997.214    570.569    560.459    560.459
 54.370    805.000    902.739    -97.739    560.535    894.685    568.606    560.535    560.535
 54.470    791.000    815.762    -24.762    560.612    809.407    566.980    560.612    560.612
 54.570    752.372    749.864      2.508    560.689    744.805    565.757    560.689    560.689
 54.670    713.000    703.737      9.263    560.766    699.598    564.911    560.766    560.766
 54.770    681.698    673.569      8.129    560.844    670.047    564.369    560.844    560.844
 54.870    655.890    654.922      0.968    560.922    651.799    564.047    560.922    560.922
 54.970    672.000    643.921     28.079    561.000    641.050    563.872    561.000    561.000
 55.070    623.000    637.735    -14.735    561.078    635.023    563.790    561.078    561.078
 55.170    667.000    634.557     32.443    561.157    631.947    563.767    561.157    561.157
 55.270    609.795    633.359    -23.564    561.236    630.813    563.782    561.236    561.236
 55.370    656.457    633.617     22.840    561.315    631.106    563.824    561.315    561.315
 55.470    653.000    635.103     17.897    561.394    632.606    563.890    561.394    561.394
 55.570    595.906    637.764    -41.858    561.473    635.260    563.976    561.473    561.473
 55.670    651.000    641.675      9.325    561.553    639.143    564.083    561.553    561.553
 55.770    647.000    647.046     -0.046    561.633    644.464    564.213    561.633    561.633
 55.870    665.017    654.311     10.706    561.712    651.650    564.370    561.712    561.712
 55.970    618.640    664.319    -45.678    561.792    661.542    564.564    561.792    561.792
 56.070    700.423    678.702     21.720    561.872    675.753    564.815    561.872    561.872
 56.170    735.309    700.460     34.849    561.953    697.243    565.158    561.953    561.953
 56.270    701.192    734.706    -33.514    562.033    731.068    565.653    562.033    562.033
 56.370    770.000    789.358    -19.358    562.113    785.049    566.394    562.113    562.113
 56.470    801.000    875.219    -74.219    562.194    869.862    567.509    562.194    562.194
 56.570   1044.586   1004.769     39.817    562.274    997.838    569.145    562.274    562.274
 56.670   1140.551   1189.066    -48.515    562.355   1179.909    571.434    562.355    562.355
 56.770   1360.000   1432.852    -72.852    562.435   1420.763    574.432    562.435    562.435
 56.870   1766.000   1728.742     37.258    562.516   1713.109    578.052    562.516    562.516
 56.970   2114.000   2051.791     62.209    562.596   2032.303    582.002    562.596    562.596
 57.070   2380.970   2355.799     25.171    562.677   2332.697    585.738    562.677    562.677
 57.170   2568.556   2575.780     -7.224    562.758   2550.068    588.493    562.758    562.758
 57.270   2719.134   2647.709     71.425    562.838   2621.129    589.514    562.838    562.838
 57.370   2586.000   2546.753     39.247    562.919   2521.313    588.510    562.919    562.919
 57.470   2315.000   2307.335      7.665    562.999   2284.618    585.891    562.999    562.999
 57.570   2045.544   1996.820     48.725    563.080   1977.612    582.458    563.080    563.080
 57.670   1676.000   1677.999     -1.999    563.160   1662.344    578.964    563.160    563.160
 57.770   1322.000   1393.132    -71.132    563.241   1380.563    575.927    563.241    563.241
 57.870   1147.000   1163.641    -16.641    563.321   1153.404    573.644    563.321    563.321
 57.970    939.084    994.518    -55.434    563.401    985.720    572.257    563.401    563.401
 58.070    839.131    880.073    -40.943    563.481    871.728    571.862    563.481    563.481
 58.170    856.731    809.862     46.869    563.561    800.829    572.613    563.561    563.561
 58.270    758.000    773.486    -15.486    563.641    762.324    574.808    563.641    563.641
 58.370    735.358    763.355    -27.997    563.721    748.170    578.899    563.721    563.721
 58.470    774.000    775.356     -1.356    563.800    753.745    585.394    563.800    563.800
 58.570    860.219    807.893     52.325    563.880    777.128    594.617    563.880    563.880
 58.670    796.000    860.126    -64.126    563.959    817.637    606.408    563.959    563.959
 58.770    922.000    930.019     -8.019    564.038    874.165    619.840    564.038    564.038
 58.870    997.000   1012.698    -15.698    564.117    943.684    633.073    564.117    564.117
 58.970   1099.000   1099.605     -0.605    564.196   1020.261    643.482    564.196    564.196
 59.070   1196.000   1179.688     16.312    564.274   1095.566    648.347    564.274    564.274
 59.170   1180.000   1243.460    -63.460    564.352   1161.537    646.242    564.352    564.352
 59.270   1347.396   1286.078     61.318    564.430   1212.487    638.006    564.430    564.430
 59.370   1257.902   1305.367    -47.465    564.508   1243.782    626.096    564.508    564.508
 59.470   1256.000   1299.777    -43.777    564.586   1251.195    613.184    564.586    564.586
 59.570   1212.456   1271.816    -59.360    564.663   1235.186    601.315    564.663    564.663
 59.670   1299.895   1231.621     68.273    564.740   1204.713    591.663    564.740    564.740
 59.770   1279.000   1193.566     85.434    564.817   1173.794    584.582    564.817    564.817
 59.870   1207.361   1170.067     37.294    564.893   1155.097    579.822    564.893    564.893
 59.970   1246.000   1168.876     77.124    564.969   1156.940    576.820    564.969    564.969
 60.070   1176.340   1193.941    -17.601    565.045   1183.878    574.975    565.045    565.045
 60.170   1263.000   1246.560     16.440    565.120   1237.673    573.825    565.120    565.120
 60.270   1378.000   1323.936     54.064    565.195   1315.820    573.084    565.195    565.195
 60.370   1466.000   1416.093     49.907    565.270   1408.497    572.602    565.270    565.270
 60.470   1536.000   1504.192     31.808    565.345   1496.953    572.302    565.345    565.345
 60.570   1598.000   1562.624     35.376    565.419   1555.624    572.144    565.419    565.419
 60.670   1605.000   1567.290     37.710    565.492   1560.436    572.101    565.492    565.492
 60.770   1497.000   1508.842    -11.842    565.566   1502.047    572.158    565.566    565.566
 60.870   1356.638   1399.005    -42.367    565.638   1392.172    572.317    565.638    565.638
 60.970   1290.000   1261.979     28.021    565.711   1254.989    572.588    565.711    565.711
 61.070   1156.152   1121.777     34.375    565.783   1114.485    572.995    565.783    565.783
 61.170    949.854    995.946    -46.092    565.854    988.162    573.582    565.854    565.854
 61.270    899.000    894.593      4.407    565.926    886.042    574.435    565.926    565.926
 61.370    819.629    821.548     -1.919    565.996    811.805    575.705    565.996    565.996
 61.470    794.000    776.497     17.503    566.067    764.878    577.652    566.067    566.067
 61.570    764.000    757.476      6.524    566.136    742.887    580.688    566.136    566.136
 61.670    766.065    762.995      3.070    566.206    743.759    585.394    566.206    566.206
 61.770    795.342    793.156      2.186    566.274    766.863    592.503    566.274    566.274
 61.870    819.000    849.495    -30.495    566.343    812.965    602.785    566.343    566.343
 61.970    930.000    933.626     -3.626    566.410    883.079    616.840    566.410    566.410
 62.070    990.000   1045.113    -55.113    566.478    976.625    634.813    566.478    566.478
 62.170   1153.489   1179.163    -25.674    566.544   1089.431    656.086    566.544    566.544
 62.270   1348.000   1324.702     23.298    566.611   1212.067    679.021    566.611    566.611
 62.370   1490.551   1463.306     27.245    566.676   1328.914    700.821    566.676    566.676
 62.470   1643.913   1570.144     73.769    566.741   1418.944    717.692    566.741    566.741
 62.570   1587.000   1619.886    -32.886    566.806   1460.710    725.753    566.806    566.806
 62.670   1614.198   1598.489     15.709    566.870   1442.316    722.856    566.870    566.870
 62.770   1431.000   1511.988    -80.988    566.933   1368.851    709.933    566.933    566.933
 62.870   1334.000   1382.261    -48.261    566.996   1258.814    690.351    566.996    566.996
 62.970   1187.000   1235.150    -48.150    567.058   1134.063    668.088    567.058    567.058
 63.070   1019.000   1091.930    -72.930    567.119   1012.599    646.419    567.119    567.119
 63.170    987.521    966.530     20.991    567.180    906.205    627.489    567.180    567.180
 63.270    873.000    865.752      7.248    567.241    820.633    612.351    567.241    567.241
 63.370    777.000    790.658    -13.658    567.300    756.778    601.173    567.300    567.300
 63.470    763.000    738.495     24.505    567.359    712.309    593.537    567.359    567.359
 63.570    712.000    704.705      7.295    567.417    683.361    588.751    567.417    567.417
 63.670    690.000    684.573      5.427    567.475    665.937    586.098    567.475    567.475
 63.770    639.749    674.282    -34.533    567.532    656.790    585.010    567.532    567.532
 63.870    647.000    671.460    -24.460    567.588    653.872    585.158    567.588    567.588
 63.970    699.000    675.183     23.817    567.643    656.324    586.480    567.643    567.643
 64.070    685.123    685.878     -0.755    567.698    664.349    589.199    567.698    567.698
 64.170    735.000    705.082     29.918    567.752    678.966    593.829    567.752    567.752
 64.270    779.000    735.064     43.936    567.806    701.655    601.162    567.806    567.806
 64.370    857.000    778.301     78.699    567.858    733.887    612.202    567.858    567.858
 64.470    833.069    836.735     -3.665    567.910    776.549    628.004    567.910    567.910
 64.570    960.000    910.847     49.153    567.961    829.281    649.410    567.961    567.961
 64.670   1020.000    998.645     21.355    568.011    889.828    676.684    568.011    568.011
 64.770   1040.460   1094.713    -54.253    568.061    953.480    709.125    568.061    568.061
 64.870   1165.857   1189.662    -23.805    568.110   1012.870    744.715    568.110    568.110
 64.970   1372.000   1270.760    101.240    568.158   1058.806    779.918    568.158    568.158
 65.070   1375.000   1324.600     50.400    568.205   1082.859    809.759    568.205    568.205
 65.170   1334.114   1341.371     -7.256    568.251   1080.864    828.591    568.251    568.251
 65.270   1356.822   1318.475     38.347    568.296   1054.685    831.950    568.296    568.296
 65.370   1288.000   1261.581     26.419    568.341   1010.959    818.860    568.341    568.341
 65.470   1227.000   1182.482     44.518    568.385    958.283    792.515    568.385    568.385
 65.570   1118.000   1094.604     23.396    568.428    904.527    758.464    568.428    568.428
 65.670    989.000   1008.909    -19.909    568.470    855.145    722.216    568.470    568.470
 65.770    926.000    932.167     -6.167    568.511    812.724    687.954    568.511    568.511
 65.870    849.996    867.193    -17.196    568.552    777.480    658.274    568.552    568.552
 65.970    802.380    814.106    -11.725    568.591    748.363    634.349    568.591    568.591
 66.070    731.000    771.790    -40.790    568.630    724.205    616.232    568.630    568.630
 66.170    752.000    738.823     13.177    568.667    704.266    603.239    568.667    568.667
 66.270    663.702    713.758    -50.056    568.704    688.145    594.328    568.704    568.704
 66.370    677.000    695.204    -18.204    568.740    675.541    588.410    568.740    568.740
 66.470    600.000    681.918    -81.918    568.775    666.158    584.537    568.775    568.775
 66.570    684.000    672.896     11.104    568.809    659.716    581.989    568.809    568.809
 66.670    642.039    667.391    -25.352    568.842    655.966    580.266    568.842    568.842
 66.770    711.123    664.888     46.235    568.874    654.706    579.054    568.874    568.874
 66.870    697.277    665.094     32.184    568.905    655.831    578.165    568.905    568.905
 66.970    617.000    667.987    -50.987    568.935    659.422    577.498    568.935    568.935
 67.070    625.000    673.933    -48.933    568.965    665.894    577.001    568.965    568.965
 67.170    679.000    683.865     -4.865    568.993    676.197    576.657    568.993    568.993
 67.270    704.067    699.537      4.530    569.020    692.077    576.475    569.020    569.020
 67.370    679.000    723.797    -44.797    569.046    716.349    576.489    569.046    569.046
 67.470    781.849    760.813     21.037    569.071    753.122    576.754    569.071    569.071
 67.570    786.000    816.097    -30.097    569.096    807.828    577.353    569.096    569.096
 67.670    855.000    896.143    -41.143    569.119    886.863    578.382    569.119    569.119
 67.770    997.000   1007.510    -10.510    569.141    996.687    579.943    569.141    569.141
 67.870   1155.000   1155.301     -0.301    569.162   1142.325    582.112    569.162    569.162
 67.970   1361.000   1341.177     19.823    569.182   1325.418    584.914    569.182    569.182
 68.070   1589.599   1561.252     28.346    569.201   1542.146    588.282    569.201    569.201
 68.170   1814.547   1804.222     10.325    569.219   1781.393    592.034    569.219    569.219
 68.270   1960.969   2050.007    -89.038    569.236   2023.405    595.845    569.236    569.236
 68.370   2212.602   2269.420    -56.817    569.252   2239.465    599.247    569.252    569.252
 68.470   2512.823   2426.884     85.939    569.267   2394.568    601.668    569.267    569.267
 68.570   2478.000   2489.739    -11.739    569.280   2456.575    602.584    569.280    569.280
 68.670   2421.000   2443.028    -22.028    569.293   2410.756    601.753    569.293    569.293
 68.770   2236.459   2298.143    -61.683    569.304   2268.313    599.358    569.304    569.304
 68.870   2190.000   2085.989    104.011    569.315   2059.648    595.892    569.315    569.315
 68.970   1845.323   1842.333      2.990    569.324   1819.959    591.927    569.324    569.324
 69.070   1685.000   1597.549     87.451    569.332   1579.138    587.950    569.332    569.332
 69.170   1384.000   1373.110     10.890    569.339   1358.322    584.303    569.339    569.339
 69.270   1143.731   1181.593    -37.862    569.345   1169.892    581.188    569.345    569.345
 69.370   1030.701   1027.912      2.789    569.349   1018.687    578.684    569.349    569.349
 69.470    939.331    911.118     28.213    569.353    903.778    576.774    569.353    569.353
 69.570    812.114    826.500    -14.386    569.355    820.530    575.383    569.355    569.355
 69.670    718.213    767.603    -49.390    569.356    762.592    574.407    569.356    569.356
 69.770    704.402    727.830    -23.428    569.356    723.472    573.741    569.356    569.356
 69.870    662.851    701.446    -38.595    569.355    697.527    573.292    569.355    569.355
 69.970    771.000    684.003     86.997    569.353    680.380    572.986    569.353    569.353
 70.070    632.504    672.358    -39.854    569.349    668.937    572.777    569.349    569.349
 70.170    701.095    664.449     36.646    569.344    661.165    572.633    569.344    569.344
 70.270    701.642    659.008     42.634    569.339    655.817    572.531    569.339    569.339
 70.370    702.000    655.298     46.702    569.331    652.169    572.460    569.331    569.331
 70.470    687.000    652.920     34.080    569.323    649.827    572.414    569.323    569.323
 70.570    656.000    651.682      4.318    569.313    648.603    572.390    569.313    569.313
 70.670    691.870    651.540     40.329    569.302    648.451    572.387    569.302    569.302
 70.770    691.224    652.578     38.646    569.290    649.454    572.409    569.290    569.290
 70.870    660.000    655.037      4.963    569.277    651.846    572.460    569.277    569.277
 70.970    649.101    659.384    -10.283    569.262    656.083    572.553    569.262    569.262
 71.070    714.000    666.413     47.587    569.247    662.942    572.704    569.247    569.247
 71.170    672.000    677.390     -5.390    569.230    673.659    572.941    569.230    569.230
 71.270    640.000    694.187    -54.187    569.211    690.065    573.306    569.211    569.211
 71.370    677.261    719.395    -42.134    569.192    714.694    573.855    569.192    569.192
 71.470    803.000    756.315     46.685    569.171    750.771    574.663    569.171    569.171
 71.570    776.811    808.755    -31.945    569.148    802.020    575.812    569.148    569.148
 71.670    899.000    880.561     18.439    569.125    872.203    577.388    569.125    569.125
 71.770    983.000    974.859      8.141    569.100    964.375    579.460    569.100    569.100
 71.870   1050.501   1093.066    -42.565    569.074   1079.922    582.059    569.074    569.074
 71.970   1252.000   1233.813     18.187    569.047   1217.508    585.158    569.047    569.047
 72.070   1417.000   1391.947     25.053    569.018   1372.093    588.643    569.018    569.018
 72.170   1520.000   1557.751    -37.751    568.988   1534.177    592.303    568.988    568.988
 72.270   1637.000   1716.527    -79.527    568.957   1689.387    595.819    568.957    568.957
 72.370   1852.684   1849.097      3.587    568.924   1818.968    598.771    568.924    568.924
 72.470   1999.920   1934.564     65.356    568.890   1902.482    600.703    568.890    568.890
 72.570   1902.000   1956.444    -54.444    568.855   1923.804    601.257    568.855    568.855
 72.670   1824.528   1909.960    -85.432    568.818   1878.250    600.327    568.818    568.818
 72.770   1772.707   1804.622    -31.916    568.780   1775.118    598.124    568.780    568.780
 72.870   1701.000   1659.443     41.557    568.741   1632.998    595.063    568.741    568.741
 72.970   1438.000   1495.342    -57.342    568.700   1472.353    591.598    568.700    568.700
 73.070   1373.000   1330.084     42.916    568.658   1310.566    588.111    568.658    568.658
 73.170   1151.969   1176.535    -24.566    568.614   1160.233    584.871    568.614    568.614
 73.270   1027.000   1042.646    -15.646    568.570   1029.146    582.039    568.570    568.570
 73.370    865.000    932.056    -67.056    568.523    920.877    579.680    568.523    568.523
 73.470    822.000    844.982    -22.982    568.476    835.646    577.796    568.476    568.476
 73.570    768.668    779.274    -10.606    568.427    771.342    576.346    568.427    568.427
 73.670    780.267    731.475     48.792    568.377    724.565    575.276    568.377    568.377
 73.770    706.000    697.732      8.268    568.325    691.525    574.524    568.325    568.325
 73.870    717.378    674.446     42.932    568.272    668.671    574.039    568.272    568.272
 73.970    701.687    658.631     43.056    568.217    653.057    573.785    568.217    568.217
 74.070    684.779    648.039     36.740    568.161    642.456    573.741    568.161    568.161
 74.170    635.281    641.108     -5.827    568.104    635.313    573.898    568.104    568.104
 74.270    696.000    636.824     59.176    568.045    630.610    574.261    568.045    568.045
 74.370    677.107    634.553     42.554    567.985    627.710    574.833    567.985    567.985
 74.470    627.342    633.895     -6.553    567.923    626.212    575.615    567.923    567.923
 74.570    678.000    634.554     43.446    567.860    625.834    576.593    567.860    567.860
 74.670    604.000    636.247    -32.247    567.796    626.329    577.733    567.796    567.796
 74.770    616.000    638.649    -22.649    567.730    627.428    578.976    567.730    567.730
 74.870    619.000    641.348    -22.348    567.663    628.808    580.232    567.663    567.663
 74.970    692.000    643.836     48.164    567.594    630.078    581.387    567.594    567.594
 75.070    701.000    645.554     55.446    567.524    630.809    582.308    567.524    567.524
 75.170    692.000    646.012     45.988    567.452    630.624    582.881    567.452    567.452
 75.270    691.000    644.977     46.023    567.379    629.338    583.059    567.379    567.379
 75.370    680.000    642.603     37.397    567.305    627.049    582.897    567.305    567.305
 75.470    725.000    639.395     85.605    567.229    624.112    582.545    567.229    567.229
 75.570    659.000    636.050     22.950    567.152    621.019    582.211    567.152    567.152
 75.670    656.000    633.332     22.668    567.073    618.294    582.133    567.073    567.073
 75.770    620.000    632.006    -12.006    566.992    616.452    582.561    566.992    566.992
 75.870    641.000    632.839      8.161    566.911    615.989    583.766    566.911    566.911
 75.970    604.689    636.599    -31.910    566.827    617.388    586.036    566.827    566.827
 76.070    638.452    644.039     -5.587    566.743    621.107    589.664    566.743    566.743
 76.170    688.567    655.844     32.723    566.657    627.552    594.928    566.657    566.657
 76.270    664.000    672.543     -8.543    566.569    637.029    602.052    566.569    566.569
 76.370    719.356    694.379     24.977    566.480    649.668    611.148    566.480    566.480
 76.470    678.215    721.164    -42.949    566.389    665.342    622.157    566.389    566.389
 76.570    778.000    752.134     25.866    566.297    683.576    634.787    566.297    566.297
 76.670    780.000    785.822     -5.822    566.204    703.481    648.466    566.204    566.204
 76.770    819.941    819.971     -0.030    566.109    723.691    662.298    566.109    566.109
 76.870    868.518    851.517     17.001    566.012    742.364    675.067    566.012    566.012
 76.970    875.000    876.771     -1.771    565.914    757.281    685.302    565.914    565.914
 77.070    881.000    892.023    -11.023    565.815    766.216    691.520    565.815    565.815
 77.170    895.000    894.596      0.404    565.714    767.560    692.653    565.714    565.714
 77.270    884.000    883.920      0.080    565.611    760.970    688.474    565.611    565.611
 77.370    913.920    861.804     52.116    565.507    747.527    679.709    565.507    565.507
 77.470    825.000    831.641     -6.641    565.402    729.263    667.716    565.402    565.402
 77.570    791.000    797.222     -6.222    565.295    708.453    654.013    565.295    565.295
 77.670    811.430    761.898     49.532    565.186    687.102    639.941    565.186    565.186
 77.770    761.614    728.235     33.378    565.076    666.750    626.529    565.076    565.076
 77.870    685.000    697.968    -12.968    564.965    648.437    614.472    564.965    564.965
 77.970    678.000    672.067      5.933    564.852    632.743    604.158    564.852    564.852
 78.070    629.000    650.856    -21.856    564.737    619.861    595.718    564.737    564.737
 78.170    673.454    634.162     39.292    564.622    609.689    589.084    564.622    564.622
 78.270    648.000    621.481     26.519    564.504    601.922    584.055    564.504    564.504
 78.370    653.474    612.143     41.331    564.385    596.159    580.362    564.385    564.385
 78.470    604.256    605.438     -1.182    564.265    591.973    577.724    564.265    564.265
 78.570    593.000    600.713     -7.713    564.143    588.971    575.879    564.143    564.143
 78.670    623.000    597.422     25.578    564.019    586.826    574.610    564.019    564.019
 78.770    586.000    595.144     -9.144    563.894    585.284    573.750    563.894    563.894
 78.870    569.227    593.573    -24.347    563.768    584.161    573.176    563.768    563.768
 78.970    628.878    592.505     36.373    563.640    583.333    572.808    563.640    563.640
 79.070    581.000    591.809    -10.809    563.510    582.720    572.595    563.510    563.510
 79.170    590.000    591.412     -1.412    563.380    582.278    572.509    563.380    563.380
 79.270    602.000    591.281     10.719    563.247    581.986    572.539    563.247    563.247
 79.370    578.000    591.418    -13.418    563.113    581.840    572.688    563.113    563.113
 79.470    588.000    591.847     -3.847    562.978    581.849    572.972    562.978    562.978
 79.570    587.671    592.623     -4.952    562.841    582.036    573.423    562.841    562.841
 79.670    599.000    593.832      5.168    562.702    582.432    574.097    562.702    562.702
 79.770    571.000    595.603    -24.603    562.562    583.078    575.081    562.562    562.562
 79.870    594.000    598.124     -4.124    562.421    584.028    576.510    562.421    562.421
 79.970    576.000    601.665    -25.665    562.278    585.350    578.586    562.278    562.278
 80.070    648.820    606.605     42.215    562.133    587.129    581.599    562.133    562.133
 80.170    617.000    613.456      3.544    561.987    589.479    585.953    561.987    561.987
 80.270    595.000    622.886    -27.886    561.840    592.539    592.171    561.840    561.840
 80.370    652.000    635.711     16.289    561.691    596.484    600.899    561.691    561.691
 80.470    653.424    652.864      0.560    561.540    601.519    612.862    561.540    561.540
 80.570    635.115    675.314    -40.198    561.388    607.871    628.802    561.388    561.388
 80.670    702.000    703.951     -1.951    561.235    615.785    649.366    561.235    561.235
 80.770    751.000    739.439     11.561    561.080    625.509    674.970    561.080    561.080
 80.870    755.601    782.030    -26.428    560.923    637.269    705.639    560.923    560.923
 80.970    829.000    831.349     -2.349    560.765    651.215    740.850    560.765    560.765
 81.070    922.000    886.184     35.816    560.606    667.338    779.400    560.606    560.606
 81.170    962.000    944.326     17.674    560.445    685.388    819.330    560.445    560.445
 81.270   1031.000   1002.540     28.460    560.283    704.822    857.951    560.283    560.283
 81.370   1152.000   1056.763     95.237    560.119    724.803    892.036    560.119    560.119
 81.470   1210.000   1102.618    107.382    559.954    744.282    918.257    559.954    559.954
 81.570   1104.832   1136.218    -31.386    559.787    762.142    933.842    559.787    559.787
 81.670   1092.832   1154.952    -62.120    559.618    777.367    937.196    559.618    559.618
 81.770   1197.000   1157.835     39.165    559.449    789.134    928.158    559.449    559.449
 81.870   1216.000   1145.527     70.473    559.277    796.935    907.892    559.277    559.277
 81.970   1204.000   1120.014     83.986    559.105    800.575    878.581    559.105    559.105
 82.070   1076.000   1084.201     -8.201    558.931    800.098    843.083    558.931    558.931
 82.170   1094.000   1041.445     52.555    558.755    795.740    804.518    558.755    558.755
 82.270   1045.041    994.943     50.097    558.578    787.800    765.786    558.578    558.578
 82.370    914.775    947.397    -32.622    558.399    776.653    729.211    558.399    558.399
 82.470    900.664    900.961     -0.296    558.219    762.863    696.386    558.219    558.219
 82.570    849.000    857.273     -8.273    558.038    747.200    668.179    558.038    558.038
 82.670    806.000    817.415    -11.415    557.855    730.498    644.837    557.855    557.855
 82.770    810.000    781.882     28.118    557.671    713.479    626.134    557.671    557.671
 82.870    766.020    750.668     15.352    557.485    696.670    611.539    557.485    557.485
 82.970    743.000    723.487     19.513    557.298    680.459    600.375    557.298    557.298
 83.070    651.000    699.996    -48.996    557.109    665.191    591.958    557.109    557.109
 83.170    633.000    679.928    -46.928    556.919    651.213    585.671    556.919    556.919
 83.270    655.000    663.113     -8.113    556.728    638.854    581.016    556.728    556.728
 83.370    598.000    649.436    -51.436    556.535    628.384    577.609    556.535    556.535
 83.470    640.000    638.805      1.195    556.341    619.984    575.176    556.341    556.341
 83.570    624.000    631.118     -7.118    556.145    613.743    573.526    556.145    556.145
 83.670    627.000    626.240      0.760    555.948    609.655    572.531    555.948    555.948
 83.770    615.000    623.980     -8.980    555.749    607.623    572.096    555.749    555.749
 83.870    636.000    624.068     11.932    555.549    607.458    572.141    555.549    555.549
 83.970    621.000    626.140     -5.140    555.348    608.882    572.581    555.348    555.348
 84.070    607.000    629.731    -22.731    555.145    611.526    573.317    555.145    555.145
 84.170    653.000    634.271     18.729    554.941    614.943    574.229    554.941    554.941
 84.270    612.987    639.099    -26.112    554.736    618.614    575.175    554.736    554.736
 84.370    607.000    643.487    -36.487    554.529    621.969    575.997    554.529    554.529
 84.470    659.000    646.701     12.299    554.321    624.440    576.529    554.321    554.321
 84.570    642.242    648.104     -5.862    554.111    625.531    576.631    554.111    554.111
 84.670    601.000    647.294    -46.294    553.900    624.930    576.213    553.900    553.900
 84.770    624.000    644.211    -20.211    553.688    622.585    575.265    553.688    553.688
 84.870    592.577    639.130    -46.553    553.475    618.702    573.859    553.475    553.475
 84.970    657.710    632.567     25.143    553.260    613.667    572.121    553.260    553.260
 85.070    591.000    625.131    -34.131    553.043    607.938    570.202    553.043    553.043
 85.170    600.000    617.404    -17.404    552.826    601.951    568.250    552.826    552.826
 85.270    544.000    609.892    -65.892    552.607    596.074    566.400    552.607    552.607
 85.370    583.000    602.993    -19.993    552.387    590.594    564.766    552.387    552.387
 85.470    575.464    596.997    -21.534    552.165    585.705    563.440    552.165    552.165
 85.570    607.000    592.091     14.909    551.942    581.518    562.500    551.942    551.942
 85.670    574.290    588.371    -14.081    551.718    578.071    562.005    551.718    551.718
 85.770    627.791    585.863     41.929    551.493    575.344    561.999    551.493    551.493
 85.870    592.000    584.542      7.458    551.266    573.281    562.514    551.266    551.266
 85.970    578.000    584.350     -6.350    551.038    571.806    563.568    551.038    551.038
 86.070    600.000    585.208     14.792    550.809    570.842    565.160    550.809    550.809
 86.170    573.000    587.028    -14.028    550.578    570.326    567.263    550.578    550.578
 86.270    587.000    589.712     -2.712    550.346    570.216    569.822    550.346    550.346
 86.370    608.000    593.152     14.848    550.113    570.500    572.743    550.113    550.113
 86.470    561.543    597.233    -35.691    549.879    571.197    575.890    549.879    549.879
 86.570    597.000    601.828     -4.828    549.643    572.361    579.080    549.643    549.643
 86.670    590.000    606.798    -16.798    549.407    574.080    582.091    549.407    549.407
 86.770    576.000    611.998    -35.998    549.169    576.465    584.663    549.169    549.169
 86.870    661.174    617.294     43.880    548.930    579.649    586.531    548.930    548.930
 86.970    635.464    622.595     12.869    548.689    583.771    587.463    548.689    548.689
 87.070    647.793    627.893     19.900    548.448    588.962    587.323    548.448    548.448
 87.170    681.000    633.282     47.718    548.205    595.319    586.104    548.205    548.205
 87.270    692.000    638.929     53.071    547.961    602.887    583.932    547.961    547.961
 87.370    620.948    645.009    -24.061    547.716    611.625    581.019    547.716    547.716
 87.470    631.145    651.620    -20.475    547.470    621.388    577.611    547.470    547.470
 87.570    687.000    658.729     28.271    547.222    631.903    573.947    547.222    547.222
 87.670    719.582    666.128     53.454    546.974    642.758    570.231    546.974    546.974
 87.770    720.231    673.422     46.809    546.724    653.393    566.631    546.724    546.724
 87.870    736.000    680.045     55.955    546.473    663.117    563.272    546.473    546.473
 87.970    648.789    685.304    -36.515    546.221    671.152    560.239    546.221    546.221
 88.070    736.623    688.496     48.127    545.968    676.751    557.577    545.968    545.968
 88.170    722.000    689.078     32.922    545.714    679.362    555.297    545.714    545.714
 88.270    640.000    686.843    -46.843    545.459    678.792    553.384    545.459    545.459
 88.370    694.000    681.990     12.010    545.202    675.273    551.804    545.202    545.202
 88.470    681.000    675.054      5.946    544.945    669.380    550.516    544.945    544.945
 88.570    660.000    666.756     -6.756    544.686    661.880    549.474    544.686    544.686
 88.670    696.000    657.870     38.130    544.427    653.586    548.637    544.427    544.427
 88.770    657.000    649.130      7.870    544.166    645.271    547.968    544.166    544.166
 88.870    662.825    641.195     21.631    543.905    637.621    547.434    543.905    543.905
 88.970    617.643    634.595    -16.952    543.642    631.194    547.013    543.642    543.642
 89.070    695.000    629.720     65.280    543.378    626.397    546.683    543.378    543.378
 89.170    651.000    626.788     24.212    543.114    623.465    546.429    543.114    543.114
 89.270    601.000    625.844    -24.844    542.848    622.459    546.236    542.848    542.848
 89.370    582.683    626.762    -44.080    542.582    623.265    546.092    542.582    542.582
 89.470    624.000    629.261     -5.261    542.314    625.614    545.982    542.314    542.314
 89.570    628.000    632.918     -4.918    542.045    629.101    545.892    542.045    542.045
 89.670    613.000    637.196    -24.196    541.776    633.205    545.805    541.776    541.776
 89.770    641.739    641.470      0.268    541.506    637.319    545.701    541.506    541.506
 89.870    658.000    645.074     12.926    541.234    640.797    545.562    541.234    541.234
 89.970    626.729    647.370    -20.641    540.962    643.020    545.368    540.962    540.962
 90.070    623.000    647.853    -24.853    540.689    643.497    545.105    540.689    540.689
 90.170    658.000    646.257     11.743    540.415    641.968    544.765    540.415    540.415
 90.270    637.000    642.606     -5.606    540.140    638.454    544.352    540.140    540.140
 90.370    605.693    637.183    -31.491    539.864    633.229    543.876    539.864    539.864
 90.470    680.000    630.436     49.564    539.588    626.724    543.354    539.588    539.588
 90.570    613.000    622.870     -9.870    539.310    619.427    542.803    539.310    539.310
 90.670    623.000    614.968      8.032    539.032    611.803    542.240    539.032    539.032
 90.770    640.575    607.147     33.428    538.753    604.257    541.680    538.753    538.753
 90.870    562.000    599.740    -37.740    538.473    597.111    541.134    538.473    538.473
 90.970    550.634    592.993    -42.359    538.192    590.600    540.611    538.192    538.192
 91.070    572.000    587.063    -15.063    537.911    584.879    540.115    537.911    537.911
 91.170    568.000    582.032    -14.032    537.628    580.025    539.650    537.628    537.628
 91.270    570.000    577.915     -7.915    537.345    576.054    539.217    537.345    537.345
 91.370    568.000    574.678     -6.678    537.062    572.934    538.814    537.062    537.062
 91.470    618.078    572.258     45.821    536.777    570.602    538.438    536.777    536.777
 91.570    559.500    570.577    -11.077    536.492    568.984    538.088    536.492    536.492
 91.670    572.546    569.562      2.985    536.206    568.008    537.760    536.206    536.206
 91.770    532.000    569.152    -37.152    535.919    567.617    537.453    535.919    535.919
 91.870    595.137    569.315     25.821    535.632    567.778    537.166    535.632    535.632
 91.970    559.000    570.050    -11.050    535.344    568.491    536.898    535.344    535.344
 92.070    551.000    571.389    -20.389    535.056    569.787    536.651    535.056    535.056
 92.170    603.000    573.404     29.596    534.767    571.736    536.426    534.767    534.767
 92.270    522.000    576.199    -54.199    534.477    574.437    536.228    534.477    534.477
 92.370    563.314    579.908    -16.593    534.186    578.022    536.059    534.186    534.186
 92.470    598.000    584.686     13.314    533.895    582.640    535.925    533.895    533.895
 92.570    553.948    590.698    -36.750    533.604    588.452    535.830    533.604    533.604
 92.670    633.150    598.108     35.043    533.312    595.616    535.778    533.312    533.312
 92.770    578.000    607.057    -29.057    533.019    604.273    535.772    533.019    533.019
 92.870    611.000    617.653     -6.653    532.726    614.529    535.813    532.726    532.726
 92.970    589.000    629.950    -40.950    532.432    626.439    535.900    532.432    532.432
 93.070    633.000    643.936    -10.936    532.138    639.995    536.029    532.138    532.138
 93.170    655.000    659.515     -4.515    531.843    655.106    536.194    531.843    531.843
 93.270    651.248    676.499    -25.252    531.548    671.596    536.386    531.548    531.548
 93.370    697.000    694.603      2.397    531.253    689.188    536.596    531.253    531.253
 93.470    691.000    713.440    -22.440    530.957    707.505    536.812    530.957    530.957
 93.570    734.000    732.540      1.460    530.660    726.090    537.024    530.660    530.660
 93.670    714.011    751.388    -37.378    530.364    744.434    537.227    530.364    530.364
 93.770    773.000    769.551      3.449    530.066    762.098    537.424    530.066    530.066
 93.870    828.000    786.750     41.250    529.769    778.790    537.631    529.769    529.769
 93.970    799.000    802.925     -3.925    529.471    794.418    537.879    529.471    529.471
 94.070    806.000    818.277    -12.277    529.173    809.133    538.217    529.173    529.173
 94.170    825.000    833.164     -8.164    528.874    823.234    538.705    528.874    528.874
 94.270    869.000    847.967     21.033    528.575    837.038    539.405    528.575    528.575
 94.370    836.410    862.963    -26.553    528.276    850.761    540.380    528.276    528.276
 94.470    908.000    878.264     29.736    527.977    864.466    541.676    527.977    527.977
 94.570    914.000    893.830     20.170    527.677    878.088    543.322    527.677    527.677
 94.670    931.093    909.544     21.550    527.377    891.503    545.321    527.377    527.377
 94.770    947.000    925.266     21.734    527.077    904.603    547.645    527.077    527.077
 94.870    942.957    940.837      2.121    526.777    917.288    550.232    526.777    526.777
 94.970    911.576    955.995    -44.419    526.476    929.397    552.984    526.476    526.476
 95.070    988.000    970.264     17.736    526.176    940.582    555.770    526.176    526.176
 95.170    926.000    982.870    -56.870    525.875    950.236    558.427    525.875    525.875
 95.270   1049.991    992.748     57.243    525.574    957.474    560.771    525.574    525.574
 95.370    988.180    998.637    -10.457    525.273    961.228    562.612    525.273    525.273
 95.470    977.561    999.284    -21.723    524.972    960.424    563.771    524.972    524.972
 95.570   1025.159    993.750     31.409    524.671    954.252    564.117    524.671    524.671
 95.670    928.381    981.657    -53.276    524.370    942.397    563.587    524.370    524.370
 95.770    959.000    963.363     -4.363    524.068    925.193    562.207    524.068    524.068
 95.870    927.000    939.930    -12.930    523.767    903.594    560.080    523.767    523.767
 95.970    924.000    912.925     11.075    523.466    879.009    557.366    523.466    523.466
 96.070    913.598    884.176     29.423    523.165    853.077    554.253    523.165    523.165
 96.170    818.847    855.572    -36.725    522.864    827.500    550.929    522.864    522.864
 96.270    857.000    828.934     28.066    522.562    803.923    547.568    522.562    522.562
 96.370    764.085    805.939    -41.854    522.261    783.875    544.319    522.261    522.261
 96.470    832.351    788.088     44.264    521.961    768.737    541.302    521.961    521.961
 96.570    730.984    776.679    -45.695    521.660    759.722    538.603    521.660    521.660
 96.670    773.980    772.805      1.175    521.359    757.865    536.279    521.359    521.359
 96.770    819.230    777.341     41.889    521.059    764.014    534.356    521.059    521.059
 96.870    833.000    790.941     42.059    520.759    778.823    532.838    520.759    520.759
 96.970    772.693    814.029    -41.336    520.459    802.730    531.708    520.459    520.459
 97.070    866.000    846.777     19.223    520.159    835.935    530.939    520.159    520.159
 97.170    886.205    889.075     -2.870    519.859    878.363    530.496    519.859    519.859
 97.270    915.349    940.475    -25.126    519.560    929.607    530.341    519.560    519.560
 97.370    996.000   1000.129     -4.129    519.261    988.861    530.429    519.261    519.261
 97.470   1030.000   1066.907    -36.907    518.963   1055.037    530.719    518.963    518.963
 97.570   1096.000   1139.028    -43.028    518.664   1126.407    531.161    518.664    518.664
 97.670   1204.000   1214.272    -10.272    518.366   1200.801    531.704    518.366    518.366
 97.770   1314.000   1289.865     24.135    518.069   1275.506    532.289    518.069    518.069
 97.870   1370.000   1362.533      7.467    517.772   1347.309    532.855    517.772    517.772
 97.970   1473.000   1428.590     44.410    517.475   1412.592    533.334    517.475    517.475
 98.070   1424.083   1484.158    -60.075    517.179   1467.547    533.658    517.179    517.179
 98.170   1520.000   1525.564     -5.564    516.883   1508.562    533.764    516.883    516.883
 98.270   1658.000   1549.876    108.124    516.588   1532.756    533.603    516.588    516.588
 98.370   1589.000   1555.457     33.543    516.293   1538.516    533.148    516.293    516.293
 98.470   1629.000   1542.297     86.703    515.999   1525.832    532.400    515.999    515.999
 98.570   1613.000   1511.990    101.010    515.705   1496.265    531.386    515.705    515.705
 98.670   1518.829   1467.367     51.462    515.412   1452.599    530.154    515.412    515.412
 98.770   1379.000   1411.987    -32.987    515.120   1398.332    528.764    515.120    515.120
 98.870   1310.000   1349.662    -39.662    514.828   1337.215    527.277    514.828    514.828
 98.970   1235.469   1284.116    -48.647    514.537   1272.914    525.749    514.537    514.537
 99.070   1229.000   1218.775     10.225    514.246   1208.805    524.233    514.246    514.246
 99.170   1159.000   1156.660      2.340    513.957   1147.864    522.771    513.957    513.957
 99.270   1145.000   1100.344     44.656    513.668   1092.633    521.396    513.668    513.668
 99.370   1035.000   1051.964    -16.964    513.380   1045.223    520.135    513.380    513.380
 99.470   1064.000   1013.252     50.748    513.092   1007.349    519.004    513.092    513.092
 99.570   1003.127    985.570     17.558    512.805    980.365    518.012    512.805    512.805
 99.670    979.000    969.945      9.055    512.520    965.297    517.163    512.520    512.520
 99.770    970.000    967.089      2.911    512.235    962.858    516.453    512.235    512.235
 99.870    954.000    977.408    -23.408    511.951    973.464    515.874    511.951    511.951
 99.970   1006.000   1001.012      4.988    511.668    997.236    515.417    511.668    511.668
100.070   1066.000   1037.719     28.281    511.385   1034.005    515.067    511.385    511.385
100.170   1106.000   1087.048     18.952    511.104   1083.305    514.810    511.104    511.104
100.270   1129.856   1148.207    -18.350    510.824   1144.361    514.629    510.824    510.824
100.370   1240.000   1220.062     19.938    510.545   1216.056    514.509    510.545    510.545
100.470   1330.988   1301.109     29.880    510.266   1296.903    514.432    510.266    510.266
100.570   1376.040   1389.431    -13.391    509.989   1385.004    514.381    509.989    509.989
100.670   1527.793   1482.680     45.113    509.713   1478.026    514.339    509.713    509.713
100.770   1635.000   1578.084     56.916    509.438   1573.215    514.290    509.438    509.438
100.870   1673.000   1672.606      0.394    509.164   1667.548    514.217    509.164    509.164
100.970   1761.000   1763.019     -2.019    508.892   1757.813    514.109    508.892    508.892
101.070   1897.918   1846.261     51.657    508.620   1840.957    513.955    508.620    508.620
101.170   1944.000   1919.705     24.295    508.350   1914.355    513.751    508.350    508.350
101.270   1957.390   1981.323    -23.933    508.081   1975.975    513.500    508.081    508.081
101.370   1946.287   2029.674    -83.387    507.814   2024.368    513.210    507.814    507.814
101.470   2038.534   2063.718    -25.184    507.547   2058.482    512.892    507.547    507.547
101.570   2077.000   2082.609     -5.609    507.282   2077.456    512.561    507.282    507.282
101.670   2042.480   2085.616    -43.137    507.019   2080.542    512.231    507.019    507.019
101.770   2037.000   2072.267    -35.267    506.757   2067.256    511.917    506.757    506.757
101.870   1972.732   2042.684    -69.952    506.496   2037.708    511.630    506.496    506.496
101.970   2017.293   1997.937     19.357    506.236   1992.961    511.377    506.236    506.236
102.070   1989.154   1940.215     48.939    505.978   1935.197    511.163    505.978    505.978
102.170   1852.000   1872.680    -20.680    505.722   1867.577    510.990    505.722    505.722
102.270   1771.755   1799.059    -27.305    505.467   1793.832    510.855    505.467    505.467
102.370   1653.000   1723.141    -70.141    505.214   1717.756    510.752    505.214    505.214
102.470   1521.000   1648.341   -127.341    504.962   1642.777    510.672    504.962    504.962
102.570   1632.326   1577.429     54.897    504.712   1571.675    510.601    504.712    504.712
102.670   1580.843   1512.397     68.446    504.464   1506.458    510.527    504.464    504.464
102.770   1514.513   1454.437     60.076    504.217   1448.330    510.437    504.217    504.217
102.870   1369.000   1403.966    -34.966    503.972   1397.721    510.321    503.972    503.972
102.970   1376.042   1360.695     15.347    503.729   1354.350    510.169    503.729    503.729
103.070   1273.000   1323.702    -50.702    503.488   1317.303    509.975    503.488    503.488
103.170   1290.033   1291.555     -1.522    503.248   1285.152    509.734    503.248    503.248
103.270   1216.000   1262.469    -46.469    503.010   1256.118    509.440    503.010    503.010
103.370   1187.000   1234.524    -47.524    502.774   1228.285    509.090    502.774    502.774
103.470   1177.000   1205.940    -28.940    502.540   1199.873    508.683    502.540    502.540
103.570   1168.000   1175.316     -7.316    502.308   1169.480    508.220    502.308    502.308
103.670   1139.000   1141.812     -2.812    502.078   1136.261    507.705    502.078    502.078
103.770   1093.600   1105.204    -11.604    501.850   1099.983    507.147    501.850    501.850
103.870   1021.000   1065.803    -44.803    501.624   1060.944    506.556    501.624    501.624
103.970   1075.206   1024.288     50.918    501.400   1019.814    505.946    501.400    501.400
104.070    978.000    981.542     -3.542    501.178    977.461    505.328    501.178    501.178
104.170    949.000    938.502     10.498    500.958    934.812    504.714    500.958    500.958
104.270    857.129    896.070    -38.941    500.740    892.759    504.112    500.740    500.740
104.370    874.000    855.058     18.942    500.525    852.107    503.532    500.525    500.525
104.470    755.000    816.155    -61.155    500.312    813.539    502.978    500.312    500.312
104.570    788.000    779.912      8.088    500.101    777.603    502.455    500.101    500.101
104.670    734.000    746.732    -12.732    499.892    744.699    501.965    499.892    499.892
104.770    741.000    716.870     24.130    499.685    715.081    501.509    499.685    499.685
104.870    711.000    690.438     20.562    499.481    688.862    501.087    499.481    499.481
104.970    708.000    667.404     40.596    499.280    666.013    500.695    499.280    499.280
105.070    650.000    647.689      2.311    499.081    646.453    500.336    499.081    499.081
105.170    614.414    631.089    -16.675    498.884    629.980    500.008    498.884    498.884
105.270    635.000    617.341     17.659    498.689    616.336    499.707    498.689    498.689
105.370    669.000    606.162     62.838    498.498    605.239    499.430    498.498    498.498
105.470    606.000    597.260      8.740    498.308    596.401    499.175    498.308    498.308
105.570    644.000    590.356     53.644    498.122    589.544    498.938    498.122    498.122
105.670    626.000    585.195     40.805    497.938    584.415    498.719    497.938    497.938
105.770    563.988    581.557    -17.569    497.757    580.798    498.515    497.757    497.757
105.870    559.000    579.263    -20.263    497.578    578.512    498.326    497.578    497.578
105.970    605.000    578.174     26.826    497.402    577.420    498.150    497.402    497.402
106.070    558.829    578.193    -19.365    497.229    577.427    497.988    497.229    497.229
106.170    566.000    579.261    -13.261    497.059    578.472    497.838    497.059    497.059
106.270    597.000    581.345     15.655    496.891    580.523    497.701    496.891    496.891
106.370    595.000    584.441     10.559    496.727    583.575    497.578    496.727    496.727
106.470    566.370    588.561    -22.191    496.565    587.640    497.469    496.565    496.565
106.570    609.000    593.725     15.275    496.406    592.737    497.374    496.406    496.406
106.670    621.000    599.958     21.042    496.251    598.891    497.294    496.251    496.251
106.770    611.080    607.276      3.804    496.098    606.118    497.229    496.098    496.098
106.870    642.000    615.677     26.323    495.948    614.416    497.179    495.948    495.948
106.970    584.076    625.135    -41.059    495.802    623.758    497.144    495.802    495.802
107.070    701.000    635.583     65.417    495.658    634.081    497.122    495.658    495.658
107.170    652.000    646.913      5.087    495.518    645.276    497.113    495.518    495.518
107.270    662.000    658.967      3.033    495.381    657.187    497.114    495.381    495.381
107.370    688.000    671.535     16.465    495.247    669.609    497.123    495.247    495.247
107.470    653.000    684.355    -31.355    495.117    682.283    497.136    495.117    495.117
107.570    692.000    697.121     -5.121    494.990    694.906    497.149    494.990    494.990
107.670    665.642    709.481    -43.839    494.866    707.131    497.157    494.866    494.866
107.770    682.795    721.058    -38.263    494.746    718.587    497.156    494.746    494.746
107.870    751.000    731.468     19.532    494.629    728.895    497.140    494.629    494.629
107.970    756.000    740.354     15.646    494.515    737.704    497.105    494.515    494.515
108.070    733.694    747.432    -13.738    494.405    744.733    497.046    494.405    494.405
108.170    742.000    752.536    -10.536    494.299    749.819    496.960    494.299    494.299
108.270    758.000    755.656      2.344    494.196    752.951    496.848    494.196    494.196
108.370    766.000    756.945      9.055    494.097    754.284    496.709    494.097    494.097
108.470    704.000    756.705    -52.705    494.002    754.115    496.547    494.002    494.002
108.570    756.000    755.336      0.664    493.910    752.841    496.366    493.910    493.910
108.670    788.000    753.287     34.713    493.822    750.902    496.171    493.822    493.822
108.770    736.000    750.995    -14.995    493.738    748.734    495.968    493.738    493.738
108.870    790.058    748.850     41.208    493.658    746.719    495.762    493.658    493.658
108.970    770.727    747.166     23.561    493.581    745.168    495.557    493.581    493.581
109.070    731.000    746.162    -15.162    493.509    744.296    495.358    493.509    493.509
109.170    715.000    745.954    -30.954    493.440    744.214    495.167    493.440    493.440
109.270    743.763    746.549     -2.787    493.375    744.928    494.987    493.375    493.375
109.370    760.000    747.847     12.153    493.315    746.336    494.820    493.315    493.315
109.470    740.226    749.642     -9.416    493.259    748.232    494.667    493.259    493.259
109.570    745.008    751.636     -6.628    493.206    750.316    494.527    493.206    493.206
109.670    732.356    753.451    -21.096    493.158    752.213    494.401    493.158    493.158
109.770    733.315    754.664    -21.350    493.114    753.498    494.288    493.114    493.114
109.870    737.000    754.841    -17.841    493.075    753.740    494.186    493.075    493.075
109.970    732.000    753.593    -21.593    493.039    752.550    494.094    493.039    493.039
110.070    754.187    750.624      3.563    493.008    749.636    494.011    493.008    493.008
110.170    760.765    745.778     14.987    492.982    744.841    493.936    492.982    492.982
110.270    730.595    739.053     -8.458    492.960    738.166    493.865    492.960    492.960
110.370    713.000    730.594    -17.594    492.942    729.758    493.796    492.942    492.942
110.470    702.000    720.676    -18.676    492.929    719.885    493.739    492.929    492.929
110.570    673.000    709.624    -36.624    492.920    708.874    493.689    492.920    492.920
110.670    714.630    697.797     16.833    492.916    697.085    493.646    492.916    492.916
110.770    699.000    685.551     13.449    492.917    684.876    493.608    492.917    492.917
110.870    644.000    673.222    -29.222    492.922    672.581    493.578    492.922    492.922
110.970    691.818    661.108     30.710    492.932    660.499    493.555    492.932    492.932
111.070    661.000    649.466     11.534    492.947    648.885    493.539    492.947    492.947
111.170    643.453    638.507      4.946    492.967    637.953    493.531    492.967    492.967
111.270    641.310    628.395     12.915    492.991    627.864    493.530    492.991    492.991
111.370    637.498    619.252     18.247    493.021    618.740    493.538    493.021    493.021
111.470    642.000    611.165     30.835    493.055    610.671    493.554    493.055    493.055
111.570    604.000    604.168     -0.168    493.095    603.687    493.578    493.095    493.095
111.670    635.000    598.259     36.741    493.139    597.789    493.609    493.139    493.139
111.770    560.000    593.414    -33.414    493.189    592.952    493.649    493.189    493.189
111.870    570.800    589.580    -18.780    493.244    589.124    493.697    493.244    493.244
111.970    569.000    586.688    -17.688    493.304    586.235    493.752    493.304    493.304
112.070    585.000    584.655      0.345    493.369    584.204    493.815    493.369    493.369
112.170    525.000    583.395    -58.395    493.440    582.943    493.884    493.440    493.440
112.270    582.000    582.817     -0.817    493.515    582.362    493.961    493.515    493.515
112.370    609.000    582.834     26.166    493.597    582.376    494.044    493.597    493.597
112.470    605.205    583.364     21.841    493.683    582.903    494.134    493.683    493.683
112.570    620.000    584.335     35.665    493.776    583.869    494.230    493.776    493.776
112.670    602.000    585.682     16.318    493.873    585.212    494.331    493.873    493.873
112.770    560.000    587.353    -27.353    493.977    586.878    494.439    493.977    493.977
112.870    602.000    589.310     12.690    494.085    588.830    494.552    494.085    494.085
112.970    610.486    591.528     18.958    494.200    591.043    494.671    494.200    494.200
113.070    603.000    593.995      9.005    494.320    593.505    494.796    494.320    494.320
113.170    616.000    596.715     19.285    494.446    596.220    494.927    494.446    494.446
113.270    607.000    599.708      7.292    494.578    599.207    495.065    494.578    494.578
113.370    570.394    603.008    -32.613    494.716    602.499    495.209    494.716    494.716
113.470    589.000    606.663    -17.663    494.860    606.147    495.360    494.860    494.860
113.570    574.000    610.743    -36.743    495.009    610.217    495.519    495.009    495.009
113.670    573.410    615.338    -41.928    495.165    614.800    495.686    495.165    495.165
113.770    624.000    620.564      3.436    495.327    620.011    495.862    495.327    495.327
113.870    654.000    626.574     27.426    495.495    626.001    496.048    495.495    495.495
113.970    607.845    633.559    -25.714    495.669    632.963    496.244    495.669    495.669
114.070    663.600    641.769     21.831    495.849    641.144    496.452    495.849    495.849
114.170    610.698    651.517    -40.819    496.036    650.856    496.671    496.036    496.036
114.270    652.000    663.200    -11.200    496.228    662.495    496.905    496.228    496.228
114.370    694.000    677.313     16.687    496.428    676.556    497.152    496.428    496.428
114.470    698.587    694.470      4.117    496.633    693.651    497.415    496.633    496.633
114.570    697.000    715.421    -18.421    496.846    714.526    497.695    496.846    496.846
114.670    714.623    741.070    -26.447    497.064    740.088    497.993    497.064    497.064
114.770    747.000    772.496    -25.496    497.290    771.411    498.311    497.290    497.290
114.870    829.000    810.963     18.037    497.521    809.760    498.648    497.521    497.521
114.970    895.472    857.930     37.542    497.760    856.591    499.008    497.760    497.760
115.070    880.587    915.051    -34.465    498.005    913.558    499.389    498.005    498.005
115.170    950.816    984.165    -33.349    498.258    982.496    499.794    498.258    498.258
115.270   1063.723   1067.269     -3.545    498.517   1065.404    500.223    498.517    498.517
115.370   1191.204   1166.485     24.718    498.782   1164.404    500.676    498.782    498.782
115.470   1285.000   1284.002      0.998    499.055   1281.681    501.154    499.055    499.055
115.570   1420.000   1421.999     -1.999    499.335   1419.417    501.656    499.335    499.335
115.670   1494.000   1582.556    -88.556    499.622   1579.692    502.181    499.622    499.622
115.770   1841.440   1767.545     73.896    499.916   1764.379    502.729    499.916    499.916
115.870   1942.351   1978.506    -36.154    500.217   1975.021    503.299    500.217    500.217
115.970   2262.097   2216.515     45.582    500.526   2212.696    503.887    500.526    500.526
116.070   2521.368   2482.052     39.316    500.842   2477.885    504.493    500.842    500.842
116.170   2878.000   2774.861    103.139    501.165   2770.340    505.112    501.165    501.165
116.270   3084.000   3093.837     -9.837    501.495   3088.959    505.742    501.495    501.495
116.370   3341.356   3436.919    -95.563    501.833   3431.686    506.379    501.833    501.833
116.470   3715.431   3801.017    -85.586    502.179   3795.437    507.020    502.179    502.179
116.570   4157.000   4181.962    -24.962    502.531   4176.047    507.661    502.531    502.531
116.670   4568.319   4574.494     -6.175    502.892   4568.261    508.300    502.892    502.892
116.770   4795.000   4972.249   -177.249    503.260   4965.722    508.933    503.260    503.260
116.870   5234.000   5368.006   -134.006    503.636   5361.210    509.560    503.636    503.636
116.970   5605.000   5753.522   -148.522    504.020   5746.483    510.181    504.020    504.020
117.070   6097.780   6119.841    -22.061    504.412   6112.593    510.792    504.412    504.412
117.170   6360.000   6457.519    -97.519    504.811   6450.094    511.394    504.811    504.811
117.270   6784.683   6756.931     27.752    505.219   6749.364    511.986    505.219    505.219
117.370   6860.000   7008.715   -148.715    505.634   7001.044    512.565    505.634    505.634
117.470   7298.000   7204.336     93.664    506.058   7196.598    513.131    506.058    506.058
117.570   7332.000   7336.736     -4.736    506.490   7328.969    513.681    506.490    506.490
117.670   7480.000   7400.973     79.027    506.930   7393.213    514.213    506.930    506.930
117.770   7263.768   7394.742   -130.974    507.378   7387.022    514.726    507.378    507.378
117.870   7174.184   7318.624   -144.440    507.834   7310.975    515.219    507.834    507.834
117.970   7291.383   7176.017    115.366    508.299   7168.467    515.690    508.299    508.299
118.070   7131.000   6972.754    158.246    508.773   6965.327    516.140    508.773    508.773
118.170   6728.000   6716.519     11.481    509.254   6709.234    516.566    509.254    509.254
118.270   6432.000   6416.177     15.823    509.745   6409.056    516.970    509.745    509.745
118.370   5988.000   6081.161    -93.161    510.244   6074.222    517.352    510.244    510.244
118.470   5608.000   5720.953   -112.953    510.751   5714.212    517.710    510.751    510.751
118.570   5216.000   5344.690   -128.690    511.268   5338.165    518.048    511.268    511.268
118.670   4941.059   4960.886    -19.827    511.793   4954.593    518.366    511.793    511.793
118.770   4631.000   4577.231     53.769    512.327   4571.182    518.667    512.327    512.327
118.870   4165.301   4200.457    -35.156    512.870   4194.665    518.956    512.870    512.870
118.970   3796.828   3836.258    -39.430    513.421   3830.731    519.236    513.421    513.421
119.070   3545.396   3489.248     56.148    513.982   3483.991    519.513    513.982    513.982
119.170   3173.841   3162.965     10.876    514.552   3157.979    519.792    514.552    514.552
119.270   2875.000   2859.914     15.086    515.132   2855.196    520.079    515.132    515.132
119.370   2647.000   2581.639     65.361    515.720   2577.183    520.379    515.720    515.720
119.470   2417.000   2328.831     88.169    516.318   2324.627    520.696    516.318    516.318
119.570   2142.000   2101.446     40.554    516.925   2097.482    521.036    516.925    516.925
119.670   1966.000   1898.832     67.168    517.541   1895.092    521.401    517.541    517.541
119.770   1734.000   1719.861     14.139    518.167   1716.327    521.796    518.167    518.167
119.870   1554.483   1563.049     -8.567    518.802   1559.700    522.223    518.802    518.802
119.970   1432.604   1426.668      5.936    519.447   1423.481    522.686    519.447    519.447
120.070   1288.394   1308.844    -20.450    520.102   1305.795    523.186    520.102    520.102
120.170   1228.000   1207.650     20.350    520.766   1204.713    523.724    520.766    520.766
120.270   1161.000   1121.175     39.825    521.440   1118.321    524.303    521.440    521.440
120.370   1078.355   1047.581     30.774    522.124   1044.782    524.924    522.124    522.124
120.470   1039.000    985.153     53.847    522.818    982.378    525.587    522.818    522.818
120.570    916.968    932.322    -15.354    523.522    929.540    526.292    523.522    523.522
120.670    931.388    887.684     43.703    524.236    884.864    527.042    524.236    524.236
120.770    875.403    850.007     25.396    524.960    847.116    527.835    524.960    524.960
120.870    859.967    818.224     41.743    525.695    815.229    528.673    525.695    525.695
120.970    797.000    791.428      5.572    526.439    788.295    529.556    526.439    526.439
121.070    803.000    768.854     34.146    527.194    765.548    530.485    527.194    527.194
121.170    734.000    749.866    -15.866    527.959    746.351    531.460    527.959    527.959
121.270    745.000    733.937     11.063    528.735    730.177    532.484    528.735    528.735
121.370    706.000    720.637    -14.637    529.521    716.592    533.555    529.521    529.521
121.470    724.000    709.611     14.389    530.318    705.243    534.677    530.318    530.318
121.570    743.401    700.572     42.829    531.125    695.841    535.849    531.125    531.125
121.670    637.000    693.284    -56.284    531.943    688.149    537.073    531.943    531.943
121.770    620.000    687.555    -67.555    532.772    681.972    538.351    532.772    532.772
121.870    731.389    683.224     48.165    533.612    677.150    539.684    533.612    533.612
121.970    690.183    680.157     10.026    534.462    673.546    541.074    534.462    534.462
122.070    659.000    678.240    -19.240    535.324    671.044    542.521    535.324    535.324
122.170    639.000    677.372    -38.372    536.196    669.543    544.027    536.196    536.196
122.270    685.000    677.463      7.537    537.080    668.953    545.594    537.080    537.080
122.370    650.000    678.431    -28.431    537.975    669.190    547.221    537.975    537.975
122.470    697.709    680.195     17.514    538.881    670.175    548.909    538.881    538.881
122.570    656.000    682.677    -26.677    539.799    671.828    550.656    539.799    539.799
122.670    672.000    685.795    -13.795    540.728    674.074    552.460    540.728    540.728
122.770    685.000    689.467     -4.467    541.668    676.832    554.316    541.668    541.668
122.870    635.000    693.603    -58.603    542.620    680.019    556.219    542.620    542.620
122.970    670.000    698.109    -28.109    543.584    683.549    558.161    543.584    543.584
123.070    679.000    702.885    -23.885    544.559    687.330    560.133    544.559    544.559
123.170    732.896    707.824     25.072    545.546    691.267    562.124    545.546    545.546
123.270    700.000    712.810    -12.810    546.545    695.259    564.120    546.545    546.545
123.370    739.000    717.723     21.277    547.555    699.199    566.106    547.555    547.555
123.470    754.322    722.441     31.881    548.578    702.981    568.067    548.578    548.578
123.570    704.200    726.836    -22.636    549.612    706.495    569.986    549.612    549.612
123.670    675.000    730.783    -55.783    550.659    709.633    571.844    550.659    550.659
123.770    760.000    734.165     25.835    551.718    712.295    573.625    551.718    551.718
123.870    784.000    736.873     47.127    552.789    714.390    575.312    552.789    552.789
123.970    735.000    738.819     -3.819    553.873    715.842    576.891    553.873    553.873
124.070    762.000    739.935     22.065    554.969    716.597    578.350    554.969    554.969
124.170    775.000    740.174     34.826    556.077    716.612    579.683    556.077    556.077
124.270    776.000    739.510     36.490    557.198    715.869    580.883    557.198    557.198
124.370    719.000    738.018    -19.018    558.332    714.442    581.953    558.332    558.332
124.470    764.000    735.710     28.290    559.478    712.339    582.894    559.478    559.478
124.570    776.000    732.646     43.354    560.637    709.614    583.713    560.637    560.637
124.670    757.000    728.899     28.101    561.809    706.335    584.417    561.809    561.809
124.770    711.000    724.558    -13.558    562.993    702.578    585.016    562.993    562.993
124.870    804.000    719.712     84.288    564.191    698.424    585.521    564.191    564.191
124.970    756.000    714.457     41.543    565.402    693.955    585.944    565.402    565.402
