neutron_powder_diffraction_0119
R_wp: 3.900
Temperature (K): 982.115
Counts: 83379.00
Wavelength (Ã…): 2.52098
COMMENTS
Test file for demonstrating the .xyy file format in Reel1.0
END OF HEADER
   tth       Y_obs     Y_calc      Y_res    Background    Phase_1_Nuc    Phase_1_Mag    Phase_2_Nuc    Phase_2_Mag
  9.970    624.000    562.911     61.089    561.790    562.795    561.790    561.905    561.790
 10.070    585.000    563.142     21.858    561.934    563.026    561.934    562.050    561.934
 10.170    549.621    563.379    -13.759    562.072    563.263    562.072    562.188    562.072
 10.270    602.000    563.626     38.374    562.203    563.508    562.203    562.320    562.203
 10.370    548.406    563.884    -15.478    562.329    563.766    562.329    562.446    562.329
 10.470    580.775    564.159     16.617    562.448    564.040    562.448    562.566    562.448
 10.570    614.000    564.455     49.545    562.561    564.336    562.561    562.679    562.561
 10.670    608.000    564.780     43.220    562.668    564.661    562.668    562.786    562.668
 10.770    558.923    565.143     -6.220    562.769    565.023    562.769    562.888    562.769
 10.870    557.000    565.558     -8.558    562.864    565.437    562.864    562.983    562.864
 10.970    600.000    566.040     33.960    562.953    565.919    562.953    563.073    562.953
 11.070    612.786    566.617     46.170    563.036    566.494    563.036    563.156    563.036
 11.170    580.000    567.323     12.677    563.113    567.200    563.113    563.234    563.113
 11.270    568.084    568.220     -0.135    563.185    568.095    563.185    563.307    563.185
 11.370    615.000    569.414     45.586    563.251    569.289    563.251    563.373    563.251
 11.470    600.000    571.135     28.865    563.311    571.008    563.311    563.434    563.311
 11.570    569.879    573.926     -4.047    563.366    573.797    563.366    563.490    563.366
 11.670    636.000    578.951     57.049    563.416    578.819    563.416    563.539    563.416
 11.770    575.498    588.243    -12.745    563.459    588.105    563.459    563.584    563.459
 11.870    565.643    604.337    -38.694    563.498    604.189    563.498    563.623    563.498
 11.970    668.000    628.623     39.377    563.531    628.461    563.531    563.656    563.531
 12.070    645.000    658.206    -13.206    563.559    658.027    563.559    563.685    563.559
 12.170    647.000    682.643    -35.643    563.581    682.450    563.581    563.708    563.581
 12.270    676.000    687.359    -11.359    563.599    687.162    563.599    563.726    563.599
 12.370    648.000    668.547    -20.547    563.611    668.361    563.611    563.738    563.611
 12.470    621.264    638.936    -17.672    563.618    638.766    563.618    563.746    563.618
 12.570    625.000    611.992     13.008    563.620    611.837    563.620    563.749    563.620
 12.670    619.000    593.028     25.972    563.617    592.882    563.617    563.746    563.617
 12.770    520.000    581.685    -61.685    563.609    581.545    563.609    563.739    563.609
 12.870    582.000    575.516      6.484    563.596    575.379    563.596    563.727    563.596
 12.970    527.447    572.188    -44.740    563.579    572.052    563.579    563.710    563.579
 13.070    605.808    570.236     35.573    563.556    570.100    563.556    563.688    563.556
 13.170    534.000    568.945    -34.945    563.529    568.809    563.529    563.661    563.529
 13.270    527.554    568.007    -40.453    563.497    567.871    563.497    563.630    563.497
 13.370    566.000    567.287     -1.287    563.460    567.151    563.460    563.594    563.460
 13.470    567.337    566.714      0.622    563.419    566.578    563.419    563.554    563.419
 13.570    564.000    566.248     -2.248    563.374    566.111    563.374    563.509    563.374
 13.670    581.000    565.860     15.140    563.323    565.723    563.323    563.459    563.323
 13.770    559.324    565.531     -6.206    563.269    565.393    563.269    563.405    563.269
 13.870    539.000    565.244    -26.244    563.210    565.106    563.210    563.347    563.210
 13.970    607.531    564.990     42.541    563.146    564.851    563.146    563.284    563.146
 14.070    591.000    564.762     26.238    563.079    564.622    563.079    563.217    563.079
 14.170    617.000    564.554     52.446    563.007    564.414    563.007    563.146    563.007
 14.270    534.000    564.361    -30.361    562.930    564.220    562.930    563.070    562.930
 14.370    575.696    564.180     11.517    562.850    564.039    562.850    562.991    562.850
 14.470    529.000    564.008    -35.008    562.766    563.866    562.766    562.907    562.766
 14.570    554.188    563.843     -9.655    562.677    563.701    562.677    562.819    562.677
 14.670    557.000    563.684     -6.684    562.584    563.541    562.584    562.727    562.584
 14.770    500.000    563.529    -63.529    562.488    563.385    562.488    562.631    562.488
 14.870    574.000    563.376     10.624    562.387    563.232    562.387    562.531    562.387
 14.970    570.000    563.226      6.774    562.283    563.081    562.283    562.428    562.283
 15.070    545.000    563.079    -18.079    562.175    562.933    562.175    562.320    562.175
 15.170    548.831    562.931    -14.100    562.063    562.784    562.063    562.209    562.063
 15.270    539.774    562.783    -23.009    561.947    562.635    561.947    562.094    561.947
 15.370    575.743    562.634     13.109    561.827    562.486    561.827    561.975    561.827
 15.470    537.417    562.485    -25.068    561.704    562.335    561.704    561.853    561.704
 15.570    543.000    562.334    -19.334    561.577    562.184    561.577    561.727    561.577
 15.670    604.942    562.183     42.759    561.447    562.032    561.447    561.597    561.447
 15.770    536.000    562.030    -26.030    561.313    561.878    561.313    561.464    561.313
 15.870    569.000    561.875      7.125    561.175    561.723    561.175    561.328    561.175
 15.970    600.678    561.719     38.959    561.035    561.565    561.035    561.188    561.035
 16.070    565.000    561.560      3.440    560.890    561.406    560.890    561.044    560.890
 16.170    548.000    561.403    -13.403    560.743    561.248    560.743    560.897    560.743
 16.270    588.000    561.265     26.735    560.592    561.109    560.592    560.747    560.592
 16.370    552.286    561.103     -8.817    560.437    560.947    560.437    560.594    560.437
 16.470    568.884    560.937      7.947    560.280    560.779    560.280    560.437    560.280
 16.570    543.000    560.769    -17.769    560.119    560.610    560.119    560.278    560.119
 16.670    542.000    560.598    -18.598    559.955    560.438    559.955    560.115    559.955
 16.770    571.580    560.425     11.155    559.788    560.264    559.788    559.949    559.788
 16.870    567.000    560.249      6.751    559.618    560.088    559.618    559.780    559.618
 16.970    562.000    560.072      1.928    559.445    559.909    559.445    559.608    559.445
 17.070    535.000    559.892    -24.892    559.269    559.728    559.269    559.433    559.269
 17.170    575.303    559.709     15.593    559.090    559.545    559.090    559.255    559.090
 17.270    477.000    559.525    -82.525    558.908    559.359    558.908    559.074    558.908
 17.370    567.000    559.338      7.662    558.724    559.171    558.724    558.890    558.724
 17.470    556.908    559.151     -2.243    558.536    558.984    558.536    558.704    558.536
 17.570    552.000    558.962     -6.962    558.346    558.793    558.346    558.514    558.346
 17.670    569.000    558.769     10.231    558.152    558.599    558.152    558.322    558.152
 17.770    571.783    558.573     13.210    557.957    558.402    557.957    558.128    557.957
 17.870    552.551    558.375     -5.824    557.758    558.203    557.758    557.930    557.758
 17.970    551.000    558.174     -7.174    557.557    558.001    557.557    557.730    557.557
 18.070    556.000    557.977     -1.977    557.353    557.803    557.353    557.528    557.353
 18.170    570.389    557.829     12.560    557.147    557.653    557.147    557.323    557.147
 18.270    596.000    557.678     38.322    556.938    557.501    556.938    557.115    556.938
 18.370    513.000    557.474    -44.474    556.727    557.296    556.727    556.905    556.727
 18.470    567.000    557.264      9.736    556.513    557.084    556.513    556.692    556.513
 18.570    544.000    557.052    -13.052    556.297    556.871    556.297    556.478    556.297
 18.670    552.000    556.841     -4.841    556.078    556.659    556.078    556.260    556.078
 18.770    535.000    556.628    -21.628    555.857    556.444    555.857    556.041    555.857
 18.870    547.482    556.410     -8.928    555.634    556.225    555.634    555.819    555.634
 18.970    565.000    556.190      8.810    555.409    556.003    555.409    555.595    555.409
 19.070    542.277    555.968    -13.691    555.181    555.780    555.181    555.369    555.181
 19.170    525.000    555.744    -30.744    554.951    555.555    554.951    555.141    554.951
 19.270    549.000    555.519     -6.519    554.719    555.329    554.719    554.910    554.719
 19.370    563.000    555.292      7.708    554.485    555.100    554.485    554.677    554.485
 19.470    558.000    555.064      2.936    554.249    554.870    554.249    554.443    554.249
 19.570    559.819    554.834      4.985    554.011    554.638    554.011    554.206    554.011
 19.670    580.771    554.602     26.169    553.771    554.405    553.771    553.968    553.771
 19.770    539.916    554.371    -14.455    553.529    554.172    553.529    553.727    553.529
 19.870    562.000    554.157      7.843    553.285    553.957    553.285    553.485    553.285
 19.970    559.000    553.970      5.030    553.039    553.769    553.039    553.240    553.039
 20.070    513.052    553.739    -40.687    552.791    553.535    552.791    552.994    552.791
 20.170    546.000    553.505     -7.505    552.541    553.299    552.541    552.746    552.541
 20.270    529.000    553.267    -24.267    552.289    553.060    552.289    552.497    552.289
 20.370    571.327    553.027     18.299    552.036    552.818    552.036    552.245    552.036
 20.470    526.000    552.786    -26.786    551.781    552.575    551.781    551.992    551.781
 20.570    524.000    552.545    -28.545    551.525    552.332    551.525    551.738    551.525
 20.670    544.652    552.303     -7.650    551.266    552.087    551.266    551.481    551.266
 20.770    543.000    552.060     -9.060    551.006    551.843    551.006    551.223    551.006
 20.870    543.000    551.818     -8.818    550.745    551.599    550.745    550.964    550.745
 20.970    579.192    551.574     27.618    550.481    551.352    550.481    550.703    550.481
 21.070    538.000    551.330    -13.330    550.217    551.106    550.217    550.441    550.217
 21.170    526.517    551.085    -24.568    549.951    550.859    549.951    550.177    549.951
 21.270    550.000    550.841     -0.841    549.683    550.612    549.683    549.911    549.683
 21.370    511.000    550.599    -39.599    549.414    550.369    549.414    549.645    549.414
 21.470    513.874    550.366    -36.492    549.143    550.132    549.143    549.377    549.143
 21.570    586.000    550.140     35.860    548.871    549.905    548.871    549.107    548.871
 21.670    547.000    549.960     -2.960    548.598    549.722    548.598    548.837    548.598
 21.770    546.032    549.728     -3.696    548.324    549.487    548.324    548.565    548.324
 21.870    528.000    549.489    -21.489    548.048    549.245    548.048    548.292    548.048
 21.970    523.000    549.251    -26.251    547.771    549.004    547.771    548.018    547.771
 22.070    544.547    549.015     -4.468    547.492    548.765    547.492    547.742    547.492
 22.170    556.000    548.782      7.218    547.213    548.529    547.213    547.466    547.213
 22.270    495.000    548.552    -53.552    546.932    548.296    546.932    547.189    546.932
 22.370    549.000    548.326      0.674    546.650    548.067    546.650    546.910    546.650
 22.470    560.848    548.105     12.743    546.367    547.842    546.367    546.631    546.367
 22.570    517.965    547.890    -29.925    546.083    547.623    546.083    546.350    546.083
 22.670    572.000    547.681     24.319    545.798    547.411    545.798    546.069    545.798
 22.770    508.000    547.482    -39.482    545.512    547.208    545.512    545.787    545.512
 22.870    567.000    547.298     19.702    545.225    547.021    545.225    545.503    545.225
 22.970    562.912    547.145     15.766    544.937    546.864    544.937    545.220    544.937
 23.070    539.000    546.988     -7.988    544.648    546.702    544.648    544.935    544.648
 23.170    546.000    546.860     -0.860    544.359    546.570    544.359    544.649    544.359
 23.270    550.000    546.808      3.192    544.068    546.513    544.068    544.363    544.068
 23.370    520.000    546.735    -26.735    543.776    546.436    543.776    544.077    543.776
 23.470    570.000    546.691     23.309    543.484    546.387    543.484    543.789    543.484
 23.570    587.000    546.702     40.298    543.191    546.393    543.191    543.501    543.191
 23.670    543.000    546.814     -3.814    542.897    546.500    542.897    543.213    542.897
 23.770    532.000    547.018    -15.018    542.602    546.699    542.602    542.924    542.602
 23.870    546.000    547.333     -1.333    542.307    547.009    542.307    542.634    542.307
 23.970    567.000    547.873     19.127    542.011    547.543    542.011    542.344    542.011
 24.070    530.802    548.799    -17.997    541.714    548.464    541.714    542.054    541.714
 24.170    578.398    550.522     27.876    541.417    550.181    541.417    541.763    541.417
 24.270    593.000    553.858     39.142    541.119    553.512    541.119    541.472    541.119
 24.370    560.275    560.174      0.102    540.821    559.826    540.821    541.181    540.821
 24.470    592.000    571.056     20.944    540.522    570.708    540.522    540.890    540.522
 24.570    609.000    587.190     21.810    540.222    586.846    540.222    540.599    540.222
 24.670    575.000    606.389    -31.389    539.922    606.050    539.922    540.307    539.922
 24.770    614.389    621.680     -7.292    539.622    621.344    539.622    540.016    539.622
 24.870    666.945    623.938     43.007    539.321    623.594    539.321    539.724    539.321
 24.970    603.000    611.194     -8.194    539.019    610.831    539.019    539.433    539.019
 25.070    565.000    591.571    -26.571    538.717    591.183    538.717    539.142    538.717
 25.170    569.000    573.564     -4.564    538.415    573.152    538.415    538.851    538.415
 25.270    575.000    560.631     14.369    538.113    560.198    538.113    538.560    538.113
 25.370    553.000    552.666      0.334    537.810    552.215    537.810    538.270    537.810
 25.470    573.000    548.169     24.831    537.507    547.700    537.507    537.981    537.507
 25.570    574.886    545.634     29.252    537.203    545.150    537.203    537.692    537.203
 25.670    567.000    544.079     22.921    536.900    543.578    536.900    537.403    536.900
 25.770    586.898    543.006     43.892    536.596    542.488    536.596    537.116    536.596
 25.870    584.000    542.195     41.805    536.291    541.659    536.291    536.829    536.291
 25.970    546.000    541.551      4.449    535.987    540.996    535.987    536.544    535.987
 26.070    563.000    541.027     21.973    535.683    540.451    535.683    536.260    535.683
 26.170    584.000    540.597     43.403    535.378    539.999    535.378    535.977    535.378
 26.270    527.938    540.241    -12.303    535.073    539.619    535.073    535.696    535.073
 26.370    541.000    539.951      1.049    534.768    539.304    534.768    535.417    534.768
 26.470    558.000    539.723     18.277    534.464    539.047    534.464    535.140    534.464
 26.570    558.000    539.554     18.446    534.159    538.848    534.159    534.865    534.159
 26.670    563.000    539.447     23.553    533.854    538.708    533.854    534.593    533.854
 26.770    525.000    539.407    -14.407    533.549    538.632    533.549    534.324    533.549
 26.870    573.762    539.445     34.317    533.244    538.631    533.244    534.058    533.244
 26.970    548.000    539.575      8.425    532.939    538.717    532.939    533.796    532.939
 27.070    582.664    539.819     42.845    532.634    538.914    532.634    533.539    532.634
 27.170    542.000    540.209      1.791    532.329    539.251    532.329    533.287    532.329
 27.270    535.000    540.792     -5.792    532.024    539.775    532.024    533.040    532.024
 27.370    574.174    541.642     32.533    531.720    540.559    531.720    532.801    531.720
 27.470    521.412    542.893    -21.481    531.415    541.737    531.415    532.569    531.415
 27.570    572.000    544.898     27.102    531.111    543.660    531.111    532.347    531.111
 27.670    545.000    548.900     -3.900    530.807    547.568    530.807    532.135    530.807
 27.770    602.321    559.063     43.258    530.503    557.623    530.503    531.937    530.503
 27.870    623.000    585.912     37.088    530.199    584.341    530.199    531.753    530.199
 27.970    623.543    646.197    -22.654    529.896    644.468    529.896    531.587    529.896
 28.070    752.000    749.175      2.825    529.592    747.256    529.592    531.443    529.592
 28.170    892.000    870.688     21.312    529.290    868.559    529.290    531.324    529.290
 28.270    972.085    944.987     27.098    528.987    942.644    528.987    531.235    528.987
 28.370    860.827    918.367    -57.540    528.685    915.806    528.685    531.181    528.685
 28.470    826.288    821.108      5.179    528.383    818.294    528.383    531.168    528.383
 28.570    720.000    730.106    -10.106    528.081    726.972    528.081    531.203    528.081
 28.670    684.000    697.289    -13.289    527.780    693.765    527.780    531.293    527.780
 28.770    678.715    727.265    -48.550    527.479    723.283    527.479    531.443    527.479
 28.870    797.000    787.563      9.437    527.178    783.061    527.178    531.659    527.178
 28.970    819.000    825.355     -6.355    526.878    820.276    526.878    531.944    526.878
 29.070    787.000    802.550    -15.550    526.579    796.837    526.579    532.294    526.579
 29.170    738.000    733.605      4.395    526.280    727.201    526.280    532.696    526.280
 29.270    672.401    658.610     13.791    525.981    651.481    525.981    533.124    525.981
 29.370    557.000    603.418    -46.418    525.683    595.581    525.683    533.530    525.683
 29.470    608.000    572.079     35.921    525.385    563.618    525.385    533.852    525.385
 29.570    554.000    557.198     -3.198    525.088    548.273    525.088    534.015    525.088
 29.670    580.000    550.509     29.491    524.792    541.348    524.792    533.953    524.792
 29.770    541.000    547.053     -6.053    524.496    537.921    524.496    533.628    524.496
 29.870    527.143    544.737    -17.594    524.200    535.892    524.200    533.045    524.200
 29.970    526.699    542.887    -16.187    523.906    534.541    523.906    532.251    523.906
 30.070    507.081    541.338    -34.257    523.611    533.634    523.611    531.315    523.611
 30.170    575.000    540.118     34.882    523.318    533.125    523.318    530.310    523.318
 30.270    604.000    539.400     64.600    523.025    533.127    523.025    529.297    523.025
 30.370    551.000    539.643     11.357    522.733    534.056    522.733    528.316    522.733
 30.470    537.385    541.851     -4.466    522.441    536.895    522.441    527.391    522.441
 30.570    516.000    547.684    -31.684    522.150    543.289    522.150    526.534    522.150
 30.670    520.361    558.830    -38.469    521.860    554.926    521.860    525.745    521.860
 30.770    523.000    575.275    -52.275    521.571    571.793    521.571    525.021    521.571
 30.870    619.000    593.028     25.972    521.282    589.910    521.282    524.357    521.282
 30.970    648.649    603.461     45.188    520.994    600.661    520.994    523.747    520.994
 31.070    627.000    599.269     27.731    520.707    596.751    520.707    523.183    520.707
 31.170    575.877    583.162     -7.285    520.420    580.892    520.420    522.660    520.420
 31.270    614.000    564.025     49.975    520.135    561.970    520.135    522.170    520.135
 31.370    540.000    548.450     -8.450    519.850    546.578    519.850    521.710    519.850
 31.470    551.163    538.391     12.771    519.566    536.676    519.566    521.276    519.566
 31.570    519.663    532.854    -13.191    519.283    531.272    519.283    520.862    519.283
 31.670    538.000    530.039      7.961    519.000    528.571    519.000    520.466    519.000
 31.770    505.265    528.568    -23.302    518.719    527.200    518.719    520.085    518.719
 31.870    494.534    527.706    -33.172    518.438    526.426    518.438    519.717    518.438
 31.970    565.000    527.148     37.852    518.159    525.945    518.159    519.361    518.159
 32.070    530.454    526.780      3.673    517.880    525.645    517.880    519.014    517.880
 32.170    546.000    526.562     19.438    517.602    525.487    517.602    518.676    517.602
 32.270    531.744    526.480      5.264    517.325    525.459    517.325    518.345    517.325
 32.370    565.000    526.532     38.468    517.049    525.560    517.049    518.021    517.049
 32.470    542.000    526.729     15.271    516.774    525.800    516.774    517.702    516.774
 32.570    569.000    527.088     41.912    516.500    526.199    516.500    517.389    516.500
 32.670    504.000    527.640    -23.640    516.227    526.786    516.227    517.080    516.227
 32.770    504.051    528.429    -24.378    515.955    527.607    515.955    516.776    515.955
 32.870    567.435    529.518     37.917    515.684    528.725    515.684    516.476    515.684
 32.970    548.000    531.004     16.996    515.414    530.237    515.414    516.179    515.414
 33.070    534.000    533.038      0.962    515.145    532.295    515.145    515.886    515.145
 33.170    559.000    535.907     23.093    514.877    535.186    514.877    515.596    514.877
 33.270    520.000    540.253    -20.253    514.610    539.551    514.610    515.309    514.610
 33.370    536.455    547.640    -11.185    514.344    546.956    514.344    515.025    514.344
 33.470    561.000    561.622     -0.622    514.080    560.952    514.080    514.743    514.080
 33.570    578.552    588.919    -10.367    513.816    588.260    513.816    514.464    513.816
 33.670    675.845    639.105     36.740    513.553    638.452    513.553    514.187    513.553
 33.770    734.000    720.414     13.586    513.292    719.763    513.292    513.913    513.292
 33.870    835.000    830.843      4.157    513.031    830.193    513.031    513.641    513.031
 33.970    988.000    947.193     40.807    512.772    946.549    512.772    513.371    512.772
 34.070    999.000   1021.663    -22.663    512.514   1021.038    512.514    513.102    512.514
 34.170   1107.000   1010.753     96.247    512.257   1010.157    512.257    512.836    512.257
 34.270    871.000    921.903    -50.903    512.001    921.332    512.001    512.572    512.001
 34.370    794.000    803.463     -9.463    511.747    802.908    511.747    512.310    511.747
 34.470    653.000    698.083    -45.083    511.493    697.536    511.493    512.049    511.493
 34.570    604.000    623.469    -19.469    511.241    622.925    511.241    511.790    511.241
 34.670    594.000    578.522     15.478    510.990    577.982    510.990    511.533    510.990
 34.770    544.321    554.205     -9.884    510.740    553.668    510.740    511.278    510.740
 34.870    584.794    541.451     43.343    510.491    540.919    510.491    511.024    510.491
 34.970    516.722    534.314    -17.592    510.244    533.786    510.244    510.773    510.244
 35.070    508.856    529.775    -20.919    509.998    529.251    509.998    510.522    509.998
 35.170    549.474    526.528     22.946    509.753    526.007    509.753    510.274    509.753
 35.270    480.225    524.032    -43.807    509.509    523.514    509.509    510.027    509.509
 35.370    552.070    522.036     30.034    509.267    521.521    509.267    509.781    509.267
 35.470    552.000    520.402     31.598    509.025    519.889    509.025    509.538    509.025
 35.570    490.000    519.038    -29.038    508.785    518.527    508.785    509.296    508.785
 35.670    554.000    517.882     36.118    508.547    517.373    508.547    509.055    508.547
 35.770    483.000    516.888    -33.888    508.309    516.382    508.309    508.816    508.309
 35.870    549.000    516.025     32.975    508.073    515.520    508.073    508.579    508.073
 35.970    524.653    515.267      9.387    507.839    514.763    507.839    508.343    507.839
 36.070    527.000    514.595     12.405    507.605    514.092    507.605    508.109    507.605
 36.170    532.000    513.997     18.003    507.373    513.494    507.373    507.876    507.373
 36.270    529.246    513.461     15.785    507.142    512.959    507.142    507.645    507.142
 36.370    546.035    512.981     33.054    506.913    512.479    506.913    507.415    506.913
 36.470    512.000    512.551     -0.551    506.685    512.049    506.685    507.187    506.685
 36.570    519.998    512.170      7.828    506.458    511.668    506.458    506.960    506.458
 36.670    531.000    511.838     19.162    506.233    511.336    506.233    506.736    506.233
 36.770    496.261    511.563    -15.302    506.009    511.060    506.009    506.512    506.009
 36.870    521.000    511.364      9.636    505.786    510.861    505.786    506.290    505.786
 36.970    533.000    511.288     21.712    505.565    510.783    505.565    506.070    505.565
 37.070    533.866    511.426     22.440    505.345    510.921    505.345    505.851    505.345
 37.170    509.000    511.940     -2.940    505.126    511.433    505.126    505.634    505.126
 37.270    530.653    513.043     17.610    504.909    512.534    504.909    505.419    504.909
 37.370    507.603    514.922     -7.319    504.694    514.412    504.694    505.205    504.694
 37.470    476.000    517.589    -41.589    504.479    517.078    504.479    504.992    504.479
 37.570    566.000    520.669     45.331    504.266    520.158    504.266    504.781    504.266
 37.670    544.960    523.237     21.722    504.055    522.725    504.055    504.572    504.055
 37.770    540.345    524.083     16.262    503.845    523.570    503.845    504.364    503.845
 37.870    555.000    522.728     32.272    503.636    522.215    503.636    504.158    503.636
 37.970    523.000    519.957      3.043    503.429    519.443    503.429    503.954    503.429
 38.070    503.000    516.813    -13.813    503.223    516.297    503.223    503.751    503.223
 38.170    510.959    513.884     -2.926    503.019    513.364    503.019    503.549    503.019
 38.270    554.214    511.452     42.762    502.816    510.927    502.816    503.349    502.816
 38.370    529.000    509.614     19.386    502.615    509.083    502.615    503.151    502.615
 38.470    528.000    508.313     19.687    502.415    507.777    502.415    502.955    502.415
 38.570    511.000    507.418      3.582    502.216    506.877    502.216    502.760    502.216
 38.670    523.000    506.793     16.207    502.019    506.248    502.019    502.567    502.019
 38.770    510.000    506.335      3.665    501.824    505.785    501.824    502.375    501.824
 38.870    501.000    505.979     -4.979    501.630    505.425    501.630    502.185    501.630
 38.970    488.000    505.681    -17.681    501.437    505.122    501.437    501.996    501.437
 39.070    524.559    505.419     19.140    501.246    504.855    501.246    501.810    501.246
 39.170    514.000    505.181      8.819    501.056    504.613    501.056    501.625    501.056
 39.270    527.113    504.961     22.152    500.868    504.389    500.868    501.441    500.868
 39.370    502.000    504.757     -2.757    500.682    504.180    500.682    501.259    500.682
 39.470    546.828    504.567     42.261    500.496    503.984    500.496    501.079    500.496
 39.570    529.000    504.388     24.612    500.313    503.800    500.313    500.901    500.313
 39.670    534.000    504.220     29.780    500.131    503.627    500.131    500.724    500.131
 39.770    516.000    504.063     11.937    499.950    503.465    499.950    500.549    499.950
 39.870    508.000    503.916      4.084    499.771    503.312    499.771    500.376    499.771
 39.970    523.488    503.780     19.708    499.593    503.170    499.593    500.204    499.593
 40.070    511.000    503.654      7.346    499.417    503.037    499.417    500.034    499.417
 40.170    530.000    503.539     26.461    499.242    502.916    499.242    499.866    499.242
 40.270    490.000    503.435    -13.435    499.069    502.806    499.069    499.699    499.069
 40.370    499.518    503.345     -3.827    498.898    502.709    498.898    499.534    498.898
 40.470    485.685    503.268    -17.583    498.728    502.625    498.728    499.371    498.728
 40.570    467.000    503.207    -36.207    498.559    502.557    498.559    499.210    498.559
 40.670    497.000    503.163     -6.163    498.392    502.506    498.392    499.050    498.392
 40.770    501.000    503.140     -2.140    498.227    502.475    498.227    498.893    498.227
 40.870    538.253    503.140     35.113    498.063    502.467    498.063    498.737    498.063
 40.970    513.528    503.168     10.360    497.901    502.488    497.901    498.582    497.901
 41.070    472.000    503.230    -31.230    497.740    502.541    497.740    498.430    497.740
 41.170    472.000    503.333    -31.333    497.581    502.635    497.581    498.279    497.581
 41.270    516.000    503.487     12.513    497.423    502.780    497.423    498.131    497.423
 41.370    478.000    503.705    -25.705    497.267    502.989    497.267    497.984    497.267
 41.470    521.621    504.006     17.616    497.112    503.281    497.112    497.839    497.112
 41.570    441.000    504.420    -63.420    496.959    503.686    496.959    497.695    496.959
 41.670    470.000    505.002    -35.002    496.807    504.257    496.807    497.554    496.807
 41.770    497.000    505.860     -8.860    496.657    505.106    496.657    497.415    496.657
 41.870    482.000    507.232    -25.232    496.509    506.467    496.509    497.277    496.509
 41.970    510.000    509.599      0.401    496.362    508.824    496.362    497.141    496.362
 42.070    527.691    513.828     13.863    496.216    513.043    496.216    497.008    496.216
 42.170    559.624    521.213     38.411    496.072    520.420    496.072    496.876    496.072
 42.270    560.771    533.226     27.546    495.930    532.425    495.930    496.746    495.930
 42.370    557.000    550.795      6.205    495.789    549.990    495.789    496.618    495.789
 42.470    528.000    573.196    -45.196    495.650    572.390    495.650    496.493    495.650
 42.570    549.000    596.831    -47.831    495.513    596.025    495.513    496.369    495.513
 42.670    586.000    614.709    -28.709    495.376    613.901    495.376    496.247    495.376
 42.770    559.000    618.931    -59.931    495.242    618.113    495.242    496.128    495.242
 42.870    575.000    607.086    -32.086    495.109    606.248    495.109    496.010    495.109
 42.970    588.000    585.043      2.957    494.977    584.178    494.977    495.895    494.977
 43.070    574.000    561.080     12.920    494.847    560.184    494.847    495.782    494.847
 43.170    546.000    540.617      5.383    494.719    539.691    494.719    495.671    494.719
 43.270    529.000    525.677      3.323    494.592    524.724    494.592    495.562    494.592
 43.370    546.982    515.995     30.988    494.467    515.017    494.467    495.456    494.467
 43.470    495.000    510.236    -15.236    494.343    509.234    494.343    495.352    494.343
 43.570    518.000    506.944     11.056    494.221    505.920    494.221    495.250    494.221
 43.670    491.000    505.022    -14.022    494.100    503.976    494.100    495.151    494.100
 43.770    473.000    503.810    -30.810    493.981    502.741    493.981    495.054    493.981
 43.870    492.487    502.969    -10.482    493.864    501.876    493.864    494.960    493.864
 43.970    494.000    502.340     -8.340    493.748    501.222    493.748    494.868    493.748
 44.070    521.000    501.849     19.151    493.633    500.704    493.633    494.779    493.633
 44.170    469.000    501.456    -32.456    493.520    500.285    493.520    494.693    493.520
 44.270    499.000    501.139     -2.139    493.409    499.939    493.409    494.609    493.409
 44.370    531.869    500.882     30.987    493.299    499.654    493.299    494.529    493.299
 44.470    523.485    500.676     22.809    493.190    499.416    493.190    494.451    493.190
 44.570    509.088    500.510      8.578    493.084    499.218    493.084    494.377    493.084
 44.670    505.413    500.380      5.033    492.978    499.054    492.978    494.306    492.978
 44.770    518.000    500.281     17.719    492.875    498.919    492.875    494.238    492.875
 44.870    499.000    500.210     -1.210    492.772    498.810    492.772    494.173    492.772
 44.970    534.399    500.165     34.235    492.672    498.724    492.672    494.113    492.672
 45.070    470.302    500.143    -29.841    492.572    498.660    492.572    494.056    492.572
 45.170    481.000    500.143    -19.143    492.475    498.616    492.475    494.003    492.475
 45.270    484.075    500.166    -16.091    492.379    498.591    492.379    493.954    492.379
 45.370    514.000    500.210     13.790    492.284    498.585    492.284    493.909    492.284
 45.470    464.365    500.277    -35.912    492.191    498.599    492.191    493.869    492.191
 45.570    550.000    500.367     49.633    492.099    498.631    492.099    493.835    492.099
 45.670    543.000    500.480     42.520    492.009    498.684    492.009    493.805    492.009
 45.770    511.000    500.619     10.381    491.920    498.759    491.920    493.781    491.920
 45.870    498.294    500.786     -2.492    491.833    498.856    491.833    493.763    491.833
 45.970    466.000    500.983    -34.983    491.748    498.979    491.748    493.751    491.748
 46.070    530.000    501.213     28.787    491.663    499.130    491.663    493.747    491.663
 46.170    509.830    501.481      8.349    491.581    499.312    491.581    493.749    491.581
 46.270    500.000    501.792     -1.792    491.500    499.531    491.500    493.760    491.500
 46.370    516.000    502.154     13.846    491.420    499.793    491.420    493.780    491.420
 46.470    498.000    502.574     -4.574    491.342    500.106    491.342    493.809    491.342
 46.570    495.000    503.067     -8.067    491.265    500.481    491.265    493.849    491.265
 46.670    507.000    503.650      3.350    491.190    500.937    491.190    493.901    491.190
 46.770    527.000    504.355     22.645    491.116    501.504    491.116    493.966    491.116
 46.870    506.000    505.245      0.755    491.043    502.242    491.043    494.045    491.043
 46.970    480.000    506.440    -26.440    490.973    503.270    490.973    494.141    490.973
 47.070    470.000    508.175    -38.175    490.903    504.820    490.903    494.255    490.903
 47.170    539.000    510.857     28.143    490.835    507.296    490.835    494.391    490.835
 47.270    495.000    515.099    -20.099    490.769    511.309    490.769    494.551    490.769
 47.370    508.622    521.649    -13.027    490.704    517.601    490.704    494.739    490.704
 47.470    574.360    531.148     43.212    490.640    526.809    490.640    494.960    490.640
 47.570    526.000    543.715    -17.715    490.578    539.045    490.578    495.220    490.578
 47.670    534.273    558.426    -24.153    490.517    553.381    490.517    495.525    490.517
 47.770    578.000    572.885      5.115    490.458    567.414    490.458    495.884    490.458
 47.870    584.160    583.245      0.915    490.400    577.288    490.400    496.306    490.400
 47.970    584.000    585.832     -1.832    490.343    579.321    490.343    496.804    490.343
 48.070    584.000    580.005      3.995    490.288    572.858    490.288    497.392    490.288
 48.170    602.471    568.854     33.617    490.235    560.970    490.235    498.084    490.235
 48.270    585.252    556.554     28.699    490.182    547.811    490.182    498.900    490.182
 48.370    550.000    546.074      3.926    490.131    536.329    490.131    499.859    490.131
 48.470    543.000    538.798      4.202    490.082    527.887    490.082    500.982    490.082
 48.570    502.615    534.927    -32.312    490.034    522.666    490.034    502.289    490.034
 48.670    495.280    534.002    -38.722    489.987    520.186    489.987    503.799    489.987
 48.770    520.000    535.361    -15.361    489.942    519.773    489.942    505.527    489.942
 48.870    523.566    538.440    -14.874    489.898    520.858    489.898    507.480    489.898
 48.970    513.721    542.911    -29.189    489.855    523.121    489.855    509.645    489.855
 49.070    530.000    548.712    -18.712    489.814    526.539    489.814    511.986    489.814
 49.170    509.000    556.172    -47.172    489.774    531.516    489.774    514.430    489.774
 49.270    556.000    566.457    -10.457    489.736    539.342    489.736    516.848    489.736
 49.370    551.921    582.743    -30.822    489.699    553.375    489.699    519.059    489.699
 49.470    596.000    612.485    -16.485    489.663    581.294    489.663    520.835    489.663
 49.570    654.000    670.406    -16.406    489.628    638.049    489.628    521.946    489.628
 49.670    825.375    780.045     45.331    489.595    747.346    489.595    522.224    489.595
 49.770    985.000    969.517     15.483    489.563    937.351    489.563    521.622    489.563
 49.870   1325.271   1257.663     67.608    489.533   1226.825    489.533    520.232    489.533
 49.970   1590.000   1632.765    -42.765    489.504   1603.873    489.504    518.253    489.504
 50.070   2075.214   2034.799     40.415    489.476   2008.252    489.476    515.919    489.476
 50.170   2346.000   2356.058    -10.058    489.449   2332.048    489.449    513.448    489.449
 50.270   2482.000   2476.454      5.546    489.424   2454.975    489.424    511.003    489.424
 50.370   2393.808   2341.169     52.639    489.400   2322.060    489.400    508.692    489.400
 50.470   1924.352   2010.898    -86.546    489.377   1993.911    489.377    506.575    489.377
 50.570   1632.000   1607.899     24.101    489.356   1592.769    489.356    504.677    489.356
 50.670   1233.000   1238.808     -5.808    489.335   1225.289    489.335    503.003    489.335
 50.770    939.419    961.352    -21.934    489.317    949.230    489.317    501.544    489.317
 50.870    795.636    784.896     10.740    489.299    773.984    489.299    500.282    489.299
 50.970    660.112    688.448    -28.336    489.282    678.584    489.282    499.198    489.282
 51.070    634.939    641.649     -6.710    489.267    632.688    489.267    498.271    489.267
 51.170    611.000    618.546     -7.546    489.253    610.358    489.253    497.480    489.253
 51.270    645.000    603.069     41.931    489.241    595.537    489.241    496.807    489.241
 51.370    561.000    588.725    -27.725    489.229    581.749    489.229    496.234    489.229
 51.470    598.000    574.759     23.241    489.219    568.256    489.219    495.746    489.219
 51.570    589.000    562.218     26.782    489.210    556.115    489.210    495.331    489.210
 51.670    584.565    552.028     32.537    489.202    546.267    489.202    494.976    489.202
 51.770    572.000    544.539     27.461    489.195    539.071    489.195    494.673    489.195
 51.870    506.000    539.603    -33.603    489.190    534.386    489.190    494.415    489.190
 51.970    548.000    536.801     11.199    489.185    531.800    489.185    494.193    489.185
 52.070    505.000    535.675    -30.675    489.182    530.858    489.182    494.005    489.182
 52.170    570.000    535.875     34.125    489.180    531.216    489.180    493.844    489.180
 52.270    547.268    537.254     10.014    489.179    532.729    489.179    493.708    489.179
 52.370    601.000    539.929     61.071    489.180    535.518    489.180    493.594    489.180
 52.470    537.051    544.402     -7.350    489.181    540.087    489.181    493.500    489.181
 52.570    579.462    551.789     27.673    489.184    547.553    489.184    493.423    489.184
 52.670    598.751    564.169     34.582    489.188    559.998    489.188    493.363    489.188
 52.770    658.000    584.916     73.084    489.192    580.795    489.192    493.317    489.192
 52.870    636.000    618.718     17.282    489.198    614.636    489.198    493.285    489.198
 52.970    717.269    670.879     46.390    489.206    666.824    489.206    493.266    489.206
 53.070    732.000    745.576    -13.576    489.214    741.539    489.214    493.259    489.214
 53.170    826.000    843.241    -17.241    489.223    839.212    489.223    493.264    489.223
 53.270   1019.000    957.605     61.395    489.233    953.577    489.233    493.280    489.233
 53.370   1136.855   1073.046     63.809    489.245   1069.012    489.245    493.306    489.245
 53.470   1166.243   1163.634      2.609    489.257   1159.586    489.257    493.343    489.257
 53.570   1224.747   1199.655     25.092    489.271   1195.585    489.271    493.391    489.271
 53.670   1205.000   1166.548     38.452    489.285   1162.443    489.285    493.448    489.285
 53.770   1025.000   1078.130    -53.130    489.301   1073.974    489.301    493.516    489.301
 53.870    906.392    963.919    -57.527    489.318    959.697    489.318    493.594    489.318
 53.970    902.050    850.087     51.963    489.335    845.786    489.335    493.683    489.335
 54.070    750.000    752.597     -2.597    489.354    748.205    489.354    493.782    489.354
 54.170    645.000    677.995    -32.995    489.374    673.504    489.374    493.892    489.374
 54.270    608.596    626.036    -17.439    489.394    621.436    489.394    494.013    489.394
 54.370    595.000    592.627      2.373    489.416    587.910    489.416    494.146    489.416
 54.470    553.458    572.483    -19.026    489.439    567.640    489.439    494.291    489.439
 54.570    572.000    560.885     11.115    489.462    555.905    489.462    494.449    489.462
 54.670    587.000    554.415     32.585    489.487    549.287    489.487    494.621    489.487
 54.770    546.000    550.951     -4.951    489.513    545.662    489.513    494.807    489.513
 54.870    616.000    549.324     66.676    489.539    543.860    489.539    495.008    489.539
 54.970    528.000    548.953    -20.953    489.567    543.299    489.567    495.225    489.567
 55.070    529.000    549.577    -20.577    489.595    543.716    489.595    495.460    489.595
 55.170    582.000    551.102     30.898    489.624    545.017    489.624    495.713    489.624
 55.270    572.228    553.531     18.697    489.655    547.202    489.655    495.988    489.655
 55.370    563.733    556.941      6.793    489.686    550.347    489.686    496.284    489.686
 55.470    525.541    561.503    -35.962    489.718    554.621    489.718    496.604    489.718
 55.570    533.463    567.564    -34.101    489.751    560.368    489.751    496.951    489.751
 55.670    565.000    575.818    -10.818    489.785    568.279    489.785    497.327    489.785
 55.770    608.487    587.673     20.814    489.819    579.760    489.819    497.736    489.819
 55.870    607.000    605.897      1.103    489.855    597.574    489.855    498.180    489.855
 55.970    642.000    635.553      6.447    489.891    626.779    489.891    498.664    489.891
 56.070    683.000    685.007     -2.007    489.928    675.736    489.928    499.193    489.928
 56.170    769.000    766.382      2.618    489.967    756.562    489.967    499.772    489.967
 56.270    862.299    894.452    -32.153    490.005    884.026    490.005    500.409    490.005
 56.370   1055.000   1083.015    -28.015    490.045   1071.921    490.045    501.112    490.045
 56.470   1358.000   1338.586     19.414    490.086   1326.757    490.086    501.892    490.086
 56.570   1622.000   1652.706    -30.706    490.127   1640.072    490.127    502.759    490.127
 56.670   1904.000   1995.183    -91.183    490.169   1981.662    490.169    503.730    490.169
 56.770   2342.000   2311.023     30.977    490.212   2296.522    490.212    504.823    490.212
 56.870   2476.000   2526.837    -50.837    490.256   2511.230    490.256    506.059    490.256
 56.970   2543.970   2576.957    -32.987    490.300   2560.071    490.300    507.465    490.300
 57.070   2410.278   2443.993    -33.715    490.345   2425.592    490.345    509.071    490.345
 57.170   2082.998   2173.077    -90.079    490.391   2152.880    490.391    510.915    490.391
 57.270   1866.054   1839.402     26.651    490.438   1817.094    490.438    513.037    490.438
 57.370   1455.000   1509.784    -54.784    490.485   1485.020    490.485    515.485    490.485
 57.470   1238.000   1227.207     10.793    490.533   1199.605    490.533    518.312    490.533
 57.570   1039.156   1010.618     28.538    490.582    979.751    490.582    521.573    490.582
 57.670    911.000    860.382     50.618    490.631    825.766    490.631    525.329    490.631
 57.770    788.000    765.927     22.073    490.682    727.021    490.682    529.640    490.682
 57.870    757.000    713.210     43.790    490.732    669.413    490.732    534.563    490.732
 57.970    727.000    690.021     36.979    490.784    640.677    490.784    540.149    490.784
 58.070    697.000    688.427      8.573    490.836    632.843    490.836    546.432    490.836
 58.170    688.982    704.865    -15.884    490.889    642.337    490.889    553.421    490.889
 58.270    737.384    738.789     -1.405    490.942    668.646    490.942    561.081    490.942
 58.370    805.000    790.714     14.286    490.996    712.387    490.996    569.310    490.996
 58.470    827.807    860.237    -32.431    491.051    773.358    491.051    577.910    491.051
 58.570    929.000    944.410    -15.410    491.106    848.935    491.106    586.556    491.106
 58.670   1005.000   1036.769    -31.769    491.162    933.130    491.162    594.775    491.162
 58.770   1094.000   1127.884    -33.884    491.219   1017.117    491.219    601.966    491.219
 58.870   1253.042   1208.121     44.921    491.276   1091.927    491.276    607.462    491.276
 58.970   1237.432   1269.905    -32.473    491.333   1150.588    491.333    610.657    491.333
 59.070   1250.123   1306.593    -56.471    491.391   1186.843    491.391    611.163    491.391
 59.170   1298.149   1312.334    -14.185    491.450   1194.897    491.450    608.921    491.450
 59.270   1316.000   1287.168     28.832    491.509   1174.493    491.509    604.225    491.509
 59.370   1226.122   1241.000    -14.878    491.569   1134.979    491.569    597.627    491.569
 59.470   1212.000   1189.331     22.669    491.629   1091.188    491.629    589.792    491.629
 59.570   1238.000   1146.944     91.056    491.690   1057.269    491.690    581.355    491.690
 59.670   1198.000   1126.149     71.851    491.751   1045.018    491.751    572.834    491.751
 59.770   1152.000   1136.989     15.011    491.813   1064.108    491.813    564.598    491.813
 59.870   1188.132   1184.941      3.190    491.875   1119.788    491.875    556.885    491.875
 59.970   1334.000   1266.740     67.260    491.938   1208.667    491.938    549.822    491.938
 60.070   1374.556   1367.793      6.763    492.001   1316.108    492.001    543.464    492.001
 60.170   1536.000   1462.844     73.156    492.065   1416.860    492.065    537.813    492.065
 60.270   1581.555   1520.861     60.694    492.129   1479.925    492.129    532.841    492.129
 60.370   1467.000   1516.126    -49.126    492.194   1479.629    492.194    528.504    492.194
 60.470   1514.000   1442.026     71.974    492.258   1409.400    492.258    524.745    492.258
 60.570   1268.563   1314.746    -46.183    492.324   1285.471    492.324    521.504    492.324
 60.670   1096.573   1162.255    -65.682    492.389   1135.863    492.389    518.724    492.389
 60.770   1004.000   1011.070     -7.070    492.456    987.148    492.456    516.346    492.456
 60.870    871.000    879.764     -8.764    492.522    857.952    492.522    514.318    492.522
 60.970    755.957    777.838    -21.880    492.589    757.828    492.589    512.590    492.589
 61.070    674.000    707.249    -33.249    492.656    688.778    492.656    511.118    492.656
 61.170    712.000    665.432     46.568    492.724    648.279    492.724    509.865    492.724
 61.270    645.000    648.633     -3.633    492.791    632.610    492.791    508.796    492.791
 61.370    617.497    654.421    -36.924    492.860    639.372    492.860    507.880    492.860
 61.470    682.000    682.757     -0.757    492.928    668.551    492.928    507.091    492.928
 61.570    732.000    735.482     -3.482    492.997    722.014    492.997    506.404    492.997
 61.670    847.000    814.495     32.505    493.066    801.682    493.066    505.796    493.066
 61.770    949.239    919.150     30.089    493.135    906.934    493.135    505.246    493.135
 61.870   1004.000   1043.669    -39.669    493.205   1032.012    493.205    504.738    493.205
 61.970   1101.000   1175.328    -74.328    493.275   1164.210    493.275    504.258    493.275
 62.070   1244.000   1294.163    -50.163    493.345   1283.581    493.345    503.796    493.345
 62.170   1373.000   1375.511     -2.511    493.416   1365.464    493.416    503.351    493.416
 62.270   1335.000   1397.716    -62.716    493.486   1388.201    493.486    502.920    493.486
 62.370   1388.632   1353.637     34.994    493.557   1344.640    493.557    502.508    493.557
 62.470   1204.000   1255.597    -51.597    493.628   1247.090    493.628    502.117    493.628
 62.570   1070.279   1127.422    -57.143    493.699   1119.371    493.699    501.750    493.699
 62.670    932.683    992.963    -60.280    493.771    985.334    493.771    501.410    493.771
 62.770    858.000    869.965    -11.965    493.842    862.724    493.842    501.098    493.842
 62.870    765.000    768.604     -3.604    493.914    761.717    493.914    500.813    493.914
 62.970    655.000    692.196    -37.196    493.986    685.636    493.986    500.556    493.986
 63.070    657.000    639.043     17.957    494.058    632.783    494.058    500.324    494.058
 63.170    629.000    604.732     24.268    494.131    598.748    494.131    500.116    494.131
 63.270    586.000    584.210      1.790    494.203    578.481    494.203    499.931    494.203
 63.370    610.169    573.174     36.996    494.275    567.679    494.275    499.767    494.275
 63.470    640.000    568.709     71.291    494.348    563.430    494.348    499.623    494.348
 63.570    550.000    569.405    -19.405    494.421    564.323    494.421    499.496    494.421
 63.670    567.042    575.183     -8.141    494.493    570.280    494.493    499.385    494.493
 63.770    614.000    587.020     26.980    494.566    582.281    494.566    499.289    494.566
 63.870    636.000    606.597     29.403    494.639    602.005    494.639    499.206    494.639
 63.970    681.000    635.817     45.183    494.712    631.358    494.712    499.136    494.712
 64.070    644.040    676.161    -32.121    494.785    671.823    494.785    499.077    494.785
 64.170    781.000    727.905     53.095    494.858    723.674    494.858    499.027    494.858
 64.270    840.353    789.297     51.056    494.931    785.164    494.931    498.988    494.931
 64.370    829.028    855.868    -26.839    495.004    851.827    495.004    498.956    495.004
 64.470    919.000    920.109     -1.109    495.077    916.157    495.077    498.933    495.077
 64.570    933.000    972.168    -39.168    495.150    968.306    495.150    498.916    495.150
 64.670   1018.665   1002.460     16.205    495.224    998.689    495.224    498.907    495.224
 64.770   1017.000   1005.588     11.412    495.297   1001.909    495.297    498.903    495.297
 64.870    986.000    982.557      3.443    495.370    978.970    495.370    498.906    495.370
 64.970    984.000    939.606     44.394    495.442    936.106    495.442    498.913    495.442
 65.070    864.000    885.445    -21.445    495.515    882.026    495.515    498.926    495.515
 65.170    833.000    828.511      4.489    495.588    825.166    495.588    498.944    495.588
 65.270    783.384    774.955      8.429    495.661    771.674    495.661    498.966    495.661
 65.370    726.460    727.966     -1.506    495.733    724.739    495.733    498.992    495.733
 65.470    693.885    688.365      5.520    495.806    685.183    495.806    499.022    495.806
 65.570    669.337    655.791     13.546    495.878    652.647    495.878    499.057    495.878
 65.670    612.613    629.596    -16.983    495.951    626.482    495.951    499.095    495.951
 65.770    619.907    609.081     10.826    496.023    605.992    496.023    499.136    496.023
 65.870    585.047    593.479     -8.432    496.095    590.411    496.095    499.181    496.095
 65.970    589.829    582.006      7.823    496.167    578.956    496.167    499.230    496.167
 66.070    572.468    573.955     -1.487    496.238    570.921    496.238    499.282    496.238
 66.170    509.000    568.742    -59.742    496.310    565.721    496.310    499.337    496.310
 66.270    532.440    565.904    -33.464    496.381    562.896    496.381    499.395    496.381
 66.370    556.000    565.101     -9.101    496.452    562.101    496.452    499.457    496.452
 66.470    590.000    566.121     23.879    496.523    563.128    496.523    499.521    496.523
 66.570    566.764    568.946     -2.183    496.594    565.957    496.594    499.589    496.594
 66.670    526.000    573.857    -47.857    496.664    570.868    496.664    499.659    496.664
 66.770    627.890    581.600     46.290    496.735    578.609    496.735    499.733    496.735
 66.870    595.012    593.656      1.357    496.805    590.658    496.805    499.810    496.805
 66.970    611.000    612.567     -1.567    496.874    609.560    496.874    499.890    496.874
 67.070    677.719    642.300     35.420    496.944    639.280    496.944    499.974    496.944
 67.170    671.000    688.458    -17.458    497.013    685.422    497.013    500.060    497.013
 67.270    693.000    758.122    -65.122    497.082    755.067    497.082    500.150    497.082
 67.370    861.000    859.029      1.971    497.151    855.955    497.151    500.244    497.151
 67.470    945.000    997.947    -52.947    497.219    994.853    497.219    500.341    497.219
 67.570   1126.552   1178.291    -51.740    497.287   1175.181    497.287    500.442    497.287
 67.670   1433.000   1397.438     35.562    497.354   1394.316    497.354    500.547    497.354
 67.770   1647.000   1644.322      2.678    497.422   1641.194    497.422    500.656    497.422
 67.870   1950.000   1897.899     52.101    497.489   1894.773    497.489    500.769    497.489
 67.970   2149.433   2127.052     22.381    497.555   2123.934    497.555    500.887    497.555
 68.070   2201.158   2293.698    -92.539    497.622   2290.589    497.622    501.010    497.622
 68.170   2282.449   2362.567    -80.118    497.687   2359.459    497.687    501.138    497.687
 68.270   2279.895   2316.959    -37.064    497.753   2313.830    497.753    501.271    497.753
 68.370   2206.000   2168.381     37.619    497.818   2165.197    497.818    501.411    497.818
 68.470   1979.000   1949.558     29.442    497.883   1946.282    497.883    501.556    497.883
 68.570   1695.290   1698.858     -3.568    497.947   1695.457    497.947    501.709    497.947
 68.670   1434.000   1449.149    -15.149    498.011   1445.600    498.011    501.868    498.011
 68.770   1224.000   1223.599      0.401    498.074   1219.888    498.074    502.036    498.074
 68.870   1034.000   1035.251     -1.251    498.137   1031.370    498.137    502.212    498.137
 68.970    882.000    888.309     -6.309    498.200    884.255    498.200    502.398    498.200
 69.070    818.639    780.398     38.241    498.262    776.169    498.262    502.593    498.262
 69.170    704.804    705.249     -0.445    498.323    700.844    498.323    502.800    498.323
 69.270    612.470    655.177    -42.707    498.384    650.592    498.384    503.020    498.384
 69.370    651.000    622.880     28.120    498.445    618.108    498.445    503.252    498.445
 69.470    626.000    602.407     23.593    498.505    597.436    498.505    503.500    498.505
 69.570    580.000    589.428     -9.428    498.564    584.247    498.564    503.764    498.564
 69.670    572.337    581.077     -8.739    498.623    575.667    498.623    504.047    498.623
 69.770    634.000    575.592     58.408    498.682    569.935    498.682    504.351    498.682
 69.870    551.047    571.962    -20.914    498.740    566.034    498.740    504.678    498.740
 69.970    583.000    569.638     13.362    498.797    563.412    498.797    505.031    498.797
 70.070    521.000    568.340    -47.340    498.854    561.787    498.854    505.415    498.854
 70.170    572.000    567.949      4.051    498.910    561.032    498.910    505.833    498.910
 70.270    612.000    568.453     43.547    498.966    561.131    498.966    506.293    498.966
 70.370    611.000    569.945     41.055    499.021    562.170    499.021    506.800    499.021
 70.470    530.398    572.660    -42.262    499.076    564.375    499.076    507.363    499.076
 70.570    531.730    577.049    -45.319    499.129    568.185    499.129    507.995    499.129
 70.670    602.000    583.906     18.094    499.183    574.380    499.183    508.707    499.183
 70.770    578.000    594.524    -16.524    499.235    584.237    499.235    509.518    499.235
 70.870    654.000    610.887     43.113    499.287    599.718    499.287    510.449    499.287
 70.970    628.000    635.810     -7.810    499.339    623.611    499.339    511.523    499.339
 71.070    628.000    672.958    -44.958    499.389    659.552    499.389    512.773    499.389
 71.170    700.000    726.624    -26.624    499.439    711.796    499.439    514.233    499.439
 71.270    797.869    801.157     -3.288    499.489    784.653    499.489    515.943    499.489
 71.370    904.020    900.019      4.001    499.537    881.541    499.537    517.950    499.537
 71.470   1031.699   1024.546      7.154    499.585   1003.746    499.585    520.301    499.585
 71.570   1121.000   1172.625    -51.625    499.633   1149.107    499.633    523.048    499.633
 71.670   1314.000   1337.557    -23.557    499.679   1310.878    499.679    526.242    499.679
 71.770   1574.194   1507.328     66.866    499.725   1477.000    499.725    529.929    499.725
 71.870   1681.000   1664.567     16.433    499.770   1630.067    499.770    534.148    499.770
 71.970   1826.000   1787.977     38.023    499.815   1748.758    499.815    538.926    499.815
 72.070   1874.000   1856.702     17.298    499.858   1812.213    499.858    544.267    499.858
 72.170   1831.000   1857.711    -26.711    499.901   1807.422    499.901    550.144    499.901
 72.270   1867.000   1791.955     75.045    499.943   1735.401    499.943    556.486    499.943
 72.370   1766.000   1673.788     92.212    499.985   1610.629    499.985    563.161    499.985
 72.470   1495.017   1524.238    -29.221    500.025   1454.348    500.025    569.952    500.025
 72.570   1425.000   1363.921     61.079    500.065   1287.490    500.065    576.543    500.065
 72.670   1259.000   1209.133     49.867    500.104   1126.775    500.104    582.513    500.104
 72.770   1013.000   1070.704    -57.704    500.142    983.527    500.142    587.367    500.142
 72.870    956.000    954.218      1.782    500.179    863.831    500.179    590.610    500.179
 72.970    852.000    860.931     -8.931    500.216    769.324    500.216    591.860    500.216
 73.070    839.798    789.063     50.735    500.252    698.384    500.252    590.961    500.252
 73.170    776.502    735.167     41.335    500.286    647.442    500.286    588.035    500.286
 73.270    740.959    695.289     45.670    500.320    612.191    500.320    583.438    500.320
 73.370    687.647    665.760     21.887    500.354    588.475    500.354    577.655    500.354
 73.470    621.000    643.599    -22.599    500.386    572.811    500.386    571.188    500.386
 73.570    582.296    626.615    -44.319    500.417    562.577    500.417    564.469    500.417
 73.670    570.000    613.336    -43.336    500.448    555.969    500.448    557.828    500.448
 73.770    607.000    602.840      4.160    500.478    551.837    500.478    551.495    500.478
 73.870    603.795    594.585      9.210    500.506    549.495    500.506    545.612    500.506
 73.970    626.565    588.240     38.325    500.534    548.535    500.534    540.259    500.534
 74.070    600.156    583.570     16.586    500.561    548.688    500.561    535.466    500.561
 74.170    605.508    580.338     25.170    500.587    549.720    500.587    531.232    500.587
 74.270    599.000    578.259     20.741    500.612    551.367    500.612    527.536    500.612
 74.370    597.000    576.970     20.030    500.636    553.305    500.636    524.339    500.636
 74.470    602.344    576.013     26.331    500.660    555.121    500.660    521.594    500.660
 74.570    564.917    574.877     -9.960    500.682    556.353    500.682    519.252    500.682
 74.670    604.836    573.093     31.743    500.703    556.583    500.703    517.262    500.703
 74.770    526.243    570.383    -44.141    500.723    555.582    500.723    515.573    500.723
 74.870    573.424    566.773      6.650    500.743    553.421    500.743    514.141    500.743
 74.970    639.000    562.570     76.430    500.761    550.449    500.761    512.924    500.761
 75.070    550.000    558.237     -8.237    500.779    547.166    500.779    511.885    500.779
 75.170    577.996    554.280     23.715    500.795    544.110    500.795    510.995    500.795
 75.270    507.712    551.195    -43.483    500.810    541.801    500.810    510.226    500.810
 75.370    594.000    549.460     44.540    500.825    540.742    500.825    509.558    500.825
 75.470    580.000    549.549     30.451    500.838    541.423    500.838    508.973    500.838
 75.570    532.000    551.935    -19.935    500.850    544.331    500.850    508.457    500.850
 75.670    522.872    557.070    -34.198    500.862    549.930    500.862    507.998    500.862
 75.770    529.000    565.341    -36.341    500.872    558.616    500.872    507.587    500.872
 75.870    651.000    576.989     74.011    500.881    570.636    500.881    507.217    500.881
 75.970    545.000    592.003    -47.003    500.889    585.986    500.889    506.882    500.889
 76.070    646.000    610.005     35.995    500.896    604.293    500.896    506.577    500.896
 76.170    655.000    630.153     24.847    500.902    624.718    500.902    506.298    500.902
 76.270    675.000    651.073     23.927    500.907    645.894    500.907    506.043    500.907
 76.370    613.000    670.854    -57.854    500.911    665.909    500.911    505.807    500.911
 76.470    682.000    687.143     -5.143    500.914    682.416    500.914    505.590    500.914
 76.570    727.903    697.486     30.417    500.916    692.962    500.916    505.388    500.916
 76.670    735.947    699.988     35.959    500.916    695.656    500.916    505.201    500.916
 76.770    692.750    694.071     -1.320    500.916    689.917    500.916    505.026    500.916
 76.870    680.000    680.745     -0.745    500.914    676.760    500.914    504.863    500.914
 76.970    649.184    662.149    -12.965    500.911    658.320    500.911    504.711    500.911
 77.070    650.000    640.751      9.249    500.908    637.068    500.908    504.567    500.908
 77.170    543.000    618.770    -75.770    500.903    615.223    500.903    504.432    500.903
 77.270    589.000    597.919     -8.919    500.896    594.498    500.896    504.304    500.896
 77.370    624.580    579.350     45.230    500.889    576.046    500.889    504.184    500.889
 77.470    559.000    563.682     -4.682    500.881    560.487    500.881    504.070    500.881
 77.570    543.000    551.082     -8.082    500.871    547.988    500.871    503.961    500.871
 77.670    558.000    541.375     16.625    500.860    538.375    500.860    503.857    500.860
 77.770    507.703    534.175    -26.473    500.848    531.263    500.848    503.758    500.848
 77.870    483.000    529.000    -46.000    500.835    526.170    500.835    503.664    500.835
 77.970    537.000    525.366     11.634    500.821    522.613    500.821    503.573    500.821
 78.070    533.801    522.848     10.953    500.806    520.167    500.806    503.486    500.806
 78.170    537.715    521.106     16.610    500.789    518.492    500.789    503.402    500.789
 78.270    497.000    519.889    -22.889    500.771    517.338    500.771    503.321    500.771
 78.370    471.000    519.026    -48.026    500.752    516.534    500.752    503.243    500.752
 78.470    528.000    518.405      9.595    500.732    515.969    500.732    503.168    500.732
 78.570    544.234    517.963     26.271    500.710    515.578    500.710    503.095    500.710
 78.670    518.319    517.663      0.656    500.688    515.327    500.688    503.024    500.688
 78.770    553.000    517.494     35.506    500.664    515.203    500.664    502.956    500.664
 78.870    524.624    517.453      7.171    500.639    515.203    500.639    502.889    500.639
 78.970    473.000    517.523    -44.523    500.612    515.311    500.612    502.824    500.612
 79.070    506.000    517.796    -11.796    500.585    515.619    500.585    502.761    500.585
 79.170    490.524    518.266    -27.742    500.556    516.121    500.556    502.700    500.556
 79.270    504.000    518.958    -14.958    500.526    516.843    500.526    502.640    500.526
 79.370    509.000    519.907    -10.907    500.494    517.818    500.494    502.583    500.494
 79.470    532.000    521.152     10.848    500.462    519.086    500.462    502.526    500.462
 79.570    471.000    522.742    -51.742    500.428    520.697    500.428    502.471    500.428
 79.670    478.000    524.746    -46.746    500.393    522.719    500.393    502.418    500.393
 79.770    545.000    527.262     17.738    500.356    525.250    500.356    502.365    500.356
 79.870    548.000    530.426     17.574    500.319    528.428    500.319    502.314    500.319
 79.970    501.000    534.433    -33.433    500.280    532.446    500.280    502.263    500.280
 80.070    546.000    539.541      6.459    500.239    537.565    500.239    502.213    500.239
 80.170    543.000    546.088     -3.088    500.198    544.121    500.198    502.163    500.198
 80.270    547.662    554.476     -6.813    500.155    552.518    500.155    502.113    500.155
 80.370    550.000    565.115    -15.115    500.111    563.167    500.111    502.061    500.111
 80.470    599.000    578.334     20.666    500.066    576.397    500.066    502.008    500.066
 80.570    582.000    594.266    -12.266    500.019    592.342    500.019    501.952    500.019
 80.670    597.000    612.756    -15.756    499.971    610.848    499.971    501.892    499.971
 80.770    623.000    633.301    -10.301    499.922    631.412    499.922    501.829    499.922
 80.870    628.723    655.032    -26.309    499.871    653.166    499.871    501.761    499.871
 80.970    711.000    676.776     34.224    499.819    674.936    499.819    501.689    499.819
 81.070    723.056    697.194     25.861    499.766    695.384    499.766    501.614    499.766
 81.170    664.000    714.988    -50.988    499.711    713.209    499.711    501.534    499.711
 81.270    740.581    729.057     11.524    499.655    727.312    499.655    501.452    499.655
 81.370    732.579    738.590     -6.011    499.598    736.879    499.598    501.367    499.598
 81.470    717.000    743.108    -26.108    499.540    741.430    499.540    501.282    499.540
 81.570    753.000    742.494     10.506    499.480    740.849    499.480    501.195    499.480
 81.670    712.000    736.962    -24.962    499.418    735.347    499.418    501.107    499.418
 81.770    713.000    727.001    -14.001    499.356    725.413    499.356    501.019    499.356
 81.870    764.000    713.381     50.619    499.292    711.818    499.292    500.932    499.292
 81.970    652.685    697.146    -44.461    499.227    695.604    499.227    500.844    499.227
 82.070    642.677    679.468    -36.792    499.160    677.945    499.160    500.757    499.160
 82.170    661.000    661.408     -0.408    499.092    659.900    499.092    500.670    499.092
 82.270    675.000    643.733     31.267    499.023    642.238    499.023    500.583    499.023
 82.370    667.518    626.896     40.621    498.952    625.413    498.952    500.496    498.952
 82.470    604.000    611.134     -7.134    498.880    609.660    498.880    500.409    498.880
 82.570    598.810    596.615      2.194    498.807    595.148    498.807    500.322    498.807
 82.670    558.000    583.526    -25.526    498.732    582.064    498.732    500.236    498.732
 82.770    594.264    572.074     22.190    498.656    570.615    498.656    500.149    498.656
 82.870    559.000    562.454     -3.454    498.578    560.998    498.578    500.062    498.578
 82.970    488.000    554.819    -66.819    498.499    553.363    498.499    499.974    498.499
 83.070    554.000    549.261      4.739    498.419    547.805    498.419    499.887    498.419
 83.170    536.000    545.803     -9.803    498.338    544.346    498.338    499.799    498.338
 83.270    521.000    544.390    -23.390    498.255    542.930    498.255    499.710    498.255
 83.370    525.000    544.868    -19.868    498.170    543.405    498.170    499.621    498.170
 83.470    515.000    546.981    -31.981    498.084    545.515    498.084    499.531    498.084
 83.570    530.460    550.366    -19.905    497.997    548.896    497.997    499.441    497.997
 83.670    503.000    554.554    -51.554    497.909    553.079    497.909    499.350    497.909
 83.770    533.000    558.990    -25.990    497.819    557.511    497.819    499.258    497.819
 83.870    529.000    563.058    -34.058    497.728    561.577    497.728    499.166    497.728
 83.970    571.000    566.138      4.862    497.635    564.655    497.635    499.072    497.635
 84.070    573.000    567.690      5.310    497.541    566.206    497.541    498.978    497.541
 84.170    549.000    567.372    -18.372    497.446    565.889    497.446    498.883    497.446
 84.270    517.000    565.124    -48.124    497.349    563.643    497.349    498.788    497.349
 84.370    521.639    561.177    -39.538    497.251    559.698    497.251    498.691    497.251
 84.470    594.000    555.960     38.040    497.151    554.484    497.151    498.594    497.151
 84.570    528.000    549.983    -21.983    497.051    548.509    497.051    498.495    497.051
 84.670    559.000    543.739     15.261    496.948    542.267    496.948    498.396    496.948
 84.770    553.804    537.647     16.157    496.845    536.176    496.845    498.296    496.845
 84.870    552.000    532.028     19.972    496.740    530.557    496.740    498.195    496.740
 84.970    544.000    527.095     16.905    496.633    525.622    496.633    498.093    496.633
 85.070    516.000    522.958     -6.958    496.525    521.484    496.525    497.990    496.525
 85.170    543.000    519.644     23.356    496.416    518.165    496.416    497.887    496.416
 85.270    523.000    517.111      5.889    496.305    515.628    496.305    497.782    496.305
 85.370    524.387    515.281      9.106    496.194    513.793    496.194    497.677    496.194
 85.470    510.000    514.060     -4.060    496.080    512.565    496.080    497.571    496.080
 85.570    527.000    513.358     13.642    495.965    511.855    495.965    497.464    495.965
 85.670    536.484    513.107     23.377    495.849    511.595    495.849    497.356    495.849
 85.770    524.273    513.268     11.004    495.732    511.747    495.732    497.247    495.732
 85.870    521.033    513.840      7.193    495.613    512.308    495.613    497.138    495.613
 85.970    506.000    514.858     -8.858    495.493    513.315    495.493    497.027    495.493
 86.070    518.000    516.399      1.601    495.371    514.843    495.371    496.916    495.371
 86.170    473.791    518.571    -44.780    495.248    517.001    495.248    496.804    495.248
 86.270    499.556    521.509    -21.953    495.124    519.924    495.124    496.692    495.124
 86.370    487.664    525.359    -37.695    494.998    523.757    494.998    496.578    494.998
 86.470    550.000    530.264     19.736    494.871    528.644    494.871    496.464    494.871
 86.570    552.000    536.338     15.662    494.743    534.697    494.743    496.349    494.743
 86.670    572.000    543.637     28.363    494.613    541.973    494.613    496.234    494.613
 86.770    583.000    552.131     30.869    494.482    550.443    494.482    496.118    494.482
 86.870    537.000    561.674    -24.674    494.349    559.960    494.349    496.001    494.349
 86.970    581.299    571.982      9.317    494.215    570.241    494.215    495.884    494.215
 87.070    544.372    582.615    -38.243    494.080    580.847    494.080    495.766    494.080
 87.170    556.309    592.982    -36.673    493.943    591.186    493.943    495.648    493.943
 87.270    625.000    602.353     22.647    493.805    600.531    493.805    495.529    493.805
 87.370    637.000    609.926     27.074    493.666    608.080    493.666    495.410    493.666
 87.470    668.000    614.951     53.049    493.525    613.083    493.525    495.290    493.525
 87.570    582.006    616.898    -34.893    493.383    615.011    493.383    495.170    493.383
 87.670    609.000    615.620     -6.620    493.240    613.715    493.240    495.050    493.240
 87.770    619.000    611.394      7.606    493.095    609.475    493.095    494.929    493.095
 87.870    616.000    604.842     11.158    492.949    602.908    492.949    494.809    492.949
 87.970    583.184    596.769    -13.585    492.802    594.821    492.802    494.688    492.802
 88.070    638.000    588.030     49.970    492.653    586.065    492.653    494.567    492.653
 88.170    564.000    579.436    -15.436    492.503    577.454    492.503    494.447    492.503
 88.270    588.000    571.700     16.300    492.352    569.698    492.352    494.326    492.352
 88.370    519.438    565.391    -45.953    492.199    563.367    492.199    494.206    492.199
 88.470    519.455    560.913    -41.458    492.046    558.864    492.046    494.086    492.046
 88.570    521.199    558.489    -37.291    491.890    556.414    491.890    493.966    491.890
 88.670    561.241    558.163      3.078    491.734    556.059    491.734    493.847    491.734
 88.770    583.000    559.805     23.195    491.576    557.669    491.576    493.729    491.576
 88.870    577.000    563.129     13.871    491.417    560.959    491.417    493.611    491.417
 88.970    553.062    567.708    -14.646    491.256    565.501    491.256    493.495    491.256
 89.070    574.853    573.003      1.850    491.095    570.758    491.095    493.380    491.095
 89.170    604.648    578.390     26.257    490.932    576.103    490.932    493.266    490.932
 89.270    543.966    583.196    -39.230    490.767    580.863    490.767    493.154    490.767
 89.370    622.991    586.761     36.230    490.602    584.378    490.602    493.044    490.602
 89.470    580.000    588.530     -8.530    490.435    586.093    490.435    492.936    490.435
 89.570    609.000    588.159     20.841    490.267    585.660    490.267    492.831    490.267
 89.670    579.000    585.587     -6.587    490.098    583.022    490.098    492.729    490.098
 89.770    538.073    581.039    -42.966    489.927    578.400    489.927    492.630    489.927
 89.870    578.000    574.945      3.055    489.755    572.224    489.755    492.536    489.755
 89.970    547.181    567.830    -20.648    489.582    565.020    489.582    492.446    489.582
 90.070    550.000    560.219    -10.219    489.408    557.313    489.408    492.362    489.408
 90.170    506.000    552.584    -46.584    489.233    549.574    489.233    492.285    489.233
 90.270    544.000    545.308     -1.308    489.056    542.184    489.056    492.215    489.056
 90.370    493.000    538.677    -45.677    488.878    535.431    488.878    492.153    488.878
 90.470    552.365    532.878     19.487    488.699    529.498    488.699    492.102    488.699
 90.570    538.882    528.007     10.874    488.518    524.483    488.518    492.061    488.518
 90.670    466.000    524.085    -58.085    488.337    520.402    488.337    492.034    488.337
 90.770    534.000    521.071     12.929    488.154    517.215    488.154    492.021    488.154
 90.870    481.117    518.888    -37.772    487.970    514.842    487.970    492.024    487.970
 90.970    542.000    517.427     24.573    487.785    513.171    487.785    492.046    487.785
 91.070    499.000    516.641    -17.641    487.599    512.154    487.599    492.089    487.599
 91.170    502.000    516.439    -14.439    487.412    511.698    487.412    492.154    487.412
 91.270    521.000    516.775      4.225    487.223    511.753    487.223    492.245    487.223
 91.370    539.000    517.639     21.361    487.033    512.308    487.033    492.364    487.033
 91.470    502.974    519.061    -16.088    486.843    513.389    486.843    492.513    486.843
 91.570    546.000    521.112     24.888    486.651    515.065    486.651    492.694    486.651
 91.670    508.000    523.899    -15.899    486.457    517.442    486.457    492.909    486.457
 91.770    535.543    527.565      7.979    486.263    520.660    486.263    493.161    486.263
 91.870    535.361    532.281      3.080    486.068    524.888    486.068    493.452    486.068
 91.970    535.969    538.232     -2.262    485.872    530.309    485.872    493.781    485.872
 92.070    525.240    545.604    -20.365    485.674    537.111    485.674    494.151    485.674
 92.170    572.000    554.569     17.431    485.476    545.463    485.476    494.561    485.476
 92.270    554.000    565.256    -11.256    485.276    555.497    485.276    495.010    485.276
 92.370    521.000    577.738    -56.738    485.075    567.287    485.075    495.496    485.075
 92.470    597.000    592.003      4.997    484.873    580.826    484.873    496.015    484.873
 92.570    581.000    607.952    -26.952    484.671    596.021    484.671    496.560    484.671
 92.670    631.000    625.364      5.636    484.467    612.659    484.467    497.124    484.467
 92.770    638.000    643.893     -5.893    484.262    630.407    484.262    497.696    484.262
 92.870    670.000    663.075      6.925    484.056    648.813    484.056    498.260    484.056
 92.970    674.000    682.338     -8.338    483.849    667.326    483.849    498.800    483.849
 93.070    737.000    701.062     35.938    483.641    685.346    483.641    499.293    483.641
 93.170    711.000    718.663     -7.663    483.433    702.314    483.433    499.716    483.433
 93.270    698.000    734.716    -36.716    483.223    717.828    483.223    500.045    483.223
 93.370    762.602    749.028     13.574    483.012    731.719    483.012    500.256    483.012
 93.470    812.285    761.653     50.632    482.800    744.061    482.800    500.329    482.800
 93.570    753.105    772.813    -19.708    482.587    755.088    482.587    500.252    482.587
 93.670    763.081    782.789    -19.708    482.374    765.086    482.374    500.018    482.374
 93.770    757.940    791.843    -33.904    482.159    774.315    482.159    499.632    482.159
 93.870    760.000    800.218    -40.218    481.944    783.004    481.944    499.105    481.944
 93.970    805.000    808.160     -3.160    481.727    791.382    481.727    498.456    481.727
 94.070    839.000    815.991     23.009    481.510    799.746    481.510    497.708    481.510
 94.170    790.441    824.143    -33.703    481.292    808.506    481.292    496.885    481.292
 94.270    848.000    832.850     15.150    481.073    817.870    481.073    496.012    481.073
 94.370    828.000    842.140    -14.140    480.853    827.844    480.853    495.110    480.853
 94.470    862.000    851.690     10.310    480.632    838.089    480.632    494.199    480.632
 94.570    931.000    860.824     70.176    480.411    847.910    480.411    493.293    480.411
 94.670    867.000    868.504     -1.504    480.188    856.260    480.188    492.406    480.188
 94.770    832.494    873.490    -40.995    479.965    861.890    479.965    491.545    479.965
 94.870    941.000    874.525     66.475    479.741    863.535    479.741    490.718    479.741
 94.970    908.622    870.592     38.030    479.517    860.173    479.517    489.930    479.517
 95.070    821.218    861.165    -39.947    479.291    851.275    479.291    489.182    479.291
 95.170    831.000    846.372    -15.372    479.065    836.968    479.065    488.477    479.065
 95.270    844.240    826.997     17.243    478.838    818.034    478.838    487.815    478.838
 95.370    857.000    804.333     52.667    478.610    795.766    478.610    487.196    478.610
 95.470    809.815    779.979     29.836    478.381    771.763    478.381    486.618    478.381
 95.570    775.000    755.656     19.344    478.152    747.747    478.152    486.082    478.152
 95.670    753.000    733.074     19.926    477.922    725.433    477.922    485.584    477.922
 95.770    759.000    713.855     45.145    477.692    706.441    477.692    485.123    477.692
 95.870    744.000    699.476     44.524    477.461    692.253    477.461    484.698    477.461
 95.970    688.000    691.237     -3.237    477.229    684.168    477.229    484.306    477.229
 96.070    688.000    690.239     -2.239    476.996    683.292    476.996    483.945    476.996
 96.170    674.417    697.377    -22.959    476.763    690.522    476.763    483.613    476.763
 96.270    722.181    713.324      8.857    476.529    706.532    476.529    483.309    476.529
 96.370    685.602    738.513    -52.911    476.295    731.757    476.295    483.031    476.295
 96.470    772.302    773.105     -0.803    476.060    766.361    476.060    482.777    476.060
 96.570    806.000    816.942    -10.942    475.825    810.187    475.825    482.547    475.825
 96.670    891.000    869.482     21.518    475.589    862.693    475.589    482.339    475.589
 96.770    891.978    929.739    -37.761    475.352    922.895    475.352    482.152    475.352
 96.870    971.000    996.220    -25.220    475.115    989.303    475.115    481.986    475.115
 96.970   1124.269   1066.894     57.374    474.877   1059.884    474.877    481.842    474.877
 97.070   1201.000   1139.171     61.829    474.639   1132.049    474.639    481.718    474.639
 97.170   1167.000   1209.928    -42.928    474.401   1202.675    474.401    481.617    474.401
 97.270   1281.000   1275.596      5.404    474.162   1268.192    474.162    481.538    474.162
 97.370   1267.882   1332.343    -64.461    473.922   1324.768    473.922    481.482    473.922
 97.470   1347.000   1376.421    -29.421    473.682   1368.652    473.682    481.453    473.682
 97.570   1363.000   1404.673    -41.673    473.442   1396.684    473.442    481.451    473.442
 97.670   1364.624   1415.115    -50.491    473.202   1406.876    473.202    481.479    473.202
 97.770   1347.425   1407.273    -59.848    472.960   1398.750    472.960    481.541    472.960
 97.870   1425.058   1382.294     42.764    472.719   1373.447    472.719    481.640    472.719
 97.970   1389.000   1342.638     46.362    472.477   1333.422    472.477    481.780    472.477
 98.070   1326.077   1291.589     34.488    472.235   1281.953    472.235    481.966    472.235
 98.170   1255.000   1232.779     22.221    471.993   1222.668    471.993    482.204    471.993
 98.270   1152.000   1169.847    -17.847    471.750   1159.199    471.750    482.499    471.750
 98.370   1150.000   1106.220     43.780    471.507   1094.967    471.507    482.858    471.507
 98.470   1033.000   1044.994    -11.994    471.264   1033.063    471.264    483.288    471.264
 98.570    947.927    988.883    -40.956    471.021    976.191    471.021    483.797    471.021
 98.670    954.000    940.193     13.807    470.777    926.652    470.777    484.392    470.777
 98.770    952.751    900.831     51.921    470.534    886.346    470.534    485.083    470.534
 98.870    830.517    872.318    -41.801    470.290    856.785    470.290    485.876    470.290
 98.970    853.757    855.815     -2.059    470.045    839.123    470.045    486.782    470.045
 99.070    855.000    852.153      2.847    469.801    834.181    469.801    487.809    469.801
 99.170    845.000    861.862    -16.862    469.557    842.484    469.557    488.963    469.557
 99.270    895.000    885.193      9.807    469.312    864.275    469.312    490.254    469.312
 99.370    885.319    922.126    -36.807    469.068    899.527    469.068    491.687    469.068
 99.470    960.000    972.347    -12.347    468.823    947.923    468.823    493.268    468.823
 99.570   1010.000   1035.219    -25.219    468.578   1008.821    468.578    495.001    468.578
 99.670   1113.559   1109.730      3.829    468.334   1081.209    468.334    496.886    468.334
 99.770   1190.000   1194.438     -4.438    468.089   1163.646    468.089    498.923    468.089
 99.870   1285.000   1287.418     -2.418    467.844   1254.211    467.844    501.108    467.844
 99.970   1337.680   1386.227    -48.548    467.600   1350.470    467.600    503.432    467.600
100.070   1491.000   1487.902      3.098    467.355   1449.471    467.355    505.882    467.355
100.170   1608.000   1589.026     18.974    467.110   1547.819    467.110    508.440    467.110
100.270   1630.365   1685.894    -55.528    466.866   1641.833    466.866    511.078    466.866
100.370   1731.470   1774.775    -43.305    466.622   1727.816    466.622    513.762    466.622
100.470   1942.000   1852.229     89.771    466.378   1802.371    466.378    516.446    466.378
100.570   1965.000   1915.362     49.638    466.134   1862.659    466.134    519.077    466.134
100.670   1971.000   1961.945      9.055    465.890   1906.515    465.890    521.587    465.890
100.770   1945.724   1990.367    -44.643    465.646   1932.401    465.646    523.901    465.646
100.870   2084.316   1999.570     84.746    465.403   1939.341    465.403    525.939    465.403
100.970   1999.000   1989.127      9.873    465.160   1926.992    465.160    527.615    465.160
101.070   2062.000   1959.474    102.526    464.917   1895.866    464.917    528.852    464.917
101.170   1867.789   1912.181    -44.391    464.674   1847.600    464.674    529.583    464.674
101.270   1846.000   1850.051     -4.051    464.432   1785.044    464.432    529.763    464.432
101.370   1715.000   1776.905    -61.905    464.190   1712.039    464.190    529.371    464.190
101.470   1737.000   1697.107     39.893    463.949   1632.940    463.949    528.415    463.949
101.570   1556.867   1615.014    -58.147    463.708   1552.072    463.708    526.932    463.708
101.670   1474.000   1534.529    -60.529    463.467   1473.278    463.467    524.980    463.467
101.770   1481.879   1458.860     23.019    463.226   1399.695    463.226    522.634    463.226
101.870   1402.000   1390.296     11.704    462.987   1333.531    462.987    519.975    462.987
101.970   1323.000   1330.241     -7.241    462.747   1276.106    462.747    517.087    462.747
102.070   1270.000   1279.226     -9.226    462.508   1227.874    462.508    514.048    462.508
102.170   1240.000   1236.976      3.024    462.270   1188.490    462.270    510.929    462.270
102.270   1224.643   1202.502     22.141    462.032   1156.907    462.032    507.790    462.032
102.370   1144.000   1174.229    -30.229    461.795   1131.499    461.795    504.679    461.795
102.470   1129.000   1150.158    -21.158    461.559   1110.229    461.559    501.635    461.559
102.570   1097.365   1128.086    -30.721    461.323   1090.863    461.323    498.689    461.323
102.670   1144.000   1105.870     38.130    461.087   1071.236    461.087    495.862    461.087
102.770   1069.278   1081.714    -12.436    460.853   1049.536    460.853    493.170    460.853
102.870   1084.000   1054.403     29.597    460.619   1024.534    460.619    490.623    460.619
102.970    967.000   1023.409    -56.409    460.386    995.700    460.386    488.228    460.386
103.070    960.517    988.857    -28.341    460.153    963.153    460.153    485.986    460.153
103.170    925.000    951.362    -26.362    459.922    927.509    459.922    483.897    459.922
103.270    916.158    911.833      4.325    459.691    889.681    459.691    481.958    459.691
103.370    882.000    871.303     10.697    459.461    850.705    459.461    480.165    459.461
103.470    820.000    830.802    -10.802    459.232    811.620    459.232    478.512    459.232
103.570    871.000    791.280     79.720    459.003    773.381    459.003    476.991    459.003
103.670    769.000    753.559     15.441    458.776    736.819    458.776    475.595    458.776
103.770    732.000    718.305     13.695    458.550    702.610    458.550    474.315    458.550
103.870    677.508    686.013     -8.506    458.324    671.255    458.324    473.143    458.324
103.970    685.000    657.002     27.998    458.100    643.083    458.100    472.071    458.100
104.070    650.000    631.422     18.578    457.877    618.254    457.877    471.089    457.877
104.170    595.519    609.275    -13.756    457.654    596.776    457.654    470.191    457.654
104.270    585.297    590.437     -5.140    457.433    578.535    457.433    469.367    457.433
104.370    577.187    574.691      2.497    457.213    563.319    457.213    468.610    457.213
104.470    574.000    561.753     12.247    456.994    550.853    456.994    467.915    456.994
104.570    590.000    551.312     38.688    456.776    540.832    456.776    467.274    456.776
104.670    532.571    543.046    -10.475    456.559    532.938    456.559    466.681    456.559
104.770    529.000    536.650     -7.650    456.344    526.873    456.344    466.132    456.344
104.870    564.771    531.847     32.923    456.130    522.364    456.130    465.621    456.130
104.970    538.000    528.402      9.598    455.917    519.179    455.917    465.146    455.917
105.070    544.000    526.126     17.874    455.705    517.134    455.705    464.701    455.705
105.170    507.803    524.875    -17.072    455.495    516.087    455.495    464.285    455.495
105.270    558.000    524.553     33.447    455.286    515.946    455.286    463.893    455.286
105.370    489.742    525.105    -35.363    455.079    516.658    455.079    463.525    455.079
105.470    555.000    526.514     28.486    454.873    518.207    454.873    463.177    454.873
105.570    542.322    528.794     13.529    454.669    520.609    454.669    462.848    454.669
105.670    562.000    531.984     30.016    454.466    523.906    454.466    462.537    454.466
105.770    550.888    536.140     14.749    454.264    528.153    454.264    462.242    454.264
105.870    511.508    541.322    -29.814    454.064    533.412    454.064    461.962    454.064
105.970    548.006    547.586      0.420    453.866    539.741    453.866    461.697    453.866
106.070    581.000    554.967     26.033    453.669    547.175    453.669    461.444    453.669
106.170    520.000    563.471    -43.471    453.474    555.720    453.474    461.205    453.474
106.270    596.000    573.060     22.940    453.281    565.340    453.281    460.978    453.281
106.370    616.348    583.650     32.698    453.089    575.950    453.089    460.763    453.089
106.470    604.257    595.100      9.157    452.899    587.411    452.899    460.560    452.899
106.570    652.014    607.215     44.799    452.711    599.528    452.711    460.368    452.711
106.670    615.706    619.745     -4.039    452.525    612.050    452.525    460.187    452.525
106.770    644.978    632.387     12.591    452.340    624.677    452.340    460.016    452.340
106.870    606.000    644.795    -38.795    452.158    637.061    452.158    459.856    452.158
106.970    675.297    656.600     18.697    451.977    648.834    451.977    459.707    451.977
107.070    627.000    667.416    -40.416    451.798    659.609    451.798    459.568    451.798
107.170    690.708    676.879     13.829    451.621    669.025    451.621    459.440    451.621
107.270    656.000    684.688    -28.688    451.447    676.779    451.447    459.323    451.447
107.370    669.126    690.654    -21.527    451.274    682.682    451.274    459.216    451.274
107.470    694.000    694.729     -0.729    451.104    686.686    451.104    459.119    451.104
107.570    649.000    697.028    -48.028    450.935    688.906    450.935    459.034    450.935
107.670    681.000    697.812    -16.812    450.769    689.603    450.769    458.960    450.769
107.770    664.000    697.440    -33.440    450.605    689.135    450.605    458.896    450.605
107.870    665.000    696.319    -31.319    450.443    687.908    450.443    458.844    450.443
107.970    679.000    694.845    -15.845    450.283    686.320    450.283    458.804    450.283
108.070    732.308    693.381     38.927    450.126    684.731    450.126    458.776    450.126
108.170    635.000    692.189    -57.189    449.971    683.404    449.971    458.761    449.971
108.270    685.000    691.438     -6.438    449.818    682.508    449.818    458.758    449.818
108.370    628.000    691.190    -63.190    449.668    682.104    449.668    458.768    449.668
108.470    654.000    691.394    -37.394    449.520    682.140    449.520    458.792    449.520
108.570    664.000    691.889    -27.889    449.375    682.455    449.375    458.831    449.375
108.670    695.288    692.417      2.870    449.232    682.791    449.232    458.885    449.232
108.770    681.056    692.644    -11.588    449.092    682.811    449.092    458.954    449.092
108.870    718.000    692.188     25.812    448.955    682.134    448.955    459.041    448.955
108.970    674.000    690.670    -16.670    448.820    680.381    448.820    459.144    448.820
109.070    681.000    687.768     -6.768    448.687    677.226    448.687    459.267    448.687
109.170    652.683    683.263    -30.579    448.558    672.450    448.558    459.410    448.558
109.270    671.201    677.077     -5.875    448.431    665.974    448.431    459.574    448.431
109.370    648.000    669.279    -21.279    448.307    657.866    448.307    459.761    448.307
109.470    693.114    660.066     33.048    448.186    648.319    448.186    459.972    448.186
109.570    663.000    649.723     13.277    448.067    637.618    448.067    460.210    448.067
109.670    662.000    638.582     23.418    447.952    626.093    447.952    460.477    447.952
109.770    650.000    626.989     23.011    447.839    614.088    447.839    460.775    447.839
109.870    576.066    615.278    -39.211    447.730    601.932    447.730    461.108    447.730
109.970    602.000    603.752     -1.752    447.623    589.927    447.623    461.477    447.623
110.070    628.000    592.677     35.323    447.519    578.336    447.519    461.887    447.519
110.170    591.619    582.277      9.342    447.419    567.378    447.419    462.342    447.419
110.270    566.000    572.731     -6.731    447.322    557.228    447.322    462.845    447.322
110.370    610.000    564.169     45.831    447.228    548.013    447.228    463.402    447.228
110.470    584.000    556.679     27.321    447.137    539.813    447.137    464.018    447.137
110.570    538.329    550.304    -11.975    447.049    532.668    447.049    464.698    447.049
110.670    577.000    545.053     31.947    446.965    526.579    446.965    465.449    446.965
110.770    560.000    540.901     19.099    446.884    521.516    446.884    466.277    446.884
110.870    593.000    537.801     55.199    446.806    517.423    446.806    467.190    446.806
110.970    538.000    535.685      2.315    446.732    514.226    446.732    468.196    446.732
111.070    554.000    534.477     19.523    446.662    511.839    446.662    469.303    446.662
111.170    520.000    534.093    -14.093    446.594    510.170    446.594    470.519    446.594
111.270    534.000    534.449     -0.449    446.531    509.125    446.531    471.855    446.531
111.370    529.133    535.465     -6.333    446.471    508.616    446.471    473.319    446.471
111.470    538.000    537.067      0.933    446.414    508.557    446.414    474.922    446.414
111.570    532.000    539.189     -7.189    446.362    508.873    446.362    476.674    446.362
111.670    537.000    541.774     -4.774    446.313    509.497    446.313    478.586    446.313
111.770    523.000    544.776    -21.776    446.268    510.373    446.268    480.667    446.268
111.870    562.558    548.161     14.397    446.226    511.455    446.226    482.928    446.226
111.970    557.055    551.904      5.152    446.189    512.709    446.189    485.378    446.189
112.070    559.583    555.991      3.592    446.155    514.113    446.155    488.027    446.155
112.170    517.427    560.420    -42.993    446.125    515.656    446.125    490.884    446.125
112.270    583.000    565.199     17.801    446.100    517.338    446.100    493.955    446.100
112.370    552.000    570.347    -18.347    446.078    519.171    446.078    497.248    446.078
112.470    587.000    575.890     11.110    446.061    521.178    446.061    500.767    446.061
112.570    558.131    581.866    -23.735    446.047    523.391    446.047    504.515    446.047
112.670    548.000    588.320    -40.320    446.038    525.858    446.038    508.493    446.038
112.770    580.000    595.309    -15.309    446.033    528.635    446.033    512.699    446.033
112.870    588.000    602.905    -14.905    446.032    531.801    446.032    517.129    446.032
112.970    607.269    611.200     -3.931    446.036    535.454    446.036    521.773    446.036
113.070    589.000    620.304    -31.304    446.044    539.719    446.044    526.620    446.044
113.170    665.784    630.329     35.455    446.056    544.725    446.056    531.651    446.056
113.270    598.846    641.549    -42.703    446.073    550.768    446.073    536.843    446.073
113.370    675.729    654.188     21.541    446.094    558.102    446.094    542.167    446.094
113.470    637.000    668.557    -31.557    446.120    567.077    446.120    547.585    446.120
113.570    608.000    685.069    -77.069    446.151    578.151    446.151    553.051    446.151
113.670    701.000    704.245     -3.245    446.186    591.899    446.186    558.511    446.186
113.770    768.467    726.737     41.730    446.225    609.037    446.225    563.901    446.225
113.870    733.000    753.349    -20.349    446.270    630.443    446.270    569.146    446.270
113.970    781.000    785.059     -4.059    446.319    657.177    446.319    574.163    446.319
114.070    795.000    823.037    -28.037    446.373    690.501    446.373    578.862    446.373
114.170    887.000    868.659     18.341    446.432    731.887    446.432    583.147    446.432
114.270    862.000    923.516    -61.516    446.496    783.021    446.496    586.921    446.496
114.370    942.000    989.407    -47.407    446.565    845.797    446.565    590.090    446.565
114.470   1074.000   1068.322      5.678    446.639    922.289    446.639    592.570    446.639
114.570   1097.137   1162.407    -65.271    446.719   1014.713    446.719    594.290    446.719
114.670   1336.000   1273.907     62.093    446.803   1125.363    446.803    595.200    446.803
114.770   1459.000   1405.082     53.918    446.892   1256.528    446.892    595.275    446.892
114.870   1649.000   1558.113     90.887    446.987   1410.386    446.987    594.515    446.987
114.970   1668.305   1734.969    -66.665    447.087   1588.882    447.087    592.946    447.087
115.070   1969.000   1937.266     31.734    447.192   1793.580    447.192    590.619    447.192
115.170   2182.523   2166.111     16.412    447.303   2025.519    447.303    587.605    447.303
115.270   2467.138   2421.939     45.199    447.419   2285.050    447.419    583.989    447.419
115.370   2688.252   2704.362    -16.109    447.541   2571.692    447.541    579.864    447.541
115.470   2936.791   3012.027    -75.236    447.668   2883.997    447.668    575.328    447.668
115.570   3367.130   3342.510     24.620    447.801   3219.445    447.801    570.476    447.801
115.670   3595.407   3692.233    -96.826    447.940   3574.371    447.940    565.399    447.940
115.770   3987.085   4056.438    -69.353    448.084   3943.936    448.084    560.180    448.084
115.870   4380.959   4429.200    -48.240    448.234   4322.140    448.234    554.893    448.234
115.970   4729.949   4803.489    -73.540    448.390   4701.892    448.390    549.602    448.390
116.070   5142.000   5171.293    -29.293    448.551   5075.128    448.551    544.362    448.551
116.170   5483.502   5523.793    -40.291    448.719   5432.980    448.719    539.219    448.719
116.270   5817.000   5851.602    -34.602    448.892   5766.027    448.892    534.209    448.892
116.370   6030.049   6145.095   -115.046    449.072   6064.615    449.072    529.362    449.072
116.470   6480.000   6394.840     85.160    449.258   6319.285    449.258    524.702    449.258
116.570   6664.223   6592.128     72.095    449.450   6521.311    449.450    520.246    449.450
116.670   6818.000   6729.600     88.400    449.648   6663.316    449.648    516.007    449.648
116.770   6813.000   6801.877     11.123    449.852   6739.912    449.852    511.993    449.852
116.870   6705.289   6806.100   -100.811    450.063   6748.229    450.063    508.210    450.063
116.970   6587.642   6742.232   -154.589    450.280   6688.224    450.280    504.659    450.280
117.070   6555.187   6613.056    -57.869    450.503   6562.677    450.503    501.339    450.503
117.170   6451.163   6423.862     27.301    450.733   6376.879    450.733    498.247    450.733
117.270   6190.000   6181.913      8.087    450.969   6138.092    450.969    495.380    450.969
117.370   5974.937   5895.801     79.137    451.213   5854.917    451.213    492.729    451.213
117.470   5648.904   5574.833     74.071    451.462   5536.667    451.462    490.289    451.462
117.570   5120.435   5228.494   -108.058    451.719   5192.836    451.719    488.050    451.719
117.670   4783.000   4866.023    -83.023    451.982   4832.672    451.982    486.004    451.982
117.770   4451.000   4496.088    -45.088    452.252   4464.857    452.252    484.140    452.252
117.870   4217.181   4126.553     90.628    452.529   4097.264    452.529    482.449    452.529
117.970   3816.000   3764.305     51.695    452.813   3736.793    452.813    480.920    452.813
118.070   3482.000   3415.149     66.851    453.104   3389.262    453.104    479.543    453.104
118.170   3179.000   3083.758     95.242    453.401   3059.357    453.401    478.309    453.401
118.270   2805.000   2773.674     31.326    453.706   2750.630    453.706    477.206    453.706
118.370   2532.000   2487.352     44.648    454.019   2465.548    454.019    476.227    454.019
118.470   2261.000   2226.248     34.752    454.338   2205.578    454.338    475.361    454.338
118.570   2026.971   1990.923     36.049    454.665   1971.292    454.665    474.601    454.665
118.670   1787.588   1781.174      6.414    454.999   1762.495    454.999    473.937    454.999
118.770   1668.663   1596.167     72.495    455.341   1578.363    455.341    473.362    455.341
118.870   1417.000   1434.576    -17.576    455.690   1417.576    455.690    472.869    455.690
118.970   1258.000   1294.712    -36.712    456.046   1278.453    456.046    472.452    456.046
119.070   1141.000   1174.658    -33.658    456.410   1159.082    456.410    472.104    456.410
119.170   1044.000   1072.374    -28.374    456.782   1057.430    456.782    471.819    456.782
119.270    961.000    985.802    -24.802    457.162    971.443    457.162    471.594    457.162
119.370    986.000    912.939     73.061    457.549    899.122    457.549    471.423    457.549
119.470    874.000    851.899     22.101    457.945    838.585    457.945    471.302    457.945
119.570    817.552    800.951     16.602    458.348    788.104    458.348    471.227    458.348
119.670    838.000    758.543     79.457    458.759    746.132    458.759    471.196    458.759
119.770    700.000    723.315    -23.315    459.178    711.307    459.178    471.205    459.178
119.870    657.000    694.088    -37.088    459.605    682.457    459.605    471.251    459.605
119.970    691.409    669.863     21.546    460.041    658.583    460.041    471.333    460.041
120.070    607.000    649.802    -42.802    460.485    638.849    460.485    471.449    460.485
120.170    631.000    633.213     -2.213    460.937    622.563    460.937    471.596    460.937
120.270    649.000    619.524     29.476    461.397    609.157    461.397    471.773    461.397
120.370    555.000    608.276    -53.276    461.866    598.172    461.866    471.978    461.866
120.470    625.000    599.092     25.908    462.343    589.233    462.343    472.211    462.343
120.570    629.104    591.656     37.449    462.829    582.023    462.829    472.470    462.829
120.670    621.944    585.751     36.193    463.323    576.328    463.323    472.755    463.323
120.770    568.000    581.198    -13.198    463.827    571.970    463.827    473.064    463.827
120.870    583.658    577.827      5.831    464.339    568.779    464.339    473.397    464.339
120.970    580.000    575.513      4.487    464.859    566.631    464.859    473.752    464.859
121.070    554.000    574.153    -20.153    465.389    565.424    465.389    474.130    465.389
121.170    578.000    573.660      4.340    465.928    565.071    465.928    474.529    465.928
121.270    572.000    573.959     -1.959    466.475    565.498    466.475    474.950    466.475
121.370    560.339    574.983    -14.644    467.032    566.640    467.032    475.391    467.032
121.470    615.000    576.669     38.331    467.598    568.432    467.598    475.852    467.598
121.570    578.033    578.952     -0.920    468.173    570.813    468.173    476.332    468.173
121.670    573.783    581.770     -7.987    468.758    573.718    468.758    476.831    468.758
121.770    609.329    585.052     24.277    469.351    577.080    469.351    477.348    469.351
121.870    628.825    588.728     40.097    469.955    580.826    469.955    477.882    469.955
121.970    596.097    592.717      3.380    470.567    584.880    470.567    478.433    470.567
122.070    625.000    596.935     28.065    471.190    589.156    471.190    479.001    471.190
122.170    635.000    601.291     33.709    471.822    593.564    471.822    479.583    471.822
122.270    630.000    605.686     24.314    472.463    598.007    472.463    480.180    472.463
122.370    601.000    610.020     -9.020    473.115    602.385    473.115    480.790    473.115
122.470    570.000    614.184    -44.184    473.776    606.591    473.776    481.412    473.776
122.570    640.000    618.071     21.929    474.448    610.519    474.448    482.046    474.448
122.670    600.000    621.577    -21.577    475.129    614.065    475.129    482.689    475.129
122.770    628.000    624.600      3.400    475.820    617.130    475.820    483.341    475.820
122.870    653.000    627.053     25.947    476.522    619.627    476.522    484.001    476.522
122.970    582.117    628.864    -46.747    477.233    621.486    477.233    484.666    477.233
123.070    654.835    629.981     24.854    477.955    622.655    477.955    485.337    477.955
123.170    634.000    630.376      3.624    478.688    623.108    478.688    486.012    478.688
123.270    661.000    630.046     30.954    479.430    622.844    479.430    486.689    479.430
123.370    646.000    629.012     16.988    480.184    621.882    480.184    487.369    480.184
123.470    627.000    627.313     -0.313    480.948    620.265    480.948    488.051    480.948
123.570    604.000    625.007    -21.007    481.722    618.048    481.722    488.735    481.722
123.670    627.000    622.160      4.840    482.507    615.299    482.507    489.420    482.507
123.770    584.000    618.847    -34.847    483.303    612.093    483.303    490.107    483.303
123.870    654.000    615.148     38.852    484.110    608.509    484.110    490.797    484.110
123.970    622.742    611.141     11.601    484.928    604.624    484.928    491.489    484.928
124.070    592.000    606.904    -14.904    485.757    600.515    485.757    492.187    485.757
124.170    600.000    602.511     -2.511    486.597    596.257    486.597    492.889    486.597
124.270    573.000    598.031    -25.031    487.448    591.916    487.448    493.598    487.448
124.370    616.000    593.527     22.473    488.310    587.555    488.310    494.315    488.310
124.470    590.000    589.054      0.946    489.184    583.227    489.184    495.040    489.184
124.570    608.000    584.660     23.340    490.069    578.981    490.069    495.775    490.069
124.670    562.446    580.385    -17.939    490.966    574.854    490.966    496.520    490.966
124.770    557.000    576.261    -19.261    491.874    570.878    491.874    497.278    491.874
124.870    538.369    572.313    -33.944    492.794    567.077    492.794    498.048    492.794
124.970    616.000    568.561     47.439    493.725    563.471    493.725    498.831    493.725
