neutron_powder_diffraction_0169
R_wp: 3.890
Temperature (K): 1074.000
Counts: 84238.00
Wavelength (Ã…): 2.52098
COMMENTS
Test file for demonstrating the .xyy file format in Reel1.0
END OF HEADER
   tth       Y_obs     Y_calc      Y_res    Background    Phase_1_Nuc    Phase_1_Mag    Phase_2_Nuc    Phase_2_Mag
  9.970    552.000    569.693    -17.693    568.961    569.630    568.961    569.024    568.961
 10.070    538.076    569.902    -31.826    569.111    569.838    569.111    569.175    569.111
 10.170    540.689    570.112    -29.423    569.255    570.048    569.255    569.319    569.255
 10.270    583.000    570.326     12.674    569.393    570.261    569.393    569.457    569.393
 10.370    545.351    570.545    -25.194    569.524    570.480    569.524    569.588    569.524
 10.470    586.000    570.773     15.227    569.648    570.708    569.648    569.713    569.648
 10.570    626.000    571.014     54.986    569.766    570.948    569.766    569.831    569.766
 10.670    547.000    571.271    -24.271    569.878    571.206    569.878    569.943    569.878
 10.770    610.000    571.553     38.447    569.983    571.487    569.983    570.048    569.983
 10.870    573.000    571.868      1.132    570.082    571.801    570.082    570.147    570.082
 10.970    598.000    572.228     25.772    570.175    572.161    570.175    570.240    570.175
 11.070    593.000    572.653     20.347    570.261    572.585    570.261    570.327    570.261
 11.170    594.000    573.166     20.834    570.342    573.098    570.342    570.408    570.342
 11.270    568.910    573.808     -4.898    570.416    573.740    570.416    570.483    570.416
 11.370    550.732    574.649    -23.918    570.485    574.580    570.485    570.552    570.485
 11.470    587.552    575.843     11.709    570.547    575.772    570.547    570.615    570.547
 11.570    595.000    577.810     17.190    570.604    577.738    570.604    570.672    570.604
 11.670    597.000    581.730     15.270    570.655    581.656    570.655    570.723    570.655
 11.770    638.000    590.299     47.701    570.700    590.220    570.700    570.769    570.700
 11.870    623.493    607.784     15.710    570.740    607.695    570.740    570.809    570.740
 11.970    645.000    637.406      7.594    570.774    637.301    570.774    570.843    570.774
 12.070    679.000    675.297      3.703    570.802    675.170    570.802    570.872    570.802
 12.170    750.342    705.020     45.322    570.825    704.876    570.825    570.895    570.825
 12.270    712.000    706.006      5.994    570.842    705.861    570.842    570.913    570.842
 12.370    706.556    677.390     29.166    570.854    677.256    570.854    570.929    570.854
 12.470    638.468    639.375     -0.908    570.861    639.261    570.861    570.938    570.861
 12.570    615.000    609.129      5.871    570.862    609.030    570.862    570.939    570.862
 12.670    604.000    591.092     12.908    570.858    591.004    570.858    570.936    570.858
 12.770    538.000    582.222    -44.222    570.849    582.138    570.849    570.927    570.849
 12.870    597.855    578.192     19.662    570.835    578.110    570.835    570.913    570.835
 12.970    563.585    576.208    -12.623    570.816    576.127    570.816    570.894    570.816
 13.070    545.000    575.032    -30.032    570.791    574.951    570.791    570.870    570.791
 13.170    563.000    574.220    -11.220    570.762    574.139    570.762    570.841    570.762
 13.270    584.000    573.612     10.388    570.728    573.531    570.728    570.807    570.728
 13.370    528.536    573.138    -44.602    570.688    573.057    570.688    570.768    570.688
 13.470    540.000    572.756    -32.756    570.644    572.674    570.644    570.725    570.644
 13.570    504.000    572.440    -68.440    570.596    572.358    570.596    570.676    570.596
 13.670    543.000    572.171    -29.171    570.542    572.089    570.542    570.623    570.542
 13.770    556.000    571.937    -15.937    570.484    571.855    570.484    570.566    570.484
 13.870    574.000    571.730      2.270    570.421    571.647    570.421    570.503    570.421
 13.970    584.078    571.541     12.537    570.354    571.458    570.354    570.436    570.354
 14.070    555.000    571.368    -16.368    570.282    571.285    570.282    570.365    570.282
 14.170    535.000    571.208    -36.208    570.206    571.125    570.206    570.289    570.206
 14.270    581.000    571.055      9.945    570.125    570.971    570.125    570.209    570.125
 14.370    547.537    570.907    -23.369    570.040    570.822    570.040    570.124    570.040
 14.470    599.000    570.762     28.238    569.950    570.677    569.950    570.035    569.950
 14.570    572.575    570.620      1.955    569.857    570.535    569.857    569.942    569.857
 14.670    534.000    570.480    -36.480    569.759    570.395    569.759    569.844    569.759
 14.770    591.000    570.341     20.659    569.657    570.255    569.657    569.743    569.657
 14.870    589.000    570.203     18.797    569.550    570.116    569.550    569.637    569.550
 14.970    588.787    570.064     18.722    569.440    569.977    569.440    569.527    569.440
 15.070    562.000    569.926     -7.926    569.326    569.839    569.326    569.413    569.326
 15.170    593.135    569.785     23.350    569.207    569.697    569.207    569.295    569.207
 15.270    605.803    569.643     36.160    569.085    569.554    569.085    569.174    569.085
 15.370    575.000    569.499      5.501    568.959    569.410    568.959    569.048    568.959
 15.470    530.000    569.352    -39.352    568.829    569.263    568.829    568.918    568.829
 15.570    582.000    569.204     12.796    568.696    569.114    568.696    568.785    568.696
 15.670    594.000    569.054     24.946    568.558    568.963    568.558    568.648    568.558
 15.770    555.000    568.901    -13.901    568.417    568.810    568.417    568.508    568.417
 15.870    629.000    568.746     60.254    568.272    568.654    568.272    568.363    568.272
 15.970    571.000    568.588      2.412    568.124    568.496    568.124    568.215    568.124
 16.070    564.308    568.427     -4.119    567.972    568.335    567.972    568.064    567.972
 16.170    523.000    568.265    -45.265    567.816    568.172    567.816    567.909    567.816
 16.270    591.000    568.099     22.901    567.657    568.006    567.657    567.751    567.657
 16.370    562.000    567.931     -5.931    567.495    567.837    567.495    567.589    567.495
 16.470    560.000    567.760     -7.760    567.329    567.665    567.329    567.424    567.329
 16.570    556.000    567.586    -11.586    567.160    567.491    567.160    567.255    567.160
 16.670    614.000    567.410     46.590    566.988    567.314    566.988    567.083    566.988
 16.770    525.357    567.231    -41.875    566.812    567.135    566.812    566.908    566.812
 16.870    577.000    567.052      9.948    566.633    566.955    566.633    566.730    566.633
 16.970    590.000    566.868     23.132    566.451    566.770    566.451    566.549    566.451
 17.070    603.756    566.681     37.075    566.266    566.583    566.266    566.364    566.266
 17.170    610.000    566.491     43.509    566.078    566.393    566.078    566.177    566.078
 17.270    567.000    566.299      0.701    565.887    566.200    565.887    565.986    565.887
 17.370    561.000    566.104     -5.104    565.693    566.004    565.693    565.793    565.693
 17.470    575.876    565.907      9.969    565.496    565.806    565.496    565.596    565.496
 17.570    567.000    565.706      1.294    565.295    565.605    565.295    565.397    565.295
 17.670    566.000    565.504      0.496    565.093    565.402    565.093    565.195    565.093
 17.770    508.000    565.299    -57.299    564.887    565.196    564.887    564.990    564.887
 17.870    566.000    565.094      0.906    564.678    564.989    564.678    564.784    564.678
 17.970    610.211    564.886     45.325    564.467    564.779    564.467    564.574    564.467
 18.070    510.000    564.673    -54.673    564.253    564.566    564.253    564.361    564.253
 18.170    505.000    564.459    -59.459    564.037    564.350    564.037    564.145    564.037
 18.270    554.000    564.242    -10.242    563.818    564.132    563.818    563.927    563.818
 18.370    592.000    564.023     27.977    563.596    563.912    563.596    563.706    563.596
 18.470    570.245    563.801      6.444    563.372    563.690    563.372    563.483    563.372
 18.570    545.000    563.577    -18.577    563.145    563.466    563.145    563.257    563.145
 18.670    566.000    563.352      2.648    562.916    563.239    562.916    563.028    562.916
 18.770    560.137    563.124     -2.987    562.684    563.010    562.684    562.797    562.684
 18.870    521.878    562.895    -41.016    562.450    562.780    562.450    562.564    562.450
 18.970    566.324    562.664      3.660    562.214    562.548    562.214    562.329    562.214
 19.070    594.538    562.430     32.108    561.975    562.314    561.975    562.091    561.975
 19.170    554.000    562.194     -8.194    561.734    562.077    561.734    561.851    561.734
 19.270    573.000    561.956     11.044    561.491    561.838    561.491    561.609    561.491
 19.370    539.123    561.717    -22.595    561.246    561.599    561.246    561.365    561.246
 19.470    529.000    561.490    -32.490    560.998    561.370    560.998    561.118    560.998
 19.570    526.000    561.257    -35.257    560.749    561.136    560.749    560.869    560.749
 19.670    579.958    561.013     18.945    560.497    560.891    560.497    560.619    560.497
 19.770    525.508    560.767    -35.258    560.244    560.644    560.244    560.366    560.244
 19.870    589.000    560.519     28.481    559.988    560.395    559.988    560.112    559.988
 19.970    556.000    560.269     -4.269    559.730    560.144    559.730    559.855    559.730
 20.070    602.265    560.018     42.247    559.471    559.892    559.471    559.597    559.471
 20.170    570.000    559.766     10.234    559.209    559.639    559.209    559.336    559.209
 20.270    559.000    559.512     -0.512    558.946    559.384    558.946    559.074    558.946
 20.370    517.086    559.257    -42.171    558.681    559.128    558.681    558.810    558.681
 20.470    544.000    559.001    -15.001    558.414    558.870    558.414    558.545    558.414
 20.570    542.000    558.743    -16.743    558.146    558.612    558.146    558.278    558.146
 20.670    599.000    558.485     40.515    557.875    558.352    557.875    558.009    557.875
 20.770    535.000    558.226    -23.226    557.604    558.091    557.604    557.738    557.604
 20.870    548.967    557.974     -9.007    557.330    557.838    557.330    557.466    557.330
 20.970    594.938    557.800     37.138    557.055    557.663    557.055    557.192    557.055
 21.070    538.967    557.561    -18.595    556.778    557.423    556.778    556.916    556.778
 21.170    557.000    557.301     -0.301    556.500    557.161    556.500    556.640    556.500
 21.270    540.518    557.038    -16.520    556.220    556.897    556.220    556.361    556.220
 21.370    523.727    556.776    -33.049    555.939    556.633    555.939    556.082    555.939
 21.470    574.000    556.513     17.487    555.656    556.368    555.656    555.800    555.656
 21.570    549.000    556.252     -7.252    555.372    556.106    555.372    555.518    555.372
 21.670    595.567    556.011     39.556    555.086    555.863    555.086    555.234    555.086
 21.770    509.000    555.777    -46.777    554.800    555.628    554.800    554.949    554.800
 21.870    587.416    555.523     31.893    554.512    555.372    554.512    554.663    554.512
 21.970    525.731    555.311    -29.580    554.222    555.158    554.222    554.375    554.222
 22.070    581.024    555.075     25.950    553.932    554.920    553.932    554.087    553.932
 22.170    552.000    554.819     -2.819    553.640    554.663    553.640    553.797    553.640
 22.270    557.197    554.564      2.632    553.347    554.406    553.347    553.506    553.347
 22.370    549.000    554.312     -5.312    553.053    554.151    553.053    553.214    553.053
 22.470    530.000    554.062    -24.062    552.758    553.900    552.758    552.921    552.758
 22.570    559.000    553.818      5.182    552.462    553.653    552.462    552.627    552.462
 22.670    551.000    553.580     -2.580    552.164    553.412    552.164    552.332    552.164
 22.770    549.906    553.345     -3.439    551.866    553.175    551.866    552.036    551.866
 22.870    554.024    553.117      0.907    551.567    552.945    551.567    551.739    551.567
 22.970    578.820    552.898     25.922    551.266    552.723    551.266    551.441    551.266
 23.070    549.000    552.690     -3.690    550.965    552.513    550.965    551.143    550.965
 23.170    529.094    552.495    -23.402    550.663    552.316    550.663    550.843    550.663
 23.270    593.000    552.319     40.681    550.360    552.136    550.360    550.543    550.360
 23.370    518.000    552.164    -34.164    550.056    551.979    550.056    550.242    550.056
 23.470    585.000    552.039     32.961    549.752    551.851    549.752    549.941    549.752
 23.570    553.215    551.953      1.262    549.446    551.762    549.446    549.639    549.446
 23.670    547.506    551.919     -4.412    549.140    551.724    549.140    549.336    549.140
 23.770    542.390    551.956     -9.566    548.834    551.758    548.834    549.033    548.834
 23.870    564.312    552.096     12.215    548.526    551.895    548.526    548.729    548.526
 23.970    532.000    552.396    -20.396    548.218    552.192    548.218    548.425    548.218
 24.070    546.000    552.993     -6.993    547.909    552.784    547.909    548.120    547.909
 24.170    592.609    554.264     38.345    547.600    554.053    547.600    547.815    547.600
 24.270    564.054    557.202      6.852    547.290    556.989    547.290    547.509    547.290
 24.370    526.326    563.839    -37.513    546.979    563.625    546.979    547.204    546.979
 24.470    588.000    576.910     11.090    546.668    576.701    546.668    546.897    546.668
 24.570    555.399    597.656    -42.257    546.357    597.457    546.357    546.591    546.357
 24.670    631.000    622.025      8.975    546.045    621.839    546.045    546.285    546.045
 24.770    670.000    638.108     31.892    545.732    637.928    545.732    545.978    545.732
 24.870    668.000    634.166     33.834    545.419    633.977    545.419    545.671    545.419
 24.970    568.385    613.388    -45.002    545.106    613.178    545.106    545.364    545.106
 25.070    622.000    588.959     33.041    544.793    588.724    544.793    545.058    544.793
 25.170    566.000    570.162     -4.162    544.479    569.907    544.479    544.751    544.479
 25.270    515.397    558.925    -43.528    544.164    558.654    544.164    544.445    544.164
 25.370    525.223    553.207    -27.984    543.850    552.924    543.850    544.138    543.850
 25.470    579.220    550.423     28.797    543.535    550.129    543.535    543.832    543.535
 25.570    571.218    548.915     22.303    543.220    548.611    543.220    543.527    543.220
 25.670    564.000    547.938     16.062    542.905    547.624    542.905    543.222    542.905
 25.770    564.000    547.239     16.761    542.590    546.913    542.590    542.917    542.590
 25.870    531.000    546.686    -15.686    542.274    546.348    542.274    542.613    542.274
 25.970    580.000    546.217     33.783    541.958    545.867    541.958    542.310    541.958
 26.070    556.000    545.830     10.170    541.643    545.465    541.643    542.008    541.643
 26.170    566.000    545.502     20.498    541.327    545.122    541.327    541.706    541.327
 26.270    579.000    545.236     33.764    541.011    544.841    541.011    541.406    541.011
 26.370    566.000    545.031     20.969    540.695    544.618    540.695    541.108    540.695
 26.470    582.000    544.865     37.135    540.379    544.434    540.379    540.810    540.379
 26.570    578.189    544.763     33.427    540.063    544.311    540.063    540.515    540.063
 26.670    536.000    544.733     -8.733    539.747    544.258    539.747    540.221    539.747
 26.770    567.000    544.749     22.251    539.431    544.249    539.431    539.930    539.431
 26.870    530.000    544.843    -14.843    539.115    544.317    539.115    539.642    539.115
 26.970    516.019    545.038    -29.019    538.800    544.481    538.800    539.356    538.800
 27.070    603.000    545.360     57.640    538.484    544.769    538.484    539.074    538.484
 27.170    523.000    545.847    -22.847    538.169    545.219    538.169    538.796    538.169
 27.270    544.000    546.560     -2.560    537.854    545.889    537.854    538.523    537.854
 27.370    527.868    547.587    -19.719    537.539    546.869    537.539    538.255    537.539
 27.470    571.000    549.100     21.900    537.224    548.328    537.224    537.994    537.224
 27.570    520.686    551.523    -30.837    536.909    550.690    536.909    537.740    536.909
 27.670    619.000    556.337     62.663    536.595    555.433    536.595    537.495    536.595
 27.770    582.000    568.235     13.765    536.281    567.247    536.281    537.261    536.281
 27.870    630.875    598.447     32.428    535.967    597.356    535.967    537.040    535.967
 27.970    702.653    663.446     39.207    535.654    662.226    535.654    536.834    535.654
 28.070    747.000    769.379    -22.379    535.341    768.001    535.341    536.648    535.341
 28.170    846.618    886.369    -39.751    535.028    884.813    535.028    536.487    535.028
 28.270    971.276    944.068     27.208    534.716    942.333    534.716    536.356    534.716
 28.370    868.000    896.081    -28.081    534.404    894.158    534.404    536.266    534.404
 28.470    794.263    792.174      2.090    534.092    790.009    534.092    536.230    534.092
 28.570    718.000    711.308      6.692    533.781    708.804    533.781    536.272    533.781
 28.670    711.000    694.355     16.645    533.471    691.383    533.471    536.428    533.471
 28.770    688.050    737.095    -49.045    533.160    733.483    533.160    536.754    533.160
 28.870    775.944    801.880    -25.936    532.851    797.386    532.851    537.332    532.851
 28.970    829.000    832.391     -3.391    532.542    826.660    532.542    538.274    532.542
 29.070    777.000    795.136    -18.136    532.233    787.670    532.233    539.710    532.233
 29.170    659.000    718.849    -59.849    531.925    709.016    531.925    541.769    531.925
 29.270    639.000    648.052     -9.052    531.618    635.146    531.618    544.531    531.618
 29.370    636.000    603.095     32.905    531.311    586.478    531.311    547.931    531.311
 29.470    577.177    581.956     -4.779    531.005    561.369    531.005    551.592    531.005
 29.570    579.000    574.093      4.907    530.699    550.160    530.699    554.631    530.699
 29.670    610.302    570.507     39.796    530.394    545.083    530.394    555.817    530.394
 29.770    581.926    566.695     15.231    530.090    542.339    530.090    554.444    530.090
 29.870    560.342    561.815     -1.473    529.786    540.557    529.786    551.043    529.786
 29.970    558.286    556.642      1.644    529.484    539.304    529.484    546.819    529.484
 30.070    565.000    551.995     13.005    529.181    538.441    529.181    542.734    529.181
 30.170    575.000    548.307     26.693    528.880    537.943    528.880    539.243    528.880
 30.270    514.009    545.803    -31.794    528.579    537.927    528.579    536.453    528.579
 30.370    556.000    544.873     11.127    528.279    538.843    528.279    534.306    528.279
 30.470    561.000    546.542     14.458    527.980    541.839    527.980    532.677    527.980
 30.570    565.371    552.731     12.640    527.682    548.967    527.682    531.434    527.682
 30.670    580.000    565.473     14.527    527.385    562.372    527.385    530.463    527.385
 30.770    589.000    584.476      4.524    527.088    581.852    527.088    529.675    527.088
 30.870    636.000    604.073     31.927    526.792    601.805    526.792    529.010    526.792
 30.970    640.000    612.947     27.053    526.497    610.962    526.497    528.428    526.497
 31.070    566.639    603.612    -36.973    526.203    601.865    526.203    527.906    526.203
 31.170    585.694    583.000      2.694    525.910    581.454    525.910    527.426    525.910
 31.270    553.000    562.417     -9.417    525.618    561.039    525.618    526.980    525.618
 31.370    522.000    547.753    -25.753    525.327    546.513    525.327    526.559    525.327
 31.470    529.000    539.415    -10.415    525.036    538.287    525.036    526.159    525.036
 31.570    552.000    535.296     16.704    524.747    534.264    524.747    525.776    524.747
 31.670    534.000    533.297      0.703    524.458    532.345    524.458    525.408    524.458
 31.770    494.337    532.201    -37.864    524.171    531.320    524.171    525.051    524.171
 31.870    502.000    531.496    -29.496    523.885    530.674    523.885    524.704    523.885
 31.970    533.382    530.999      2.384    523.599    530.230    523.599    524.366    523.599
 32.070    543.000    530.648     12.352    523.315    529.926    523.315    524.035    523.315
 32.170    521.000    530.419     -9.419    523.031    529.739    523.031    523.711    523.031
 32.270    573.000    530.304     42.696    522.749    529.660    522.749    523.392    522.749
 32.370    528.865    530.303     -1.438    522.468    529.691    522.468    523.079    522.468
 32.470    510.543    530.425    -19.882    522.188    529.842    522.188    522.770    522.188
 32.570    538.000    530.686      7.314    521.909    530.129    521.909    522.465    521.909
 32.670    543.000    531.114     11.886    521.631    530.580    521.631    522.164    521.631
 32.770    557.000    531.748     25.252    521.354    531.235    521.354    521.866    521.354
 32.870    539.000    532.646      6.354    521.079    532.152    521.079    521.571    521.079
 32.970    568.009    533.893     34.117    520.804    533.416    520.804    521.280    520.804
 33.070    562.239    535.623     26.616    520.531    535.161    520.531    520.991    520.531
 33.170    564.000    538.083     25.917    520.259    537.635    520.259    520.705    520.259
 33.270    580.432    541.840     38.592    519.988    541.404    519.988    520.421    519.988
 33.370    584.715    548.411     36.304    519.718    547.986    519.718    520.139    519.718
 33.470    554.000    561.662     -7.662    519.449    561.245    519.449    519.860    519.449
 33.570    621.898    589.686     32.212    519.182    589.274    519.182    519.583    519.182
 33.670    657.000    644.855     12.145    518.916    644.442    518.916    519.308    518.916
 33.770    756.000    737.882     18.118    518.651    737.462    518.651    519.035    518.651
 33.870    891.000    864.503     26.497    518.387    864.074    518.387    518.764    518.387
 33.970    987.000    990.606     -3.606    518.125    990.174    518.125    518.495    518.125
 34.070   1078.574   1052.193     26.381    517.864   1051.777    517.864    518.227    517.864
 34.170   1004.000   1005.896     -1.896    517.604   1005.511    517.604    517.962    517.604
 34.270    909.711    885.686     24.025    517.346    885.329    517.346    517.698    517.346
 34.370    733.576    755.941    -22.365    517.089    755.600    517.089    517.436    517.089
 34.470    648.000    656.085     -8.085    516.833    655.750    516.833    517.176    516.833
 34.570    646.000    594.509     51.491    516.578    594.175    516.578    516.917    516.578
 34.670    544.000    562.103    -18.103    516.325    561.770    516.325    516.661    516.325
 34.770    511.094    546.318    -35.224    516.073    545.986    516.073    516.405    516.073
 34.870    551.261    538.303     12.957    515.823    537.974    515.823    516.152    515.823
 34.970    449.000    533.595    -84.595    515.574    533.268    515.574    515.900    515.574
 35.070    561.157    530.371     30.786    515.326    530.047    515.326    515.650    515.326
 35.170    504.000    527.945    -23.945    515.080    527.622    515.080    515.401    515.080
 35.270    522.000    526.028     -4.028    514.835    525.708    514.835    515.155    514.835
 35.370    506.170    524.472    -18.301    514.591    524.153    514.591    514.909    514.591
 35.470    502.236    523.181    -20.945    514.349    522.864    514.349    514.666    514.349
 35.570    490.335    522.091    -31.756    514.108    521.776    514.108    514.424    514.108
 35.670    496.297    521.157    -24.860    513.869    520.843    513.869    514.183    513.869
 35.770    538.584    520.345     18.239    513.631    520.031    513.631    513.944    513.631
 35.870    532.000    519.630     12.370    513.395    519.318    513.395    513.707    513.395
 35.970    505.000    518.996    -13.996    513.160    518.684    513.160    513.472    513.160
 36.070    514.000    518.427     -4.427    512.927    518.116    512.927    513.238    512.927
 36.170    527.919    517.914     10.005    512.695    517.603    512.695    513.006    512.695
 36.270    539.000    517.449     21.551    512.464    517.139    512.464    512.775    512.464
 36.370    514.209    517.027     -2.818    512.235    516.717    512.235    512.546    512.235
 36.470    555.274    516.645     38.629    512.008    516.334    512.008    512.318    512.008
 36.570    489.858    516.301    -26.443    511.782    515.990    511.782    512.093    511.782
 36.670    500.114    515.996    -15.882    511.557    515.685    511.557    511.868    511.557
 36.770    491.808    515.736    -23.928    511.335    515.425    511.335    511.646    511.335
 36.870    548.000    515.542     32.458    511.113    515.230    511.113    511.425    511.113
 36.970    505.000    515.465    -10.465    510.893    515.153    510.893    511.206    510.893
 37.070    523.901    515.631      8.270    510.675    515.318    510.675    510.988    510.675
 37.170    500.000    516.276    -16.276    510.458    515.962    510.458    510.772    510.458
 37.270    506.000    517.735    -11.735    510.243    517.420    510.243    510.558    510.243
 37.370    522.000    520.281      1.719    510.029    519.966    510.029    510.346    510.029
 37.470    561.528    523.815     37.713    509.817    523.499    509.817    510.135    509.817
 37.570    526.000    527.522     -1.522    509.606    527.206    509.606    509.925    509.606
 37.670    517.000    529.834    -12.834    509.398    529.518    509.398    509.718    509.398
 37.770    567.490    529.439     38.051    509.190    529.124    509.190    509.512    509.190
 37.870    532.351    526.675      5.676    508.984    526.360    508.984    509.308    508.984
 37.970    512.000    522.979    -10.979    508.780    522.664    508.780    509.105    508.780
 38.070    494.000    519.480    -25.480    508.578    519.164    508.578    508.904    508.578
 38.170    525.000    516.635      8.365    508.377    516.315    508.377    508.705    508.377
 38.270    513.356    514.538     -1.182    508.177    514.214    508.177    508.508    508.177
 38.370    477.676    513.096    -35.419    507.979    512.768    507.979    508.312    507.979
 38.470    507.000    512.135     -5.135    507.783    511.803    507.783    508.118    507.783
 38.570    519.419    511.492      7.927    507.589    511.156    507.589    507.926    507.589
 38.670    483.431    511.040    -27.610    507.396    510.702    507.396    507.735    507.396
 38.770    549.887    510.697     39.190    507.204    510.356    507.204    507.546    507.204
 38.870    521.163    510.414     10.748    507.015    510.070    507.015    507.359    507.015
 38.970    472.883    510.165    -37.282    506.827    509.818    506.827    507.174    506.827
 39.070    520.000    509.937     10.063    506.640    509.587    506.640    506.990    506.640
 39.170    472.642    509.725    -37.083    506.456    509.372    506.456    506.809    506.456
 39.270    527.000    509.526     17.474    506.273    509.170    506.273    506.628    506.273
 39.370    495.000    509.337    -14.337    506.091    508.979    506.091    506.450    506.091
 39.470    515.628    509.159      6.469    505.912    508.797    505.912    506.274    505.912
 39.570    543.877    508.990     34.887    505.734    508.625    505.734    506.099    505.734
 39.670    503.550    508.829     -5.279    505.557    508.461    505.557    505.926    505.557
 39.770    504.377    508.677     -4.299    505.382    508.305    505.382    505.755    505.382
 39.870    538.000    508.532     29.468    505.209    508.157    505.209    505.585    505.209
 39.970    511.421    508.396      3.024    505.038    508.017    505.038    505.418    505.038
 40.070    529.343    508.269     21.074    504.868    507.886    504.868    505.252    504.868
 40.170    494.769    508.150    -13.381    504.700    507.763    504.700    505.088    504.700
 40.270    550.000    508.041     41.959    504.534    507.650    504.534    504.926    504.534
 40.370    507.852    507.943     -0.091    504.369    507.547    504.369    504.765    504.369
 40.470    547.000    507.856     39.144    504.206    507.456    504.206    504.607    504.206
 40.570    511.155    507.782      3.374    504.045    507.377    504.045    504.450    504.045
 40.670    478.510    507.722    -29.212    503.886    507.313    503.886    504.295    503.886
 40.770    521.979    507.679     14.300    503.728    507.265    503.728    504.142    503.728
 40.870    472.221    507.656    -35.435    503.572    507.237    503.572    503.991    503.572
 40.970    478.000    507.656    -29.656    503.417    507.232    503.417    503.842    503.417
 41.070    502.592    507.685     -5.092    503.264    507.255    503.264    503.694    503.264
 41.170    523.970    507.747     16.223    503.113    507.313    503.113    503.549    503.113
 41.270    535.712    507.853     27.859    502.964    507.413    502.964    503.405    502.964
 41.370    506.000    508.013     -2.013    502.816    507.567    502.816    503.263    502.816
 41.470    489.000    508.244    -19.244    502.671    507.792    502.671    503.124    502.671
 41.570    483.000    508.572    -25.572    502.526    508.114    502.526    502.986    502.526
 41.670    534.120    509.044     25.075    502.384    508.580    502.384    502.850    502.384
 41.770    476.308    509.767    -33.459    502.243    509.297    502.243    502.716    502.243
 41.870    494.000    510.990    -16.990    502.104    510.513    502.104    502.583    502.104
 41.970    510.900    513.276     -2.375    501.967    512.793    501.967    502.453    501.967
 42.070    546.130    517.719     28.411    501.831    517.230    501.831    502.325    501.831
 42.170    538.000    526.020     11.980    501.697    525.528    501.697    502.199    501.697
 42.270    519.000    540.075    -21.075    501.565    539.582    501.565    502.075    501.565
 42.370    585.000    560.803     24.197    501.434    560.311    501.434    501.952    501.434
 42.470    603.000    586.445     16.555    501.306    585.959    501.306    501.832    501.306
 42.570    569.000    611.080    -42.080    501.179    610.599    501.179    501.714    501.179
 42.670    586.000    625.133    -39.133    501.053    624.652    501.053    501.598    501.053
 42.770    615.000    621.306     -6.306    500.930    620.817    500.930    501.484    500.930
 42.870    596.000    601.820     -5.820    500.808    601.313    500.808    501.372    500.808
 42.970    537.689    575.783    -38.094    500.687    575.252    500.687    501.262    500.687
 43.070    593.752    551.535     42.216    500.569    550.980    500.569    501.154    500.569
 43.170    521.000    533.255    -12.255    500.452    532.677    500.452    501.049    500.452
 43.270    482.000    521.465    -39.465    500.337    520.868    500.337    500.945    500.337
 43.370    499.115    514.707    -15.592    500.224    514.094    500.224    500.844    500.224
 43.470    495.309    511.088    -15.779    500.112    510.460    500.112    500.745    500.112
 43.570    499.719    509.140     -9.421    500.002    508.497    500.002    500.648    500.002
 43.670    531.951    507.997     23.954    499.894    507.340    499.894    500.554    499.894
 43.770    502.929    507.240     -4.312    499.788    506.568    499.788    500.462    499.788
 43.870    539.425    506.687     32.738    499.683    506.000    499.683    500.372    499.683
 43.970    466.222    506.259    -40.037    499.580    505.556    499.580    500.284    499.580
 44.070    483.530    505.919    -22.389    499.478    505.199    499.478    500.200    499.478
 44.170    503.000    505.646     -2.646    499.379    504.909    499.379    500.117    499.379
 44.270    479.000    505.426    -26.426    499.281    504.670    499.281    500.037    499.281
 44.370    487.000    505.248    -18.248    499.184    504.473    499.184    499.960    499.184
 44.470    466.458    505.106    -38.648    499.090    504.310    499.090    499.886    499.090
 44.570    473.445    504.993    -31.548    498.997    504.177    498.997    499.814    498.997
 44.670    544.000    504.907     39.093    498.906    504.068    498.906    499.745    498.906
 44.770    490.000    504.844    -14.844    498.816    503.982    498.816    499.679    498.816
 44.870    508.000    504.802      3.198    498.729    503.915    498.729    499.616    498.729
 44.970    480.000    504.780    -24.780    498.642    503.867    498.642    499.556    498.642
 45.070    513.336    504.777      8.559    498.558    503.836    498.558    499.499    498.558
 45.170    471.000    504.792    -33.792    498.475    503.821    498.475    499.446    498.475
 45.270    504.000    504.825     -0.825    498.394    503.823    498.394    499.396    498.394
 45.370    495.000    504.876     -9.876    498.315    503.840    498.315    499.350    498.315
 45.470    503.448    504.945     -1.497    498.237    503.874    498.237    499.308    498.237
 45.570    468.000    505.034    -37.034    498.161    503.925    498.161    499.270    498.161
 45.670    543.000    505.143     37.857    498.087    503.993    498.087    499.236    498.087
 45.770    515.000    505.274      9.726    498.014    504.080    498.014    499.207    498.014
 45.870    505.000    505.428     -0.428    497.943    504.188    497.943    499.183    497.943
 45.970    539.250    505.609     33.642    497.874    504.319    497.874    499.164    497.874
 46.070    500.000    505.819     -5.819    497.806    504.474    497.806    499.150    497.806
 46.170    500.000    506.061     -6.061    497.740    504.658    497.740    499.142    497.740
 46.270    535.415    506.342     29.073    497.675    504.875    497.675    499.141    497.675
 46.370    506.548    506.666     -0.118    497.613    505.130    497.613    499.148    497.613
 46.470    466.000    507.043    -41.043    497.552    505.432    497.552    499.161    497.552
 46.570    498.000    507.482     -9.482    497.492    505.789    497.492    499.184    497.492
 46.670    488.981    508.001    -19.020    497.434    506.218    497.434    499.216    497.434
 46.770    497.000    508.628    -11.628    497.378    506.747    497.378    499.258    497.378
 46.870    519.000    509.422      9.578    497.323    507.432    497.323    499.312    497.323
 46.970    531.000    510.512     20.488    497.270    508.400    497.270    499.379    497.270
 47.070    483.000    512.170    -29.170    497.219    509.924    497.219    499.462    497.219
 47.170    536.000    514.912     21.088    497.169    512.515    497.169    499.561    497.169
 47.270    529.000    519.554      9.446    497.121    516.987    497.121    499.680    497.121
 47.370    521.191    527.101     -5.910    497.075    524.340    497.075    499.821    497.075
 47.470    576.121    538.335     37.786    497.030    535.354    497.030    499.989    497.030
 47.570    546.000    553.127     -7.127    496.986    549.894    496.986    500.187    496.986
 47.670    558.187    569.711    -11.524    496.945    566.189    496.945    500.423    496.945
 47.770    613.500    584.249     29.251    496.904    580.398    496.904    500.702    496.904
 47.870    600.000    591.625      8.375    496.866    587.399    496.866    501.035    496.866
 47.970    591.000    588.815      2.185    496.829    584.157    496.829    501.435    496.829
 48.070    594.000    577.890     16.110    496.793    572.720    496.793    501.921    496.793
 48.170    573.000    563.855      9.145    496.760    558.062    496.760    502.522    496.760
 48.270    563.000    551.048     11.952    496.727    544.469    496.727    503.285    496.727
 48.370    541.000    541.830     -0.830    496.697    534.235    496.697    504.278    496.697
 48.470    529.000    536.851     -7.851    496.667    527.900    496.667    505.610    496.667
 48.570    556.460    535.697     20.762    496.640    524.894    496.640    507.437    496.640
 48.670    508.000    537.664    -29.664    496.614    524.298    496.614    509.975    496.614
 48.770    521.063    542.234    -21.171    496.589    525.326    496.589    513.493    496.589
 48.870    512.000    549.244    -37.244    496.566    527.518    496.566    518.288    496.566
 48.970    545.000    558.830    -13.830    496.545    530.735    496.545    524.635    496.545
 49.070    567.000    571.339     -4.339    496.525    535.158    496.525    532.700    496.525
 49.170    580.000    587.381     -7.381    496.506    541.466    496.506    542.415    496.506
 49.270    571.000    608.299    -37.299    496.489    551.485    496.489    553.294    496.489
 49.370    641.686    637.444      4.241    496.474    569.711    496.474    564.193    496.474
 49.470    730.000    682.633     47.367    496.460    605.916    496.460    573.153    496.460
 49.570    761.097    759.402      1.695    496.447    677.996    496.447    577.808    496.447
 49.670    912.369    892.357     20.012    496.436    812.083    496.436    576.632    496.436
 49.770   1118.000   1108.970      9.030    496.427   1035.224    496.427    570.052    496.427
 49.870   1434.000   1421.991     12.009    496.419   1358.154    496.419    560.095    496.419
 49.970   1820.079   1805.927     14.153    496.412   1753.118    496.412    549.045    496.412
 50.070   2204.000   2182.036     21.964    496.407   2139.761    496.407    538.538    496.407
 50.170   2410.000   2430.117    -20.117    496.403   2397.027    496.403    529.437    496.403
 50.270   2361.000   2445.712    -84.712    496.401   2420.128    496.401    522.044    496.401
 50.370   2259.000   2218.588     40.412    496.400   2198.814    496.400    516.323    496.400
 50.470   1877.000   1843.104     33.896    496.401   1827.631    496.401    512.055    496.401
 50.570   1437.129   1444.145     -7.016    496.403   1431.767    496.403    508.948    496.403
 50.670   1031.000   1111.169    -80.169    496.406   1100.993    496.406    506.712    496.406
 50.770    861.397    879.926    -18.529    496.411    871.330    496.411    505.099    496.411
 50.870    790.899    743.311     47.588    496.417    735.877    496.417    503.915    496.417
 50.970    679.000    673.099      5.901    496.425    666.548    496.425    503.024    496.425
 51.070    619.000    638.970    -19.970    496.434    633.110    496.434    502.334    496.434
 51.170    645.476    618.913     26.563    496.444    613.607    496.444    501.786    496.444
 51.270    625.000    601.924     23.076    496.456    597.069    496.456    501.341    496.456
 51.370    572.471    585.328    -12.857    496.469    580.847    496.469    500.975    496.469
 51.470    576.000    570.068      5.932    496.484    565.898    496.484    500.671    496.484
 51.570    609.000    557.475     51.525    496.500    553.570    496.500    500.416    496.500
 51.670    541.226    548.159     -6.933    496.517    544.480    496.517    500.204    496.517
 51.770    559.000    541.953     17.047    496.535    538.468    496.535    500.026    496.535
 51.870    496.524    538.245    -41.720    496.555    534.926    496.555    499.878    496.555
 51.970    566.000    536.338     29.662    496.576    533.161    496.576    499.756    496.576
 52.070    599.000    535.697     63.303    496.599    532.643    496.599    499.656    496.599
 52.170    512.229    536.035    -23.806    496.623    533.085    496.623    499.575    496.623
 52.270    516.000    537.310    -21.310    496.648    534.448    496.648    499.511    496.648
 52.370    561.174    539.760     21.413    496.674    536.974    496.674    499.462    496.674
 52.470    540.000    544.064     -4.064    496.702    541.340    496.702    499.427    496.702
 52.570    546.000    551.692     -5.692    496.731    549.018    496.731    499.405    496.731
 52.670    604.000    565.426     38.574    496.761    562.793    496.761    499.394    496.761
 52.770    650.000    589.830     60.170    496.792    587.228    496.792    499.393    496.792
 52.870    722.000    631.143     90.857    496.825    628.564    496.825    499.402    496.825
 52.970    693.000    695.928     -2.928    496.859    693.363    496.859    499.420    496.859
 53.070    761.189    788.108    -26.920    496.894    785.551    496.894    499.447    496.894
 53.170    866.998    904.911    -37.913    496.931    902.357    496.931    499.482    496.931
 53.270   1066.342   1033.006     33.337    496.968   1030.451    496.968    499.525    496.968
 53.370   1137.000   1146.678     -9.678    497.007   1144.121    497.007    499.575    497.007
 53.470   1183.000   1212.368    -29.368    497.047   1209.805    497.047    499.633    497.047
 53.570   1246.808   1205.465     41.343    497.088   1202.890    497.088    499.698    497.088
 53.670   1079.835   1129.069    -49.234    497.131   1126.471    497.131    499.771    497.131
 53.770    971.000   1011.103    -40.103    497.174   1008.468    497.174    499.851    497.174
 53.870    862.399    884.313    -21.914    497.219    881.629    497.219    499.938    497.219
 53.970    740.000    772.125    -32.125    497.265    769.384    497.265    500.033    497.265
 54.070    656.285    685.701    -29.416    497.312    682.897    497.312    500.135    497.312
 54.170    619.000    626.281     -7.281    497.360    623.409    497.360    500.245    497.360
 54.270    609.000    589.193     19.807    497.409    586.247    497.409    500.363    497.409
 54.370    586.000    567.792     18.208    497.460    564.766    497.460    500.490    497.460
 54.470    596.298    556.105     40.193    497.511    552.994    497.511    500.626    497.511
 54.570    511.459    549.917    -38.459    497.564    546.713    497.564    500.771    497.564
 54.670    581.263    546.722     34.541    497.618    543.416    497.618    500.925    497.618
 54.770    572.000    545.215     26.785    497.672    541.799    497.672    501.090    497.672
 54.870    543.000    544.787     -1.787    497.728    541.249    497.728    501.267    497.728
 54.970    564.000    545.176     18.824    497.785    541.507    497.785    501.455    497.785
 55.070    532.093    546.287    -14.194    497.843    542.475    497.843    501.656    497.843
 55.170    567.000    548.108     18.892    497.902    544.139    497.902    501.871    497.902
 55.270    561.000    550.679     10.321    497.962    546.541    497.962    502.102    497.962
 55.370    533.000    554.099    -21.099    498.023    549.774    498.023    502.349    498.023
 55.470    531.000    558.546    -27.546    498.085    554.018    498.085    502.614    498.085
 55.570    573.008    564.363      8.645    498.148    559.613    498.148    502.899    498.148
 55.670    592.293    572.258     20.035    498.212    567.264    498.212    503.206    498.212
 55.770    559.074    583.745    -24.671    498.278    578.484    498.278    503.539    498.278
 55.870    624.000    601.968     22.032    498.344    596.411    498.344    503.898    498.344
 55.970    629.661    632.966     -3.306    498.411    627.083    498.411    504.288    498.411
 56.070    666.514    687.087    -20.573    498.479    680.840    498.479    504.713    498.479
 56.170    756.000    779.593    -23.593    498.547    772.941    498.547    505.178    498.547
 56.270    891.000    928.910    -37.910    498.617    921.805    498.617    505.686    498.617
 56.370   1115.000   1151.071    -36.071    498.688   1143.464    498.688    506.246    498.688
 56.470   1460.000   1450.457      9.543    498.760   1442.294    498.760    506.863    498.760
 56.570   1835.109   1809.345     25.764    498.832   1800.574    498.832    507.548    498.832
 56.670   2124.000   2180.268    -56.268    498.906   2170.834    498.906    508.311    498.906
 56.770   2313.000   2486.013   -173.013    498.980   2475.855    498.980    509.165    498.980
 56.870   2610.000   2638.095    -28.095    499.056   2627.131    499.056    510.127    499.056
 56.970   2682.000   2583.321     98.679    499.132   2571.425    499.132    511.217    499.132
 57.070   2398.000   2343.427     54.573    499.209   2330.415    499.209    512.462    499.209
 57.170   1950.000   1996.779    -46.779    499.287   1982.415    499.287    513.902    499.287
 57.270   1647.217   1629.047     18.170    499.365   1613.047    499.365    515.589    499.365
 57.370   1333.000   1302.363     30.637    499.445   1284.379    499.445    517.608    499.445
 57.470   1063.250   1048.081     15.169    499.525   1027.656    499.525    520.080    499.525
 57.570    869.407    871.445     -2.038    499.606    847.940    499.606    523.197    499.606
 57.670    764.000    761.330      2.670    499.688    733.831    499.688    527.239    499.688
 57.770    743.000    700.639     42.361    499.771    667.831    499.771    532.607    499.771
 57.870    742.000    673.934     68.066    499.855    633.960    499.855    539.841    499.855
 57.970    685.159    671.064     14.094    499.939    621.385    499.939    549.619    499.939
 58.070    666.302    687.529    -21.227    500.024    624.830    500.024    562.714    500.024
 58.170    768.303    723.009     45.294    500.110    643.191    500.110    579.909    500.110
 58.270    752.000    779.166    -27.166    500.196    677.483    500.196    601.849    500.196
 58.370    851.000    857.335     -6.335    500.283    728.727    500.283    628.850    500.283
 58.470    924.638    956.432    -31.794    500.371    796.110    500.371    660.644    500.371
 58.570   1089.000   1071.278     17.722    500.460    875.633    500.460    696.052    500.460
 58.670   1113.000   1191.852    -78.852    500.549    959.807    500.549    732.546    500.549
 58.770   1335.989   1304.608     31.381    500.639   1039.394    500.639    765.815    500.639
 58.870   1450.678   1395.678     55.001    500.730   1106.432    500.730    789.953    500.730
 58.970   1508.000   1453.203     54.797    500.821   1154.826    500.821    799.194    500.821
 59.070   1451.592   1468.481    -16.889    500.913   1178.434    500.913    790.975    500.913
 59.170   1376.470   1439.702    -63.232    501.006   1173.086    501.006    767.652    501.006
 59.270   1362.000   1375.938    -13.938    501.099   1142.170    501.099    734.899    501.099
 59.370   1343.472   1294.804     48.668    501.193   1097.356    501.193    698.661    501.193
 59.470   1262.000   1215.195     46.805    501.287   1053.145    501.287    663.333    501.287
 59.570   1151.634   1153.275     -1.640    501.383   1023.093    501.383    631.525    501.383
 59.670   1134.000   1123.025     10.975    501.478   1019.947    501.478    604.473    501.478
 59.770   1168.262   1135.437     32.825    501.574   1054.395    501.574    582.483    501.574
 59.870   1133.231   1193.872    -60.642    501.671   1130.090    501.671    565.265    501.671
 59.970   1316.000   1289.442     26.558    501.769   1238.786    501.769    552.184    501.769
 60.070   1424.000   1399.564     24.436    501.866   1358.688    501.866    542.464    501.866
 60.170   1455.098   1490.396    -35.298    501.965   1456.741    501.965    535.328    501.965
 60.270   1564.710   1525.793     38.918    502.064   1497.492    502.064    530.094    502.064
 60.370   1603.000   1484.603    118.397    502.163   1460.330    502.163    526.218    502.163
 60.470   1380.000   1373.712      6.288    502.263   1352.524    502.263    523.295    502.263
 60.570   1363.000   1221.241    141.759    502.364   1202.464    502.364    521.044    502.364
 60.670   1082.000   1059.458     22.542    502.464   1042.594    502.464    519.276    502.464
 60.770    894.000    913.365    -19.365    502.566    898.035    502.566    517.871    502.566
 60.870    774.000    797.036    -23.036    502.668    782.938    502.668    516.755    502.668
 60.970    683.738    714.504    -30.766    502.770    701.387    502.770    515.880    502.770
 61.070    646.000    663.113    -17.113    502.872    650.761    502.872    515.217    502.872
 61.170    677.140    637.714     39.426    502.976    625.933    502.976    514.743    502.976
 61.270    615.374    634.190    -18.816    503.079    622.809    503.079    514.439    503.079
 61.370    648.000    651.420     -3.420    503.183    640.288    503.183    514.282    503.183
 61.470    692.000    691.441      0.559    503.287    680.435    503.287    514.243    503.287
 61.570    775.000    757.953     17.047    503.392    746.994    503.392    514.277    503.392
 61.670    831.000    853.545    -22.545    503.497    842.614    503.497    514.325    503.497
 61.770    951.441    976.294    -24.853    503.602    965.453    503.602    514.310    503.602
 61.870   1116.000   1116.776     -0.776    503.708   1106.162    503.708    514.159    503.708
 61.970   1239.000   1256.496    -17.496    503.814   1246.297    503.814    513.833    503.814
 62.070   1383.000   1368.950     14.050    503.920   1359.346    503.920    513.345    503.920
 62.170   1354.000   1425.842    -71.842    504.027   1416.963    504.027    512.750    504.027
 62.270   1469.000   1409.947     59.053    504.134   1401.851    504.134    512.115    504.134
 62.370   1280.000   1325.958    -45.958    504.241   1318.634    504.241    511.495    504.241
 62.470   1241.704   1197.090     44.614    504.349   1190.480    504.349    510.926    504.349
 62.570   1088.621   1051.912     36.708    504.456   1045.934    504.456    510.427    504.456
 62.670    965.653    914.044     51.610    504.564    908.608    504.564    510.007    504.564
 62.770    837.795    798.204     39.591    504.673    793.225    504.673    509.663    504.673
 62.870    650.000    710.225    -60.225    504.781    705.627    504.781    509.391    504.781
 62.970    642.506    649.091     -6.584    504.890    644.808    504.890    509.179    504.890
 63.070    633.000    609.873     23.127    504.999    605.854    504.999    509.020    504.999
 63.170    624.002    586.495     37.507    505.108    582.699    505.108    508.903    505.108
 63.270    568.000    573.610     -5.610    505.217    570.005    505.217    508.819    505.217
 63.370    598.000    567.463     30.537    505.327    564.023    505.327    508.761    505.327
 63.470    575.000    566.018      8.982    505.436    562.724    505.436    508.723    505.436
 63.570    533.722    568.765    -35.043    505.546    565.599    505.546    508.702    505.546
 63.670    565.000    576.448    -11.448    505.656    573.395    505.656    508.694    505.656
 63.770    619.000    590.790     28.210    505.766    587.838    505.766    508.698    505.766
 63.870    663.000    614.122     48.878    505.876    611.257    505.876    508.710    505.876
 63.970    641.284    648.778     -7.493    505.986    645.988    505.986    508.731    505.986
 64.070    742.000    696.217     45.783    506.097    693.493    506.097    508.759    506.097
 64.170    739.000    755.978    -16.978    506.207    753.310    506.207    508.794    506.207
 64.270    775.604    824.684    -49.080    506.317    822.065    506.317    508.835    506.317
 64.370    951.000    895.399     55.601    506.428    892.828    506.428    508.881    506.428
 64.470   1008.141    957.829     50.312    506.539    955.307    506.539    508.932    506.539
 64.570   1005.000   1000.472      4.528    506.649    998.007    506.649    508.988    506.649
 64.670   1059.862   1015.098     44.763    506.760   1012.698    506.760    509.047    506.760
 64.770    979.712   1000.426    -20.714    506.870    998.096    506.870    509.111    506.870
 64.870    984.000    961.674     22.326    506.981    959.415    506.981    509.179    506.981
 64.970    921.000    907.727     13.273    507.092    905.536    507.092    509.250    507.092
 65.070    838.307    848.203     -9.896    507.202    846.072    507.202    509.324    507.202
 65.170    823.000    790.848     32.152    507.313    788.769    507.313    509.401    507.313
 65.270    724.000    740.090    -16.090    507.423    738.053    507.423    509.481    507.423
 65.370    658.000    697.299    -39.299    507.534    695.295    507.534    509.564    507.534
 65.470    628.000    662.159    -34.159    507.644    660.181    507.644    509.649    507.644
 65.570    649.000    633.901     15.099    507.755    631.942    507.755    509.737    507.755
 65.670    560.000    611.729    -51.729    507.865    609.785    507.865    509.827    507.865
 65.770    554.000    594.824    -40.824    507.975    592.892    507.975    509.920    507.975
 65.870    549.316    582.377    -33.060    508.085    580.455    508.085    510.014    508.085
 65.970    547.000    573.642    -26.642    508.195    571.730    508.195    510.111    508.195
 66.070    516.000    567.959    -51.959    508.305    566.055    508.305    510.210    508.305
 66.170    576.000    564.756     11.244    508.414    562.859    508.414    510.311    508.414
 66.270    582.443    563.554     18.889    508.524    561.664    508.524    510.414    508.524
 66.370    538.000    564.001    -26.001    508.633    562.115    508.633    510.519    508.633
 66.470    539.000    565.909    -26.909    508.742    564.025    508.742    510.626    508.742
 66.570    553.000    569.321    -16.321    508.851    567.437    508.851    510.735    508.851
 66.670    604.000    574.627     29.373    508.960    572.741    508.960    510.846    508.960
 66.770    571.000    582.768    -11.768    509.068    580.879    509.068    510.959    509.068
 66.870    602.636    595.572      7.064    509.176    593.675    509.176    511.074    509.176
 66.970    583.000    616.204    -33.204    509.284    614.296    509.284    511.191    509.284
 67.070    675.000    649.640     25.360    509.392    647.718    509.392    511.310    509.392
 67.170    695.000    702.933     -7.933    509.500    700.994    509.500    511.431    509.500
 67.270    765.000    784.887    -19.887    509.607    782.928    509.607    511.554    509.607
 67.370    848.000    904.766    -56.766    509.714    902.784    509.714    511.680    509.714
 67.470   1025.000   1069.836    -44.836    509.821   1067.832    509.821    511.807    509.821
 67.570   1255.000   1281.982    -26.982    509.927   1279.959    509.927    511.938    509.927
 67.670   1484.000   1534.152    -50.152    510.033   1532.120    510.033    512.071    510.033
 67.770   1833.000   1807.650     25.350    510.139   1805.618    510.139    512.207    510.139
 67.870   2150.000   2071.210     78.790    510.244   2069.193    510.244    512.345    510.244
 67.970   2279.000   2283.328     -4.328    510.349   2281.337    510.349    512.487    510.349
 68.070   2479.000   2400.917     78.083    510.454   2398.957    510.454    512.632    510.454
 68.170   2334.781   2395.685    -60.904    510.558   2393.743    510.558    512.780    510.558
 68.270   2337.000   2269.077     67.923    510.662   2267.125    510.662    512.932    510.662
 68.370   2101.000   2051.366     49.634    510.766   2049.368    510.766    513.088    510.766
 68.470   1791.000   1785.984      5.016    510.869   1783.906    510.869    513.249    510.869
 68.570   1565.000   1513.743     51.257    510.972   1511.561    510.972    513.414    510.972
 68.670   1324.000   1264.869     59.131    511.074   1262.569    511.074    513.585    511.074
 68.770   1102.229   1057.011     45.217    511.176   1054.587    511.176    513.761    511.176
 68.870    929.687    896.347     33.340    511.277    893.798    511.277    513.943    511.277
 68.970    765.000    780.403    -15.403    511.378    777.730    511.378    514.132    511.378
 69.070    701.000    701.632     -0.632    511.479    698.836    511.479    514.328    511.479
 69.170    677.483    650.735     26.748    511.579    647.816    511.579    514.532    511.579
 69.270    660.000    619.023     40.977    511.678    615.978    511.678    514.746    511.678
 69.370    618.000    599.609     18.391    511.778    596.432    511.778    514.969    511.778
 69.470    566.537    587.662    -21.126    511.876    584.345    511.876    515.204    511.876
 69.570    543.883    580.117    -36.234    511.974    576.647    511.974    515.451    511.974
 69.670    578.137    575.176      2.961    512.072    571.541    512.072    515.712    512.072
 69.770    563.000    571.858     -8.858    512.169    568.042    512.169    515.988    512.169
 69.870    557.000    569.651    -12.651    512.265    565.636    512.265    516.283    512.265
 69.970    577.773    568.299      9.474    512.361    564.065    512.361    516.597    512.361
 70.070    507.000    567.684    -60.684    512.456    563.207    512.456    516.934    512.456
 70.170    581.000    567.769     13.231    512.551    563.023    512.551    517.297    512.551
 70.270    551.535    568.588    -17.053    512.645    563.543    512.645    517.689    512.645
 70.370    584.833    570.262     14.571    512.738    564.883    512.738    518.116    512.738
 70.470    593.000    573.059     19.941    512.831    567.305    512.831    518.582    512.831
 70.570    566.000    577.494    -11.494    512.923    571.318    512.923    519.095    512.923
 70.670    563.000    584.498    -21.498    513.015    577.841    513.015    519.664    513.015
 70.770    632.000    595.635     36.365    513.106    588.429    513.106    520.300    513.106
 70.870    615.000    613.363      1.637    513.196    605.519    513.196    521.022    513.196
 70.970    623.001    641.226    -18.225    513.286    632.630    513.286    521.854    513.286
 71.070    659.000    683.864    -24.864    513.375    674.361    513.375    522.835    513.375
 71.170    737.726    746.643     -8.917    513.463    736.022    513.463    524.023    513.463
 71.270    807.000    834.778    -27.778    513.551    822.738    513.551    525.505    513.551
 71.370    986.670    951.920     34.750    513.638    938.032    513.638    527.411    513.638
 71.470   1062.000   1098.384    -36.384    513.724   1082.040    513.724    529.922    513.724
 71.570   1211.696   1269.423    -57.727    513.809   1249.770    513.809    533.288    513.809
 71.670   1421.264   1453.996    -32.732    513.894   1429.868    513.894    537.825    513.894
 71.770   1638.000   1634.413      3.587    513.978   1604.267    513.978    543.914    513.978
 71.870   1778.441   1787.454     -9.013    514.061   1749.337    514.061    551.973    514.061
 71.970   1855.558   1888.306    -32.748    514.144   1839.858    514.144    562.407    514.144
 72.070   1972.168   1918.339     53.829    514.225   1856.876    514.225    575.540    514.225
 72.170   1929.638   1873.715     55.923    514.306   1796.390    514.306    591.523    514.306
 72.270   1747.000   1767.536    -20.536    514.386   1671.616    514.386    610.235    514.386
 72.370   1619.027   1623.075     -4.048    514.466   1506.322    514.466    631.178    514.466
 72.470   1507.000   1464.494     42.506    514.544   1325.650    514.544    653.368    514.544
 72.570   1361.000   1310.975     50.025    514.622   1150.356    514.622    675.233    514.622
 72.670   1183.569   1174.568      9.001    514.698    994.689    514.698    694.576    514.698
 72.770   1008.681   1060.240    -51.558    514.774    866.246    514.774    708.769    514.774
 72.870    934.000    967.423    -33.423    514.850    766.887    514.850    715.386    514.850
 72.970    932.938    892.541     40.397    514.924    694.322    514.924    713.143    514.924
 73.070    794.000    831.448    -37.448    514.997    643.921    514.997    702.522    514.997
 73.170    740.000    780.776    -40.776    515.070    610.332    515.070    685.513    515.070
 73.270    702.361    738.197    -35.836    515.141    588.602    515.141    664.736    515.141
 73.370    700.000    702.193     -2.193    515.212    574.771    515.212    642.633    515.212
 73.470    711.526    671.807     39.718    515.282    566.007    515.282    621.082    515.282
 73.570    613.000    646.462    -33.462    515.351    560.470    515.351    601.344    515.351
 73.670    661.000    625.789     35.211    515.419    557.071    515.419    584.140    515.419
 73.770    597.000    609.485    -12.485    515.486    555.214    515.486    569.764    515.486
 73.870    548.000    597.207    -49.207    515.552    554.585    515.552    558.184    515.552
 73.970    555.000    588.516    -33.516    515.617    554.995    515.617    549.152    515.617
 74.070    576.451    582.864     -6.413    515.681    556.274    515.681    542.290    515.681
 74.170    583.405    579.613      3.792    515.744    558.200    515.744    537.182    515.744
 74.270    613.000    578.050     34.950    515.807    560.462    515.807    533.425    515.807
 74.370    660.000    577.417     82.583    515.868    562.652    515.868    530.669    515.868
 74.470    620.000    576.959     43.041    515.928    564.297    515.928    528.631    515.928
 74.570    650.000    576.008     73.992    515.987    564.939    515.987    527.099    515.987
 74.670    605.000    574.124     30.876    516.045    564.295    516.045    525.919    516.045
 74.770    601.000    571.215     29.785    516.103    562.376    516.103    524.984    516.103
 74.870    605.193    567.519     37.674    516.159    559.492    516.159    524.223    516.159
 74.970    586.877    563.478     23.399    516.214    556.134    516.214    523.590    516.214
 75.070    567.000    559.594      7.406    516.268    552.836    516.268    523.052    516.268
 75.170    568.000    556.361     11.639    516.321    550.112    516.321    522.590    516.321
 75.270    607.000    554.250     52.750    516.373    548.448    516.373    522.188    516.373
 75.370    598.000    553.726     44.274    516.424    548.320    516.424    521.837    516.424
 75.470    566.000    555.270     10.730    516.474    550.218    516.474    521.528    516.474
 75.570    600.000    559.388     40.612    516.522    554.652    516.522    521.255    516.522
 75.670    587.795    566.577     21.218    516.570    562.124    516.570    521.013    516.570
 75.770    627.000    577.248     49.752    516.616    573.049    516.616    520.798    516.616
 75.870    592.000    591.596      0.404    516.662    587.627    516.662    520.607    516.662
 75.970    668.000    609.444     58.556    516.706    605.681    516.706    520.436    516.706
 76.070    650.000    630.091     19.909    516.749    626.516    516.749    520.283    516.749
 76.170    657.868    652.212      5.657    516.791    648.807    516.791    520.146    516.791
 76.270    641.530    673.827    -32.298    516.832    670.579    516.832    520.023    516.832
 76.370    671.000    692.397    -21.397    516.872    689.294    516.872    519.913    516.872
 76.470    704.000    705.135     -1.135    516.910    702.168    516.910    519.813    516.910
 76.570    704.179    709.701     -5.521    516.948    706.864    516.948    519.723    516.948
 76.670    746.140    705.117     41.023    516.984    702.404    516.984    519.642    516.984
 76.770    647.000    692.245    -45.245    517.019    689.648    517.019    519.568    517.019
 76.870    671.552    673.350     -1.798    517.053    670.863    517.053    519.501    517.053
 76.970    637.000    651.196    -14.196    517.086    648.812    517.086    519.440    517.086
 77.070    598.000    628.332    -30.332    517.117    626.042    517.117    519.384    517.117
 77.170    611.132    606.744      4.388    517.147    604.542    517.147    519.334    517.147
 77.270    523.000    587.757    -64.757    517.176    585.635    517.176    519.287    517.176
 77.370    544.008    572.046    -28.038    517.204    569.998    517.204    519.245    517.204
 77.470    517.567    559.737    -42.169    517.231    557.757    517.231    519.206    517.231
 77.570    558.000    550.555      7.445    517.256    548.638    517.256    519.170    517.256
 77.670    530.068    543.995    -13.927    517.280    542.136    517.280    519.136    517.280
 77.770    526.000    539.474    -13.474    517.303    537.669    517.303    519.106    517.303
 77.870    504.000    536.439    -32.439    517.324    534.685    517.324    519.077    517.324
 77.970    529.000    534.430     -5.430    517.345    532.723    517.345    519.050    517.345
 78.070    572.262    533.100     39.162    517.364    531.437    517.364    519.025    517.364
 78.170    524.000    532.206     -8.206    517.381    530.585    517.381    519.001    517.381
 78.270    503.000    531.593    -28.593    517.398    530.011    517.398    518.979    517.398
 78.370    545.000    531.166     13.834    517.413    529.620    517.413    518.958    517.413
 78.470    531.000    530.875      0.125    517.427    529.363    517.427    518.938    517.427
 78.570    512.647    530.695    -18.048    517.439    529.214    517.439    518.920    517.439
 78.670    495.000    530.620    -35.620    517.451    529.168    517.451    518.902    517.451
 78.770    494.498    530.641    -36.142    517.461    529.215    517.461    518.886    517.461
 78.870    469.000    530.787    -61.787    517.469    529.385    517.469    518.871    517.469
 78.970    523.000    531.115     -8.115    517.477    529.734    517.477    518.857    517.477
 79.070    548.000    531.636     16.364    517.483    530.272    517.483    518.846    517.483
 79.170    501.000    532.377    -31.377    517.487    531.027    517.487    518.836    517.487
 79.270    537.082    533.368      3.714    517.490    532.027    517.490    518.829    517.490
 79.370    514.815    534.635    -19.820    517.492    533.298    517.492    518.826    517.492
 79.470    543.000    536.204      6.796    517.493    534.867    517.493    518.827    517.493
 79.570    541.000    538.105      2.895    517.492    536.761    517.492    518.832    517.492
 79.670    540.866    540.383      0.484    517.490    539.026    517.490    518.842    517.490
 79.770    575.000    543.115     31.885    517.487    541.739    517.487    518.857    517.487
 79.870    548.000    546.431      1.569    517.482    545.029    517.482    518.878    517.482
 79.970    551.000    550.540      0.460    517.475    549.106    517.475    518.903    517.475
 80.070    546.000    555.751     -9.751    517.468    554.282    517.468    518.933    517.468
 80.170    579.000    562.482     16.518    517.459    560.973    517.459    518.965    517.459
 80.270    609.962    571.207     38.756    517.448    569.657    517.448    518.996    517.448
 80.370    541.729    582.361    -40.632    517.436    580.774    517.436    519.025    517.436
 80.470    606.000    596.228      9.772    517.423    594.610    517.423    519.045    517.423
 80.570    593.000    612.833    -19.833    517.408    611.197    517.408    519.053    517.408
 80.670    587.797    631.860    -44.063    517.392    630.221    517.392    519.045    517.392
 80.770    685.412    652.608     32.804    517.375    650.985    517.375    519.017    517.375
 80.870    650.480    674.012    -23.532    517.356    672.424    517.356    518.969    517.356
 80.970    678.000    694.758    -16.758    517.335    693.220    517.335    518.904    517.335
 81.070    704.755    713.475     -8.720    517.314    712.000    517.314    518.827    517.314
 81.170    743.468    728.919     14.549    517.290    727.512    517.290    518.742    517.290
 81.270    741.000    740.080      0.920    517.266    738.744    517.266    518.652    517.266
 81.370    816.000    746.259     69.741    517.239    744.993    517.239    518.563    517.239
 81.470    831.000    747.141     83.859    517.212    745.939    517.212    518.475    517.212
 81.570    749.000    742.813      6.187    517.183    741.670    517.183    518.391    517.183
 81.670    790.000    733.724     56.276    517.152    732.632    517.152    518.311    517.152
 81.770    791.000    720.666     70.334    517.120    719.618    517.120    518.235    517.120
 81.870    723.000    704.753     18.247    517.087    703.741    517.087    518.165    517.087
 81.970    659.261    687.265    -28.004    517.052    686.283    517.052    518.099    517.052
 82.070    667.542    669.379     -1.837    517.016    668.420    517.016    518.036    517.016
 82.170    697.588    651.950     45.639    516.978    651.009    516.978    517.976    516.978
 82.270    611.000    635.458    -24.458    516.939    634.531    516.939    517.919    516.939
 82.370    615.000    620.114     -5.114    516.898    619.197    516.898    517.864    516.898
 82.470    590.000    606.024    -16.024    516.856    605.114    516.856    517.809    516.856
 82.570    596.000    593.313      2.687    516.812    592.407    516.812    517.756    516.812
 82.670    580.000    582.146     -2.146    516.767    581.242    516.767    517.702    516.767
 82.770    572.000    572.693     -0.693    516.720    571.790    516.720    517.648    516.720
 82.870    547.219    565.098    -17.879    516.672    564.193    516.672    517.594    516.672
 82.970    551.000    559.458     -8.458    516.622    558.552    516.622    517.539    516.622
 83.070    554.000    555.821     -1.821    516.571    554.911    516.571    517.484    516.571
 83.170    562.000    554.165      7.835    516.518    553.253    516.518    517.428    516.518
 83.270    547.000    554.388     -7.388    516.464    553.471    516.464    517.370    516.464
 83.370    548.000    556.282     -8.282    516.408    555.361    516.408    517.312    516.408
 83.470    566.000    559.531      6.469    516.351    558.605    516.351    517.252    516.351
 83.570    526.000    563.707    -37.707    516.292    562.776    516.292    517.192    516.292
 83.670    545.000    568.279    -23.279    516.232    567.344    516.232    517.130    516.232
 83.770    605.788    572.641     33.148    516.170    571.702    516.170    517.068    516.170
 83.870    545.000    576.154    -31.154    516.107    575.213    516.107    517.004    516.107
 83.970    547.000    578.233    -31.233    516.042    577.291    516.042    516.939    516.042
 84.070    573.000    578.467     -5.467    515.975    577.526    515.975    516.873    515.975
 84.170    535.913    576.730    -40.817    515.908    575.791    515.908    516.806    515.908
 84.270    582.000    573.215      8.785    515.838    572.278    515.838    516.737    515.838
 84.370    538.000    568.351    -30.351    515.767    567.417    515.767    516.667    515.767
 84.470    547.000    562.670    -15.670    515.695    561.740    515.695    516.596    515.695
 84.570    557.000    556.694      0.306    515.621    555.768    515.621    516.524    515.621
 84.670    522.000    550.867    -28.867    515.545    549.943    515.545    516.451    515.545
 84.770    537.000    545.524     -8.524    515.468    544.601    515.468    516.377    515.468
 84.870    505.000    540.881    -35.881    515.390    539.959    515.390    516.301    515.390
 84.970    506.636    537.041    -30.405    515.310    536.118    515.310    516.224    515.310
 85.070    521.000    534.014    -13.014    515.228    533.089    515.228    516.146    515.228
 85.170    519.000    531.743    -12.743    515.145    530.815    515.145    516.067    515.145
 85.270    518.638    530.130    -11.493    515.060    529.200    515.060    515.986    515.060
 85.370    547.442    529.070     18.372    514.974    528.135    514.974    515.905    514.974
 85.470    536.000    528.463      7.537    514.887    527.523    514.887    515.822    514.887
 85.570    536.000    528.237      7.763    514.797    527.292    514.797    515.738    514.797
 85.670    493.000    528.354    -35.354    514.707    527.402    514.707    515.652    514.707
 85.770    517.564    528.813    -11.249    514.614    527.855    514.614    515.566    514.614
 85.870    536.147    529.661      6.486    514.520    528.695    514.520    515.479    514.520
 85.970    560.000    530.983     29.017    514.425    530.008    514.425    515.390    514.425
 86.070    508.719    532.908    -24.189    514.328    531.924    514.328    515.300    514.328
 86.170    513.000    535.600    -22.600    514.230    534.605    514.230    515.209    514.230
 86.270    564.061    539.245     24.816    514.130    538.237    514.130    515.117    514.130
 86.370    518.000    544.032    -26.032    514.028    543.009    514.028    515.024    514.028
 86.470    562.491    550.122     12.370    513.925    549.083    513.925    514.930    513.925
 86.570    525.000    557.615    -32.615    513.821    556.558    513.821    514.834    513.821
 86.670    566.000    566.509     -0.509    513.715    565.432    513.715    514.738    513.715
 86.770    605.858    576.658     29.201    513.607    575.559    513.607    514.641    513.607
 86.870    623.000    587.745     35.255    513.498    586.623    513.498    514.542    513.498
 86.970    606.233    599.265      6.968    513.388    598.120    513.388    514.443    513.388
 87.070    646.000    610.527     35.473    513.276    609.359    513.276    514.342    513.276
 87.170    676.000    620.684     55.316    513.162    619.496    513.162    514.241    513.162
 87.270    618.000    628.811    -10.811    513.047    627.604    513.047    514.139    513.047
 87.370    610.000    634.047    -24.047    512.930    632.825    512.930    514.036    512.930
 87.470    631.612    635.797     -4.185    512.812    634.563    512.812    513.932    512.812
 87.570    672.000    633.896     38.104    512.692    632.654    512.692    513.827    512.692
 87.670    600.000    628.697    -28.697    512.571    627.450    512.571    513.722    512.571
 87.770    626.000    620.924      5.076    512.449    619.673    512.449    513.616    512.449
 87.870    613.616    611.491      2.125    512.324    610.236    512.324    513.509    512.324
 87.970    604.000    601.366      2.634    512.199    600.106    512.199    513.402    512.199
 88.070    653.000    591.462     61.538    512.072    590.196    512.072    513.294    512.072
 88.170    565.364    582.566    -17.202    511.943    581.292    511.943    513.185    511.943
 88.270    591.000    575.298     15.702    511.813    574.013    511.813    513.076    511.813
 88.370    597.385    570.083     27.302    511.681    568.786    511.681    512.967    511.681
 88.470    588.000    567.150     20.850    511.548    565.838    511.548    512.857    511.548
 88.570    528.000    566.529    -38.529    511.414    565.201    511.414    512.748    511.414
 88.670    554.000    568.073    -14.073    511.278    566.726    511.278    512.638    511.278
 88.770    571.727    571.469      0.257    511.140    570.102    511.140    512.528    511.140
 88.870    568.243    576.265     -8.022    511.001    574.876    511.001    512.418    511.001
 88.970    604.000    581.892     22.108    510.861    580.480    510.861    512.309    510.861
 89.070    605.000    587.692     17.308    510.719    586.254    510.719    512.199    510.719
 89.170    638.407    592.957     45.450    510.576    591.491    510.576    512.091    510.576
 89.270    640.000    596.987     43.013    510.431    595.490    510.431    511.983    510.431
 89.370    636.691    599.182     37.509    510.285    597.650    510.285    511.876    510.285
 89.470    653.000    599.156     53.844    510.137    597.585    510.137    511.770    510.137
 89.570    603.482    596.825      6.658    509.988    595.209    509.988    511.665    509.988
 89.670    611.351    592.417     18.934    509.837    590.752    509.837    511.562    509.837
 89.770    579.000    586.388     -7.388    509.685    584.669    509.685    511.461    509.685
 89.870    563.306    579.304    -15.998    509.532    577.525    509.532    511.362    509.532
 89.970    579.652    571.731      7.922    509.377    569.887    509.377    511.266    509.377
 90.070    505.000    564.170    -59.170    509.221    562.257    509.221    511.172    509.221
 90.170    557.000    557.027     -0.027    509.064    555.039    509.064    511.083    509.064
 90.270    485.000    550.593    -65.593    508.905    548.525    508.905    510.998    508.905
 90.370    503.037    545.048    -42.010    508.744    542.893    508.744    510.918    508.744
 90.470    510.539    540.466    -29.927    508.582    538.219    508.582    510.845    508.582
 90.570    588.000    536.842     51.158    508.419    534.493    508.419    510.779    508.419
 90.670    494.000    534.107    -40.107    508.255    531.646    508.255    510.723    508.255
 90.770    512.092    532.161    -20.068    508.089    529.574    508.089    510.680    508.089
 90.870    543.447    530.891     12.556    507.921    528.162    507.921    510.653    507.921
 90.970    523.000    530.196     -7.196    507.753    527.303    507.753    510.647    507.753
 91.070    550.000    529.994     20.006    507.583    526.910    507.583    510.667    507.583
 91.170    497.743    530.239    -32.496    507.412    526.929    507.412    510.720    507.412
 91.270    494.000    530.923    -36.923    507.239    527.343    507.239    510.817    507.239
 91.370    500.000    532.083    -32.083    507.065    528.176    507.065    510.969    507.065
 91.470    542.039    533.799      8.240    506.890    529.494    506.890    511.190    506.890
 91.570    578.000    536.195     41.805    506.713    531.406    506.713    511.496    506.713
 91.670    529.600    539.440     -9.839    506.535    534.060    506.535    511.907    506.535
 91.770    553.111    543.732      9.379    506.356    537.636    506.356    512.442    506.356
 91.870    577.000    549.263     27.737    506.175    542.303    506.175    513.122    506.175
 91.970    533.000    556.343    -23.343    505.994    548.350    505.994    513.970    505.994
 92.070    572.000    565.189      6.811    505.811    555.974    505.811    515.003    505.811
 92.170    534.000    575.977    -41.977    505.626    565.337    505.626    516.240    505.626
 92.270    584.000    588.837     -4.837    505.441    576.557    505.441    517.689    505.441
 92.370    625.000    603.803     21.197    505.254    589.664    505.254    519.354    505.254
 92.470    607.000    620.788    -13.788    505.066    604.579    505.066    521.228    505.066
 92.570    580.000    639.567    -59.567    504.876    621.098    504.876    523.293    504.876
 92.670    636.000    659.761    -23.761    504.686    638.872    504.686    525.515    504.686
 92.770    638.000    680.830    -42.830    504.494    657.416    504.494    527.842    504.494
 92.870    712.000    702.092      9.908    504.301    676.116    504.301    530.206    504.301
 92.970    748.394    722.773     25.621    504.107    694.292    504.107    532.512    504.107
 93.070    777.341    742.107     35.233    503.912    711.294    503.912    534.646    503.912
 93.170    753.201    759.467     -6.266    503.715    726.630    503.715    536.472    503.715
 93.270    780.000    774.477      5.523    503.517    740.066    503.517    537.849    503.517
 93.370    793.000    787.047      5.953    503.318    751.641    503.318    538.646    503.318
 93.470    797.000    797.323     -0.323    503.118    761.593    503.118    538.772    503.118
 93.570    797.385    805.611     -8.226    502.917    770.257    502.917    538.198    502.917
 93.670    832.939    812.308     20.631    502.715    777.989    502.715    536.963    502.715
 93.770    852.000    817.877     34.123    502.512    785.155    502.512    535.165    502.512
 93.870    870.000    822.885     47.115    502.307    792.189    502.307    532.937    502.307
 93.970    845.000    827.990     17.010    502.101    799.606    502.101    530.422    502.101
 94.070    881.537    833.850     47.687    501.895    807.930    501.895    527.753    501.895
 94.170    895.372    840.954     54.418    501.687    817.539    501.687    525.042    501.687
 94.270    825.000    849.454    -24.454    501.478    828.494    501.478    522.379    501.478
 94.370    809.128    859.041    -49.913    501.268    840.421    501.268    519.832    501.268
 94.470    916.000    868.929     47.071    501.057    852.484    501.057    517.449    501.057
 94.570    916.000    877.902     38.098    500.845    863.439    500.845    515.259    500.845
 94.670    893.000    884.457      8.543    500.633    871.763    500.633    513.283    500.633
 94.770    973.000    887.020     85.980    500.419    875.878    500.419    511.525    500.419
 94.870    894.118    884.248      9.870    500.204    874.444    500.204    509.980    500.204
 94.970    949.000    875.353     73.647    499.988    866.684    499.988    508.638    499.988
 95.070    832.259    860.320    -28.061    499.771    852.599    499.771    507.481    499.771
 95.170    869.000    839.925     29.075    499.553    832.984    499.553    506.490    499.553
 95.270    864.000    815.565     48.435    499.334    809.258    499.334    505.644    499.334
 95.370    793.000    789.002      3.998    499.114    783.201    499.114    504.922    499.114
 95.470    776.000    762.132     13.868    498.894    756.731    498.894    504.303    498.894
 95.570    762.000    736.830     25.170    498.672    731.740    498.672    503.771    498.672
 95.670    684.889    714.852    -29.963    498.450    710.000    498.450    503.308    498.450
 95.770    746.000    697.783     48.217    498.226    693.110    498.226    502.903    498.226
 95.870    689.000    687.013      1.987    498.002    682.471    498.002    502.542    498.002
 95.970    670.118    683.730    -13.611    497.777    679.280    497.777    502.218    497.777
 96.070    716.000    688.921     27.079    497.551    684.531    497.551    501.924    497.551
 96.170    703.383    703.362      0.021    497.324    699.006    497.324    501.654    497.324
 96.270    691.561    727.657    -36.095    497.097    723.313    497.097    501.404    497.097
 96.370    761.000    762.118     -1.118    496.868    757.766    496.868    501.172    496.868
 96.470    773.504    806.728    -33.224    496.639    802.353    496.639    500.955    496.639
 96.570    792.000    861.056    -69.056    496.410    856.643    496.410    500.752    496.410
 96.670    911.000    924.153    -13.153    496.179    919.688    496.179    500.562    496.179
 96.770    964.263    994.461    -30.199    495.948    989.933    495.948    500.385    495.948
 96.870   1093.000   1069.762     23.238    495.715   1065.160    495.715    500.220    495.715
 96.970   1125.000   1147.152    -22.152    495.483   1142.466    495.483    500.066    495.483
 97.070   1169.000   1223.083    -54.083    495.249   1218.304    495.249    499.926    495.249
 97.170   1296.000   1293.475      2.525    495.015   1288.593    495.015    499.798    495.015
 97.270   1346.165   1353.960     -7.795    494.780   1348.967    494.780    499.684    494.780
 97.370   1411.531   1400.285     11.245    494.545   1395.170    494.545    499.584    494.545
 97.470   1469.000   1428.921     40.079    494.309   1423.671    494.309    499.500    494.309
 97.570   1490.000   1437.706     52.294    494.072   1432.307    494.072    499.433    494.072
 97.670   1427.000   1426.285      0.715    493.835   1420.718    493.835    499.386    493.835
 97.770   1384.000   1396.134    -12.134    493.597   1390.376    493.597    499.360    493.597
 97.870   1343.000   1350.161     -7.161    493.359   1344.183    493.359    499.358    493.359
 97.970   1293.959   1292.136      1.822    493.120   1285.906    493.120    499.387    493.120
 98.070   1207.000   1226.162    -19.162    492.880   1219.639    492.880    499.450    492.880
 98.170   1113.666   1156.299    -42.634    492.640   1149.435    492.640    499.557    492.640
 98.270   1107.329   1086.331     20.998    492.400   1079.070    492.400    499.715    492.400
 98.370   1038.755   1019.624     19.132    492.159   1011.896    492.159    499.940    492.159
 98.470    906.576    959.059    -52.482    491.917    950.780    491.917    500.245    491.917
 98.570    895.000    907.010    -12.010    491.676    898.074    491.676    500.654    491.676
 98.670    844.000    865.365    -21.365    491.433    855.643    491.433    501.190    491.433
 98.770    768.000    835.573    -67.573    491.191    824.902    491.191    501.886    491.191
 98.870    840.000    818.706     21.294    490.948    806.889    490.948    502.780    490.948
 98.970    805.000    815.535    -10.535    490.704    802.329    490.704    503.916    490.704
 99.070    827.000    826.585      0.415    490.461    811.696    490.461    505.347    490.461
 99.170    942.000    852.166     89.834    490.216    835.244    490.216    507.128    490.216
 99.270    894.000    892.373      1.627    489.972    873.005    489.972    509.321    489.972
 99.370    920.413    947.040    -26.627    489.727    924.752    489.727    511.993    489.727
 99.470    966.000   1015.677    -49.677    489.483    989.927    489.483    515.207    489.483
 99.570   1103.459   1097.373      6.086    489.237   1067.562    489.237    519.023    489.237
 99.670   1214.000   1190.708     23.292    488.992   1156.184    488.992    523.494    488.992
 99.770   1292.000   1293.646     -1.646    488.746   1253.718    488.746    528.659    488.746
 99.870   1371.000   1403.527    -32.527    488.501   1357.485    488.501    534.538    488.501
 99.970   1564.147   1516.991     47.157    488.255   1464.129    488.255    541.127    488.255
100.070   1635.000   1630.067      4.933    488.009   1569.713    488.009    548.393    488.009
100.170   1730.000   1738.384     -8.384    487.762   1669.934    487.762    556.265    487.762
100.270   1901.000   1837.490     63.510    487.516   1760.450    487.516    564.634    487.516
100.370   1961.000   1923.257     37.743    487.270   1837.286    487.270    573.346    487.270
100.470   2086.000   1992.223     93.777    487.023   1897.185    487.023    582.193    487.023
100.570   2120.000   2041.746     78.254    486.777   1937.764    486.777    590.915    486.777
100.670   2121.000   2069.983     51.017    486.530   1957.498    486.530    599.195    486.530
100.770   2108.000   2075.851     32.149    486.284   1955.669    486.284    606.664    486.284
100.870   2064.000   2059.117      4.883    486.037   1932.441    486.037    612.925    486.037
100.970   1991.000   2020.652    -29.652    485.791   1889.078    485.791    617.585    485.791
101.070   1974.969   1962.673     12.296    485.544   1828.136    485.544    620.305    485.544
101.170   1853.000   1888.753    -35.753    485.298   1753.412    485.298    620.861    485.298
101.270   1716.000   1803.490    -87.490    485.052   1669.564    485.052    619.192    485.052
101.370   1673.000   1711.951    -38.951    484.806   1581.552    484.806    615.408    484.806
101.470   1674.000   1619.085     54.915    484.560   1494.062    484.560    609.772    484.560
101.570   1547.846   1529.260     18.587    484.314   1411.103    484.314    602.643    484.314
101.670   1486.833   1445.964     40.869    484.069   1335.765    484.069    594.423    484.069
101.770   1378.000   1371.662      6.338    483.824   1270.119    483.824    585.505    483.824
101.870   1326.000   1307.754     18.246    483.579   1215.213    483.579    576.244    483.579
101.970   1227.000   1254.612    -27.612    483.334   1171.118    483.334    566.939    483.334
102.070   1175.478   1211.673    -36.194    483.089   1137.026    483.089    557.836    483.089
102.170   1185.000   1177.566      7.434    482.845   1111.376    482.845    549.127    482.845
102.270   1158.000   1150.292      7.708    482.602   1092.029    482.602    540.951    482.602
102.370   1143.000   1127.442     15.558    482.358   1076.476    482.358    533.408    482.358
102.470   1082.000   1106.462    -24.462    482.115   1062.105    482.115    526.554    482.115
102.570   1038.980   1084.968    -45.988    481.873   1046.509    481.873    520.415    481.873
102.670   1014.000   1061.057    -47.057    481.631   1027.784    481.631    514.988    481.631
102.770   1044.000   1033.528     10.472    481.389   1004.757    481.389    510.245    481.389
102.870   1060.000   1001.970     58.030    481.148    977.058    481.148    506.145    481.148
102.970    932.000    966.666    -34.666    480.908    945.027    480.908    502.630    480.908
103.070    907.000    928.401    -21.401    480.668    909.510    480.668    499.640    480.668
103.170    859.000    888.245    -29.245    480.428    871.641    480.428    497.109    480.428
103.270    837.689    847.364     -9.675    480.190    832.652    480.190    494.974    480.190
103.370    810.000    806.896      3.104    479.952    793.740    479.952    493.173    479.952
103.470    786.000    767.866     18.134    479.714    755.988    479.714    491.652    479.714
103.570    730.000    731.129     -1.129    479.477    720.300    479.477    490.359    479.477
103.670    742.819    697.345     45.474    479.241    687.378    479.241    489.254    479.241
103.770    633.637    666.958    -33.321    479.006    657.704    479.006    488.299    479.006
103.870    599.000    640.206    -41.206    478.771    631.545    478.771    487.466    478.771
103.970    615.700    617.136     -1.436    478.538    608.972    478.538    486.729    478.538
104.070    590.413    597.633     -7.221    478.305    589.891    478.305    486.069    478.305
104.170    613.074    581.463     31.612    478.073    574.081    478.073    485.471    478.073
104.270    584.000    568.304     15.696    477.842    561.235    477.842    484.924    477.842
104.370    552.552    557.794     -5.242    477.611    550.998    477.611    484.418    477.611
104.470    532.000    549.556    -17.556    477.382    543.000    477.382    483.946    477.382
104.570    572.000    543.229     28.771    477.154    536.885    477.154    483.502    477.154
104.670    551.000    538.487     12.513    476.927    532.333    476.927    483.084    476.927
104.770    525.000    535.052    -10.052    476.700    529.068    476.700    482.686    476.700
104.870    504.802    532.689    -27.887    476.475    526.856    476.475    482.308    476.475
104.970    536.565    531.236      5.330    476.251    525.539    476.251    481.946    476.251
105.070    525.830    530.569     -4.738    476.028    524.993    476.028    481.600    476.028
105.170    587.000    530.615     56.385    475.806    525.148    475.806    481.268    475.806
105.270    537.853    531.348      6.505    475.586    525.978    475.586    480.949    475.586
105.370    538.957    532.780      6.176    475.366    527.496    475.366    480.642    475.366
105.470    573.999    534.961     39.038    475.148    529.752    475.148    480.347    475.148
105.570    537.000    537.963     -0.963    474.931    532.819    474.931    480.062    474.931
105.670    545.000    541.878      3.122    474.715    536.791    474.715    479.788    474.715
105.770    559.000    546.802     12.198    474.501    541.763    474.501    479.524    474.501
105.870    538.000    552.823    -14.823    474.288    547.823    474.288    479.269    474.288
105.970    535.843    560.004    -24.160    474.077    555.036    474.077    479.022    474.077
106.070    561.100    568.370     -7.269    473.867    563.426    473.867    478.785    473.867
106.170    622.828    577.899     44.929    473.658    572.973    473.658    478.556    473.658
106.270    582.000    588.510     -6.510    473.451    583.594    473.451    478.335    473.451
106.370    559.000    600.053    -41.053    473.246    595.141    473.246    478.122    473.246
106.470    576.000    612.316    -36.316    473.042    607.402    473.042    477.917    473.042
106.570    578.000    625.021    -47.021    472.839    620.098    472.839    477.720    472.839
106.670    617.000    637.828    -20.828    472.638    632.893    472.638    477.531    472.638
106.770    598.000    650.354    -52.354    472.439    645.400    472.439    477.349    472.439
106.870    644.000    662.182    -18.182    472.242    657.204    472.242    477.174    472.242
106.970    717.704    672.891     44.812    472.046    667.884    472.046    477.008    472.046
107.070    661.000    682.092    -21.092    471.853    677.052    471.853    476.848    471.853
107.170    681.906    689.477     -7.572    471.660    684.398    471.660    476.697    471.660
107.270    695.455    694.872      0.583    471.470    689.749    471.470    476.553    471.470
107.370    672.000    698.272    -26.272    471.282    693.101    471.282    476.417    471.282
107.470    680.000    699.855    -19.855    471.095    694.629    471.095    476.289    471.095
107.570    704.311    699.948      4.362    470.911    694.663    470.911    476.168    470.911
107.670    698.000    698.979     -0.979    470.728    693.628    470.728    476.056    470.728
107.770    658.063    697.404    -39.340    470.548    691.980    470.548    475.952    470.548
107.870    661.860    695.651    -33.792    470.370    690.148    470.370    475.857    470.370
107.970    661.123    694.079    -32.956    470.193    688.491    470.193    475.771    470.193
108.070    663.000    692.943    -29.943    470.019    687.262    470.019    475.693    470.019
108.170    670.000    692.381    -22.381    469.847    686.599    469.847    475.625    469.847
108.270    665.000    692.402    -27.402    469.677    686.513    469.677    475.567    469.677
108.370    711.090    692.891     18.199    469.509    686.887    469.509    475.518    469.509
108.470    722.000    693.616     28.384    469.344    687.488    469.344    475.480    469.344
108.570    660.000    694.246    -34.246    469.181    687.986    469.181    475.453    469.181
108.670    692.000    694.384     -2.384    469.020    687.981    469.020    475.437    469.020
108.770    722.000    693.609     28.391    468.862    687.055    468.862    475.433    468.862
108.870    735.955    691.537     44.419    468.706    684.822    468.706    475.441    468.706
108.970    658.921    687.874    -28.953    468.553    680.986    468.553    475.462    468.553
109.070    666.169    682.466    -16.297    468.402    675.395    468.402    475.496    468.402
109.170    693.328    675.319     18.008    468.253    668.052    468.253    475.545    468.253
109.270    688.000    666.585     21.415    468.108    659.109    468.108    475.609    468.108
109.370    672.000    656.530     15.470    467.964    648.830    467.964    475.689    467.964
109.470    643.706    645.490     -1.784    467.824    637.552    467.824    475.785    467.824
109.570    663.000    633.828     29.172    467.686    625.636    467.686    475.900    467.686
109.670    621.606    621.908     -0.302    467.551    613.445    467.551    476.035    467.551
109.770    588.000    610.069    -22.069    467.419    601.316    467.419    476.190    467.419
109.870    618.000    598.614     19.386    467.289    589.551    467.289    476.369    467.289
109.970    601.000    587.798     13.202    467.162    578.404    467.162    476.572    467.162
110.070    587.000    577.827      9.173    467.039    568.076    467.039    476.802    467.039
110.170    536.000    568.853    -32.853    466.918    558.718    466.918    477.063    466.918
110.270    567.000    560.974      6.026    466.800    550.424    466.800    477.358    466.800
110.370    545.000    554.236     -9.236    466.685    543.237    466.685    477.691    466.685
110.470    547.516    548.625     -1.109    466.574    537.135    466.574    478.068    466.574
110.570    507.847    544.138    -36.291    466.465    532.110    466.465    478.496    466.465
110.670    514.000    540.739    -26.739    466.360    528.117    466.360    478.982    466.360
110.770    551.000    538.331     12.669    466.257    525.050    466.257    479.538    466.257
110.870    548.000    536.828     11.172    466.158    522.809    466.158    480.175    466.158
110.970    547.000    536.140     10.860    466.062    521.291    466.062    480.909    466.062
111.070    492.674    536.184    -43.510    465.970    520.393    465.970    481.757    465.970
111.170    575.000    536.883     38.117    465.881    520.016    465.881    482.743    465.881
111.270    537.464    538.174     -0.710    465.795    520.071    465.795    483.892    465.795
111.370    519.398    540.007    -20.608    465.713    520.477    465.713    485.236    465.713
111.470    543.000    542.348      0.652    465.634    521.164    465.634    486.810    465.634
111.570    549.000    545.180      3.820    465.559    522.073    465.559    488.657    465.559
111.670    534.000    548.502    -14.502    465.488    523.157    465.488    490.825    465.488
111.770    587.448    552.332     35.116    465.420    524.377    465.420    493.366    465.420
111.870    547.676    556.703     -9.027    465.355    525.710    465.355    496.339    465.355
111.970    564.000    561.664      2.336    465.295    527.139    465.295    499.810    465.295
112.070    559.884    567.280     -7.396    465.238    528.662    465.238    503.845    465.238
112.170    586.058    573.628     12.430    465.185    530.286    465.185    508.517    465.185
112.270    566.564    580.797    -14.233    465.136    532.025    465.136    513.898    465.136
112.370    570.000    588.882    -18.882    465.091    533.904    465.091    520.058    465.091
112.470    615.932    597.983     17.949    465.049    535.956    465.049    527.066    465.049
112.570    566.000    608.202    -42.202    465.012    538.221    465.012    534.981    465.012
112.670    626.876    619.636      7.240    464.979    540.752    464.979    543.851    464.979
112.770    644.994    632.396     12.598    464.950    543.614    464.950    553.720    464.950
112.870    647.198    646.580      0.618    464.925    546.888    464.925    564.604    464.925
112.970    626.000    662.293    -36.293    464.904    550.684    464.904    576.500    464.904
113.070    696.000    679.648     16.352    464.887    555.139    464.887    589.382    464.887
113.170    712.646    698.771     13.876    464.875    560.438    464.875    603.192    464.875
113.270    669.000    719.816    -50.816    464.867    566.822    464.867    617.844    464.867
113.370    751.736    742.973      8.763    464.864    574.605    464.864    633.213    464.864
113.470    784.000    768.488     15.512    464.864    584.195    464.864    649.136    464.864
113.570    869.000    796.682     72.318    464.870    596.117    464.870    665.410    464.870
113.670    773.000    827.973    -54.973    464.880    611.038    464.880    681.785    464.880
113.770    892.000    862.901     29.099    464.894    629.794    464.894    697.966    464.894
113.870    945.000    902.154     42.846    464.913    653.416    464.913    713.610    464.913
113.970    933.000    946.592    -13.592    464.937    683.155    464.937    728.323    464.937
114.070    978.000    997.302    -19.302    464.965    720.504    464.965    741.701    464.965
114.170   1044.570   1055.587    -11.017    464.999    767.208    464.999    753.301    464.999
114.270   1094.000   1123.015    -29.015    465.037    825.264    465.037    762.694    465.037
114.370   1161.000   1201.437    -40.437    465.080    896.905    465.080    769.497    465.080
114.470   1250.261   1292.985    -42.724    465.127    984.563    465.127    773.409    465.127
114.570   1415.000   1400.048     14.952    465.180   1090.808    465.180    774.250    465.180
114.670   1584.634   1525.207     59.427    465.238   1218.259    465.238    771.981    465.238
114.770   1605.262   1671.125    -65.863    465.301   1369.469    465.301    766.713    465.301
114.870   1853.000   1840.389     12.611    465.369   1546.780    465.369    758.690    465.369
114.970   2141.000   2035.311    105.689    465.443   1752.161    465.443    748.256    465.443
115.070   2352.000   2257.711     94.289    465.521   1987.020    465.521    735.824    465.521
115.170   2557.000   2508.682     48.318    465.605   2252.017    465.605    721.829    465.605
115.270   2828.000   2788.378     39.622    465.694   2546.874    465.694    706.702    465.694
115.370   3054.000   3095.820    -41.820    465.789   2870.208    465.789    690.850    465.789
115.470   3442.000   3428.743     13.257    465.889   3219.393    465.889    674.637    465.889
115.570   3755.000   3783.494    -28.494    465.995   3590.458    465.995    658.383    465.995
115.670   4139.000   4154.986    -15.986    466.106   3978.044    466.106    642.360    466.106
115.770   4474.000   4536.709    -62.709    466.223   4375.418    466.223    626.796    466.223
115.870   4815.689   4920.814   -105.125    466.345   4774.550    466.345    611.873    466.345
115.970   5258.000   5298.256    -40.256    466.473   5166.254    466.473    597.735    466.473
116.070   5672.000   5659.012     12.988    466.607   5540.404    466.607    584.487    466.607
116.170   6063.585   5992.392     71.193    466.747   5886.237    466.747    572.201    466.747
116.270   6184.000   6287.445   -103.445    466.893   6192.764    466.893    560.919    466.893
116.370   6488.600   6533.513    -44.913    467.045   6449.310    467.045    550.656    467.045
116.470   6682.000   6720.906    -38.906    467.202   6646.195    467.202    541.401    467.202
116.570   6849.819   6841.694      8.125    467.366   6775.514    467.366    533.128    467.366
116.670   7028.297   6890.474    137.823    467.536   6831.903    467.536    525.792    467.536
116.770   6753.000   6864.968   -111.968    467.712   6813.137    467.712    519.338    467.712
116.870   7029.000   6766.289    262.711    467.894   6720.388    467.894    513.700    467.894
116.970   6572.000   6598.786    -26.786    468.083   6558.069    468.083    508.809    468.083
117.070   6302.907   6369.528    -66.621    468.278   6333.317    468.278    504.594    468.278
117.170   6175.639   6087.568     88.071    468.479   6055.253    468.479    500.983    468.479
117.270   5801.829   5763.154     38.676    468.687   5734.194    468.687    497.905    468.687
117.370   5329.000   5407.014    -78.014    468.901   5380.933    468.901    495.295    468.901
117.470   5032.252   5029.775      2.477    469.122   5006.159    469.122    493.090    469.122
117.570   4606.000   4641.536    -35.536    469.350   4620.026    469.350    491.235    469.350
117.670   4390.000   4251.569    138.431    469.584   4231.859    469.584    489.679    469.584
117.770   3920.000   3867.995     52.005    469.826   3849.827    469.826    488.377    469.826
117.870   3597.000   3497.708     99.292    470.074   3480.862    470.074    487.291    470.074
117.970   3346.000   3146.272    199.728    470.328   3130.564    470.328    486.387    470.328
118.070   2854.000   2817.904     36.096    470.590   2803.182    470.590    485.636    470.590
118.170   2505.000   2515.525    -10.525    470.859   2501.662    470.859    485.015    470.859
118.270   2284.427   2240.847     43.580    471.135   2227.739    471.135    484.503    471.135
118.370   2061.862   1994.515     67.348    471.418   1982.074    471.418    484.084    471.418
118.470   1777.000   1776.254      0.746    471.708   1764.410    471.708    483.744    471.708
118.570   1536.000   1585.048    -49.048    472.005   1573.741    472.005    483.472    472.005
118.670   1353.000   1419.305    -66.305    472.310   1408.486    472.310    483.259    472.310
118.770   1227.000   1277.030    -50.030    472.622   1266.658    472.622    483.098    472.622
118.870   1125.902   1155.977    -30.075    472.942   1146.016    472.942    482.984    472.942
118.970   1048.000   1053.790     -5.790    473.269   1044.210    473.269    482.910    473.269
119.070    948.000    968.117    -20.117    473.604    958.891    473.604    482.875    473.604
119.170    869.000    896.697    -27.697    473.946    887.803    473.946    482.874    473.946
119.270    942.000    837.431    104.569    474.296    828.845    474.296    482.905    474.296
119.370    780.000    788.416     -8.416    474.654    780.119    474.654    482.967    474.654
119.470    787.000    747.972     39.028    475.020    739.944    475.020    483.057    475.020
119.570    696.000    714.641    -18.641    475.393    706.864    475.393    483.176    475.393
119.670    692.000    687.186      4.814    475.775    679.642    475.775    483.321    475.775
119.770    642.513    664.568    -22.054    476.164    657.241    476.164    483.493    476.164
119.870    622.000    645.930    -23.930    476.562    638.803    476.562    483.690    476.562
119.970    648.000    630.575     17.425    476.967    623.629    476.967    483.914    476.967
120.070    635.000    617.936     17.064    477.381    611.156    477.381    484.162    477.381
120.170    579.000    607.561    -28.561    477.804    600.930    477.804    484.437    477.804
120.270    590.000    599.093     -9.093    478.234    592.592    478.234    484.737    478.234
120.370    561.000    592.246    -31.246    478.673    585.859    478.673    485.063    478.673
120.470    575.000    586.798    -11.798    479.121    580.506    479.121    485.415    479.121
120.570    594.704    582.573     12.131    479.577    576.359    479.577    485.794    479.577
120.670    557.000    579.435    -22.435    480.042    573.280    480.042    486.200    480.042
120.770    566.000    577.276    -11.276    480.515    571.162    480.515    486.634    480.515
120.870    579.000    576.011      2.989    480.997    569.918    480.997    487.095    480.997
120.970    548.098    575.571    -27.473    481.488    569.480    481.488    487.585    481.488
121.070    612.000    575.898     36.102    481.988    569.790    481.988    488.103    481.988
121.170    582.590    576.941      5.649    482.497    570.797    482.497    488.649    482.497
121.270    576.000    578.652     -2.652    483.015    572.453    483.015    489.224    483.015
121.370    523.000    580.985    -57.985    483.542    574.711    483.542    489.827    483.542
121.470    559.000    583.886    -24.886    484.078    577.520    484.078    490.457    484.078
121.570    609.000    587.301     21.699    484.623    580.825    484.623    491.115    484.623
121.670    615.000    591.166     23.834    485.178    584.564    485.178    491.798    485.178
121.770    642.610    595.412     47.198    485.742    588.668    485.742    492.506    485.742
121.870    629.000    599.958     29.042    486.316    593.060    486.316    493.236    486.316
121.970    585.000    604.717    -19.717    486.899    597.654    486.899    493.987    486.899
122.070    582.837    609.593    -26.755    487.491    602.355    487.491    494.757    487.491
122.170    573.798    614.481    -40.683    488.094    607.063    488.094    495.542    488.094
122.270    588.869    619.271    -30.402    488.706    611.670    488.706    496.340    488.706
122.370    614.000    623.849     -9.849    489.328    616.067    489.328    497.146    489.328
122.470    672.000    628.101     43.899    489.960    620.142    489.960    497.956    489.960
122.570    608.000    631.916    -23.916    490.601    623.791    490.601    498.767    490.601
122.670    645.000    635.193      9.807    491.253    626.916    491.253    499.572    491.253
122.770    656.612    637.843     18.768    491.915    629.435    491.915    500.368    491.915
122.870    658.000    639.802     18.198    492.587    631.286    492.587    501.149    492.587
122.970    597.000    641.026    -44.026    493.270    632.433    493.270    501.910    493.270
123.070    640.000    641.503     -1.503    493.963    632.865    493.963    502.646    493.963
123.170    630.000    641.243    -11.243    494.666    632.599    494.666    503.356    494.666
123.270    698.000    640.285     57.715    495.379    631.674    495.379    504.036    495.379
123.370    658.000    638.685     19.315    496.103    630.147    496.103    504.686    496.103
123.470    649.198    636.513     12.685    496.838    628.088    496.838    505.306    496.838
123.570    606.646    633.850    -27.204    497.584    625.577    497.584    505.898    497.584
123.670    663.000    630.782     32.218    498.340    622.695    498.340    506.465    498.340
123.770    626.000    627.394     -1.394    499.107    619.525    499.107    507.013    499.107
123.870    682.000    623.772     58.228    499.885    616.146    499.885    507.544    499.885
123.970    625.000    619.994      5.006    500.675    612.633    500.675    508.065    500.675
124.070    607.000    616.131     -9.131    501.475    609.054    501.475    508.579    501.475
124.170    598.000    612.248    -14.248    502.286    605.464    502.286    509.094    502.286
124.270    576.000    608.395    -32.395    503.109    601.914    503.109    509.611    503.109
124.370    585.789    604.615    -18.826    503.943    598.440    503.943    510.137    503.943
124.470    581.823    600.939    -19.116    504.788    595.069    504.788    510.674    504.788
124.570    660.000    597.386     62.614    505.645    591.819    505.645    511.225    505.645
124.670    584.887    593.969     -9.082    506.514    588.700    506.514    511.795    506.514
124.770    572.953    590.693    -17.740    507.394    585.712    507.394    512.384    507.394
124.870    618.000    587.556     30.444    508.286    582.854    508.286    512.995    508.286
124.970    590.512    584.556      5.956    509.189    580.121    509.189    513.630    509.189
