neutron_powder_diffraction_0199
R_wp: 3.905
Temperature (K): 1074.000
Counts: 83511.00
Wavelength (Ã…): 2.52098
COMMENTS
Test file for demonstrating the .xyy file format in Reel1.0
END OF HEADER
   tth       Y_obs     Y_calc      Y_res    Background    Phase_1_Nuc    Phase_1_Mag    Phase_2_Nuc    Phase_2_Mag
  9.970    631.000    572.928     58.072    572.259    572.903    572.259    572.284    572.259
 10.070    598.000    573.020     24.980    572.295    572.995    572.295    572.320    572.295
 10.170    601.566    573.115     28.451    572.327    573.090    572.327    572.352    572.327
 10.270    592.000    573.215     18.785    572.353    573.189    572.353    572.378    572.353
 10.370    575.000    573.322      1.678    572.375    573.296    572.375    572.400    572.375
 10.470    570.000    573.438     -3.438    572.391    573.412    572.391    572.417    572.391
 10.570    587.000    573.569     13.431    572.403    573.541    572.403    572.429    572.403
 10.670    565.000    573.717     -8.717    572.409    573.689    572.409    572.437    572.409
 10.770    562.134    573.888    -11.755    572.411    573.860    572.411    572.439    572.411
 10.870    570.276    574.093     -3.817    572.408    574.064    572.408    572.436    572.408
 10.970    595.000    574.343     20.657    572.400    574.314    572.400    572.428    572.400
 11.070    611.839    574.655     37.185    572.388    574.625    572.388    572.416    572.388
 11.170    576.000    575.055      0.945    572.371    575.024    572.371    572.400    572.371
 11.270    555.000    575.581    -20.581    572.349    575.549    572.349    572.379    572.349
 11.370    562.188    576.309    -14.121    572.323    576.267    572.323    572.363    572.323
 11.470    615.052    577.366     37.686    572.292    577.322    572.292    572.333    572.292
 11.570    588.000    579.166      8.834    572.257    579.121    572.257    572.299    572.257
 11.670    584.000    582.861      1.139    572.217    582.813    572.217    572.259    572.217
 11.770    645.000    591.125     53.875    572.173    591.073    572.173    572.215    572.173
 11.870    694.000    608.274     85.726    572.125    608.212    572.125    572.167    572.125
 11.970    680.000    637.659     42.341    572.073    637.580    572.073    572.115    572.073
 12.070    647.000    675.498    -28.498    572.016    675.397    572.016    572.058    572.016
 12.170    663.000    705.259    -42.259    571.955    705.140    571.955    571.998    571.955
 12.270    651.000    706.172    -55.172    571.890    706.048    571.890    571.938    571.890
 12.370    652.000    677.351    -25.351    571.820    677.242    571.820    571.869    571.820
 12.470    637.000    639.212     -2.212    571.747    639.124    571.747    571.796    571.747
 12.570    569.000    609.029    -40.029    571.670    608.958    571.670    571.719    571.670
 12.670    630.173    591.162     39.011    571.589    591.101    571.589    571.638    571.589
 12.770    598.385    582.436     15.949    571.503    582.380    571.503    571.553    571.503
 12.870    556.000    578.471    -22.471    571.414    578.417    571.414    571.465    571.414
 12.970    572.000    576.490     -4.490    571.321    576.437    571.321    571.372    571.321
 13.070    558.000    575.286    -17.286    571.225    575.232    571.225    571.275    571.225
 13.170    548.000    574.431    -26.431    571.124    574.378    571.124    571.175    571.124
 13.270    554.000    573.774    -19.774    571.020    573.721    571.020    571.071    571.020
 13.370    517.000    573.246    -56.246    570.912    573.194    570.912    570.964    570.912
 13.470    579.000    572.809      6.191    570.801    572.756    570.801    570.852    570.801
 13.570    544.000    572.436    -28.436    570.685    572.383    570.685    570.738    570.685
 13.670    562.074    572.110    -10.036    570.567    572.057    570.567    570.619    570.567
 13.770    565.226    571.819     -6.593    570.445    571.765    570.445    570.497    570.445
 13.870    563.000    571.553     -8.553    570.319    571.500    570.319    570.372    570.319
 13.970    557.000    571.308    -14.308    570.190    571.254    570.190    570.243    570.190
 14.070    582.000    571.077     10.923    570.058    571.023    570.058    570.111    570.058
 14.170    591.856    570.858     20.997    569.922    570.804    569.922    569.976    569.922
 14.270    587.000    570.649     16.351    569.783    570.593    569.783    569.838    569.783
 14.370    558.000    570.447    -12.447    569.640    570.390    569.640    569.698    569.640
 14.470    537.000    570.252    -33.252    569.495    570.194    569.495    569.553    569.495
 14.570    589.000    570.059     18.941    569.346    570.000    569.346    569.406    569.346
 14.670    519.000    569.867    -50.867    569.194    569.807    569.194    569.254    569.194
 14.770    578.000    569.676      8.324    569.039    569.616    569.039    569.099    569.039
 14.870    536.125    569.487    -33.363    568.881    569.426    568.881    568.942    568.881
 14.970    563.000    569.298     -6.298    568.720    569.237    568.720    568.782    568.720
 15.070    535.372    569.110    -33.737    568.556    569.048    568.556    568.618    568.556
 15.170    527.796    568.921    -41.125    568.389    568.859    568.389    568.451    568.389
 15.270    523.477    568.731    -45.254    568.219    568.669    568.219    568.282    568.219
 15.370    533.597    568.541    -34.943    568.047    568.478    568.047    568.109    568.047
 15.470    582.000    568.349     13.651    567.871    568.286    567.871    567.934    567.871
 15.570    596.977    568.157     28.820    567.692    568.093    567.692    567.756    567.692
 15.670    575.000    567.963      7.037    567.511    567.899    567.511    567.575    567.511
 15.770    571.533    567.768      3.765    567.327    567.703    567.327    567.392    567.327
 15.870    573.245    567.571      5.674    567.141    567.506    567.141    567.205    567.141
 15.970    548.000    567.373    -19.373    566.952    567.308    566.952    567.016    566.952
 16.070    582.000    567.173     14.827    566.760    567.107    566.760    566.825    566.760
 16.170    528.220    566.971    -38.751    566.565    566.905    566.565    566.631    566.565
 16.270    552.650    566.768    -14.119    566.368    566.702    566.368    566.434    566.368
 16.370    598.000    566.565     31.435    566.169    566.498    566.169    566.235    566.169
 16.470    577.458    566.358     11.100    565.967    566.291    565.967    566.034    565.967
 16.570    540.000    566.149    -26.149    565.762    566.082    565.762    565.830    565.762
 16.670    525.000    565.938    -40.938    565.556    565.870    565.556    565.624    565.556
 16.770    570.598    565.726      4.872    565.347    565.657    565.347    565.415    565.347
 16.870    577.544    565.513     12.031    565.135    565.443    565.135    565.205    565.135
 16.970    517.000    565.297    -48.297    564.921    565.226    564.921    564.992    564.921
 17.070    610.197    565.079     45.118    564.705    565.008    564.705    564.777    564.705
 17.170    611.184    564.859     46.325    564.487    564.788    564.487    564.559    564.487
 17.270    584.000    564.640     19.360    564.267    564.568    564.267    564.339    564.267
 17.370    524.382    564.417    -40.035    564.044    564.345    564.044    564.117    564.044
 17.470    567.000    564.192      2.808    563.819    564.119    563.819    563.893    563.819
 17.570    524.000    563.965    -39.965    563.593    563.891    563.593    563.666    563.593
 17.670    559.000    563.736     -4.736    563.364    563.662    563.364    563.438    563.364
 17.770    537.000    563.506    -26.506    563.133    563.431    563.133    563.208    563.133
 17.870    550.000    563.274    -13.274    562.900    563.199    562.900    562.975    562.900
 17.970    598.832    563.040     35.792    562.665    562.965    562.665    562.741    562.665
 18.070    573.586    562.805     10.781    562.429    562.729    562.429    562.505    562.429
 18.170    529.486    562.568    -33.082    562.190    562.491    562.190    562.267    562.190
 18.270    594.000    562.330     31.670    561.950    562.252    561.950    562.027    561.950
 18.370    544.000    562.090    -18.090    561.707    562.012    561.707    561.785    561.707
 18.470    545.000    561.848    -16.848    561.463    561.770    561.463    561.542    561.463
 18.570    565.000    561.606      3.394    561.217    561.527    561.217    561.297    561.217
 18.670    577.000    561.362     15.638    560.970    561.282    560.970    561.050    560.970
 18.770    570.000    561.116      8.884    560.721    561.036    560.721    560.801    560.721
 18.870    524.343    560.873    -36.530    560.470    560.788    560.470    560.555    560.470
 18.970    586.000    560.626     25.374    560.217    560.538    560.217    560.305    560.217
 19.070    596.000    560.376     35.624    559.963    560.288    559.963    560.052    559.963
 19.170    546.000    560.125    -14.125    559.707    560.036    559.707    559.797    559.707
 19.270    516.431    559.873    -43.441    559.450    559.783    559.450    559.540    559.450
 19.370    539.000    559.619    -20.619    559.191    559.529    559.191    559.282    559.191
 19.470    552.000    559.366     -7.366    558.931    559.274    558.931    559.022    558.931
 19.570    597.435    559.111     38.324    558.669    559.019    558.669    558.762    558.669
 19.670    515.148    558.854    -43.706    558.406    558.761    558.406    558.499    558.406
 19.770    576.000    558.596     17.404    558.142    558.502    558.142    558.236    558.142
 19.870    525.000    558.339    -33.339    557.876    558.244    557.876    557.970    557.876
 19.970    602.991    558.092     44.899    557.609    557.997    557.609    557.704    557.609
 20.070    578.047    557.842     20.205    557.340    557.746    557.340    557.436    557.340
 20.170    583.951    557.581     26.369    557.071    557.484    557.071    557.168    557.071
 20.270    548.000    557.319     -9.319    556.800    557.221    556.800    556.897    556.800
 20.370    561.913    557.057      4.857    556.527    556.958    556.527    556.626    556.527
 20.470    546.367    556.793    -10.426    556.254    556.693    556.254    556.354    556.254
 20.570    592.917    556.529     36.387    555.979    556.429    555.979    556.080    555.979
 20.670    572.000    556.265     15.735    555.704    556.163    555.704    555.805    555.704
 20.770    519.684    556.000    -36.316    555.427    555.897    555.427    555.530    555.427
 20.870    530.695    555.735    -25.040    555.149    555.631    555.149    555.253    555.149
 20.970    552.000    555.469     -3.469    554.870    555.364    554.870    554.975    554.870
 21.070    570.000    555.204     14.796    554.590    555.098    554.590    554.696    554.590
 21.170    545.163    554.938     -9.775    554.309    554.831    554.309    554.416    554.309
 21.270    538.948    554.672    -15.724    554.027    554.564    554.027    554.136    554.027
 21.370    543.000    554.407    -11.407    553.745    554.297    553.745    553.854    553.745
 21.470    560.000    554.150      5.850    553.461    554.039    553.461    553.571    553.461
 21.570    553.000    553.970     -0.970    553.176    553.858    553.176    553.288    553.176
 21.670    567.000    553.728     13.272    552.891    553.615    552.891    553.004    552.891
 21.770    560.159    553.466      6.692    552.605    553.352    552.605    552.719    552.605
 21.870    529.594    553.206    -23.612    552.317    553.090    552.317    552.433    552.317
 21.970    526.000    552.967    -26.967    552.030    552.850    552.030    552.147    552.030
 22.070    572.000    552.736     19.264    551.741    552.618    551.741    551.860    551.741
 22.170    521.408    552.482    -31.075    551.452    552.362    551.452    551.572    551.452
 22.270    557.000    552.232      4.768    551.162    552.111    551.162    551.283    551.162
 22.370    566.000    552.026     13.974    550.871    551.903    550.871    550.994    550.871
 22.470    560.000    551.797      8.203    550.579    551.672    550.579    550.704    550.579
 22.570    544.000    551.556     -7.556    550.287    551.430    550.287    550.414    550.287
 22.670    527.000    551.321    -24.321    549.995    551.193    549.995    550.123    549.995
 22.770    554.000    551.089      2.911    549.702    550.958    549.702    549.832    549.702
 22.870    557.553    550.865      6.689    549.408    550.731    549.408    549.542    549.408
 22.970    522.000    550.649    -28.649    549.114    550.512    549.114    549.251    549.114
 23.070    557.000    550.443      6.557    548.819    550.304    548.819    548.958    548.819
 23.170    548.000    550.250     -2.250    548.524    550.109    548.524    548.665    548.524
 23.270    541.000    550.075     -9.075    548.228    549.932    548.228    548.372    548.228
 23.370    510.310    549.921    -39.612    547.932    549.776    547.932    548.078    547.932
 23.470    560.934    549.796     11.138    547.635    549.648    547.635    547.784    547.635
 23.570    532.000    549.709    -17.709    547.338    549.559    547.338    547.489    547.338
 23.670    554.000    549.674      4.326    547.041    549.521    547.041    547.195    547.041
 23.770    566.000    549.705     16.295    546.743    549.550    546.743    546.900    546.743
 23.870    563.000    549.835     13.165    546.445    549.677    546.445    546.605    546.445
 23.970    521.000    550.118    -29.118    546.147    549.957    546.147    546.310    546.147
 24.070    528.000    550.680    -22.680    545.849    550.517    545.849    546.014    545.849
 24.170    555.000    551.883      3.117    545.550    551.718    545.550    545.719    545.550
 24.270    573.856    554.693     19.162    545.251    554.526    545.251    545.423    545.251
 24.370    591.344    561.140     30.204    544.952    560.975    544.952    545.128    544.952
 24.470    590.599    574.047     16.552    544.652    573.887    544.652    544.832    544.652
 24.570    608.000    594.826     13.174    544.353    594.676    544.353    544.537    544.353
 24.670    631.000    619.429     11.571    544.053    619.294    544.053    544.242    544.053
 24.770    596.000    635.749    -39.749    543.753    635.621    543.753    543.946    543.753
 24.870    610.000    631.773    -21.773    543.453    631.638    543.453    543.651    543.453
 24.970    601.000    610.762     -9.762    543.154    610.606    543.154    543.356    543.154
 25.070    583.000    586.176     -3.176    542.853    585.998    542.853    543.062    542.853
 25.170    560.000    567.437     -7.437    542.553    567.239    542.553    542.767    542.553
 25.270    574.459    556.386     18.072    542.253    556.175    542.253    542.473    542.253
 25.370    589.000    550.852     38.148    541.953    550.631    541.953    542.180    541.953
 25.470    554.000    548.194      5.806    541.653    547.964    541.653    541.887    541.653
 25.570    573.146    546.763     26.382    541.353    546.524    541.353    541.594    541.353
 25.670    580.000    545.834     34.166    541.053    545.587    541.053    541.302    541.053
 25.770    547.000    545.144      1.856    540.753    544.888    540.753    541.011    540.753
 25.870    522.923    544.593    -21.669    540.454    544.327    540.454    540.720    540.454
 25.970    534.000    544.142    -10.142    540.154    543.866    540.154    540.431    540.154
 26.070    588.740    543.770     44.969    539.855    543.484    539.855    540.142    539.855
 26.170    519.306    543.486    -24.180    539.555    543.188    539.555    539.854    539.555
 26.270    556.510    543.254     13.256    539.256    542.943    539.256    539.567    539.256
 26.370    558.000    543.050     14.950    538.957    542.725    538.957    539.282    538.957
 26.470    568.023    542.894     25.129    538.659    542.555    538.659    538.998    538.659
 26.570    500.044    542.794    -42.750    538.360    542.438    538.360    538.716    538.360
 26.670    556.000    542.754     13.246    538.062    542.381    538.062    538.436    538.062
 26.770    575.452    542.775     32.677    537.764    542.382    537.764    538.157    537.764
 26.870    547.000    542.875      4.125    537.466    542.460    537.466    537.881    537.466
 26.970    560.000    543.083     16.917    537.169    542.644    537.169    537.608    537.169
 27.070    562.000    543.434     18.566    536.872    542.968    536.872    537.338    536.872
 27.170    539.000    543.932     -4.932    536.576    543.436    536.576    537.071    536.576
 27.270    548.000    544.634      3.366    536.279    544.105    536.279    536.808    536.279
 27.370    509.000    545.643    -36.643    535.983    545.075    535.983    536.550    535.983
 27.470    560.000    547.118     12.882    535.688    546.508    535.688    536.297    535.688
 27.570    589.000    549.479     39.521    535.393    548.819    535.393    536.050    535.393
 27.670    590.000    554.163     35.837    535.098    553.446    535.098    535.811    535.098
 27.770    584.000    565.897     18.103    534.804    565.112    534.804    535.581    534.804
 27.870    564.948    596.270    -31.322    534.510    595.399    534.510    535.362    534.510
 27.970    645.000    662.719    -17.719    534.217    661.740    534.217    535.156    534.217
 28.070    824.000    772.329     51.671    533.924    771.214    533.924    534.966    533.924
 28.170    897.000    894.150      2.850    533.632    892.885    533.632    534.797    533.632
 28.270    927.000    954.255    -27.255    533.340    952.844    533.340    534.653    533.340
 28.370    959.859    903.788     56.071    533.049    902.232    533.049    534.542    533.049
 28.470    786.000    794.892     -8.892    532.759    793.147    532.759    534.475    532.759
 28.570    716.000    710.356      5.644    532.469    708.343    532.469    534.468    532.469
 28.670    674.000    692.800    -18.800    532.179    690.412    532.179    534.551    532.179
 28.770    774.000    737.542     36.458    531.890    734.637    531.890    534.775    531.890
 28.870    789.086    805.215    -16.128    531.602    801.568    531.602    535.234    531.602
 28.970    827.000    837.126    -10.126    531.315    832.356    531.315    536.084    531.315
 29.070    760.060    798.518    -38.459    531.028    791.998    531.028    537.558    531.028
 29.170    721.000    719.705      1.295    530.742    710.522    530.742    539.936    530.742
 29.270    660.000    647.426     12.574    530.456    634.421    530.456    543.468    530.456
 29.370    599.000    602.857     -3.857    530.171    584.821    530.171    548.210    530.171
 29.470    564.000    583.465    -19.465    529.887    559.625    529.887    553.726    529.887
 29.570    580.112    577.640      2.472    529.604    548.575    529.604    558.667    529.604
 29.670    579.885    575.131      4.754    529.321    543.634    529.321    560.815    529.321
 29.770    550.000    570.712    -20.712    529.040    540.974    529.040    558.775    529.040
 29.870    599.057    564.102     34.955    528.758    539.247    528.758    553.611    528.758
 29.970    566.000    557.089      8.911    528.478    538.036    528.478    547.530    528.478
 30.070    561.883    551.055     10.828    528.199    537.204    528.199    542.047    528.199
 30.170    569.950    546.542     23.408    527.920    536.727    527.920    537.733    527.920
 30.270    538.000    543.676     -5.676    527.642    536.716    527.642    534.599    527.642
 30.370    497.912    542.673    -44.761    527.365    537.615    527.365    532.419    527.365
 30.470    580.000    544.402     35.598    527.089    540.574    527.089    530.910    527.089
 30.570    506.799    550.736    -43.936    526.813    547.708    526.813    529.829    526.813
 30.670    526.884    563.778    -36.895    526.539    561.286    526.539    529.008    526.539
 30.770    618.000    583.303     34.697    526.265    581.190    526.265    528.342    526.265
 30.870    661.000    603.515     57.485    525.993    601.684    525.993    527.773    525.993
 30.970    604.000    612.733     -8.733    525.721    611.129    525.721    527.270    525.721
 31.070    620.835    603.221     17.614    525.450    601.813    525.450    526.813    525.450
 31.170    600.000    582.156     17.844    525.180    580.915    525.180    526.391    525.180
 31.270    556.000    561.215     -5.215    524.911    560.113    524.911    525.997    524.911
 31.370    569.000    546.439     22.561    524.643    545.450    524.643    525.624    524.643
 31.470    546.000    538.155      7.845    524.377    537.259    524.377    525.268    524.377
 31.570    546.624    534.137     12.487    524.110    533.318    524.110    524.927    524.110
 31.670    534.000    532.224      1.776    523.845    531.470    523.845    524.598    523.845
 31.770    499.151    531.191    -32.041    523.581    530.493    523.581    524.278    523.581
 31.870    547.047    530.535     16.512    523.318    529.886    523.318    523.967    523.318
 31.970    535.000    530.078      4.922    523.057    529.471    523.057    523.662    523.057
 32.070    556.000    529.759     26.241    522.796    529.189    522.796    523.364    522.796
 32.170    541.000    529.558     11.442    522.536    529.020    522.536    523.072    522.536
 32.270    541.000    529.465     11.535    522.277    528.957    522.277    522.784    522.277
 32.370    505.000    529.483    -24.483    522.019    529.000    522.019    522.501    522.019
 32.470    509.305    529.618    -20.314    521.763    529.159    521.763    522.221    521.763
 32.570    562.000    529.889     32.111    521.507    529.450    521.507    521.945    521.507
 32.670    523.373    530.319     -6.947    521.253    529.899    521.253    521.672    521.253
 32.770    572.000    530.949     41.051    520.999    530.545    520.999    521.402    520.999
 32.870    542.000    531.834     10.166    520.747    531.445    520.747    521.135    520.747
 32.970    547.000    533.056     13.944    520.496    532.681    520.496    520.870    520.496
 33.070    576.213    534.746     41.468    520.246    534.382    520.246    520.608    520.246
 33.170    521.000    537.136    -16.136    519.997    536.783    519.997    520.348    519.997
 33.270    529.000    540.769    -11.769    519.750    540.426    519.750    520.090    519.750
 33.370    558.000    547.107     10.893    519.503    546.772    519.503    519.835    519.503
 33.470    569.000    559.953      9.047    519.258    559.623    519.258    519.581    519.258
 33.570    592.000    587.454      4.546    519.014    587.127    519.014    519.329    519.014
 33.670    611.000    642.347    -31.347    518.771    642.018    518.771    519.079    518.771
 33.770    753.000    736.004     16.996    518.529    735.665    518.529    518.831    518.529
 33.870    886.163    864.527     21.636    518.289    864.176    518.289    518.585    518.289
 33.970   1010.000    993.128     16.872    518.050    992.772    518.050    518.340    518.050
 34.070   1070.000   1056.085     13.915    517.812   1055.743    517.812    518.097    517.812
 34.170   1045.983   1008.789     37.193    517.575   1008.477    517.575    517.856    517.575
 34.270    876.000    886.198    -10.198    517.339    885.916    517.339    517.616    517.339
 34.370    786.728    754.444     32.284    517.105    754.176    517.105    517.378    517.105
 34.470    666.604    653.811     12.794    516.872    653.549    516.872    517.142    516.872
 34.570    568.217    592.450    -24.233    516.640    592.188    516.640    516.907    516.640
 34.670    572.000    560.602     11.398    516.410    560.340    516.410    516.673    516.410
 34.770    511.465    545.296    -33.831    516.181    545.036    516.181    516.442    516.181
 34.870    535.000    537.591     -2.591    515.953    537.332    515.953    516.211    515.953
 34.970    534.265    533.071      1.193    515.726    532.814    515.726    515.983    515.726
 35.070    571.000    529.974     41.026    515.501    529.719    515.501    515.755    515.501
 35.170    533.000    527.643      5.357    515.277    527.390    515.277    515.530    515.277
 35.270    550.000    525.805     24.195    515.054    525.553    515.054    515.306    515.054
 35.370    506.000    524.315    -18.315    514.833    524.064    514.833    515.083    514.833
 35.470    529.000    523.081      5.919    514.613    522.832    514.613    514.862    514.613
 35.570    512.018    522.042    -10.024    514.395    521.794    514.395    514.642    514.395
 35.670    534.000    521.153     12.847    514.177    520.906    514.177    514.424    514.177
 35.770    476.000    520.382    -44.382    513.961    520.136    513.961    514.207    513.961
 35.870    501.000    519.706    -18.706    513.747    519.460    513.747    513.992    513.747
 35.970    481.000    519.106    -38.106    513.534    518.861    513.534    513.778    513.534
 36.070    455.000    518.570    -63.570    513.322    518.326    513.322    513.566    513.322
 36.170    488.399    518.088    -29.689    513.112    517.844    513.112    513.356    513.112
 36.270    520.000    517.652      2.348    512.902    517.408    512.902    513.146    512.902
 36.370    512.000    517.258     -5.258    512.695    517.014    512.695    512.939    512.695
 36.470    547.000    516.901     30.099    512.489    516.657    512.489    512.733    512.489
 36.570    519.724    516.581      3.143    512.284    516.337    512.284    512.528    512.284
 36.670    524.000    516.298      7.702    512.080    516.054    512.080    512.325    512.080
 36.770    508.000    516.059     -8.059    511.878    515.814    511.878    512.123    511.878
 36.870    510.000    515.881     -5.881    511.678    515.636    511.678    511.923    511.678
 36.970    547.000    515.813     31.187    511.479    515.567    511.479    511.724    511.479
 37.070    551.119    515.977     35.142    511.281    515.731    511.281    511.527    511.281
 37.170    534.000    516.609     17.391    511.085    516.363    511.085    511.332    511.085
 37.270    554.000    518.056     35.944    510.890    517.809    510.890    511.137    510.890
 37.370    512.000    520.612     -8.612    510.696    520.364    510.696    510.945    510.696
 37.470    522.000    524.195     -2.195    510.504    523.947    510.504    510.754    510.504
 37.570    542.000    527.980     14.020    510.314    527.732    510.314    510.564    510.314
 37.670    548.000    530.358     17.642    510.125    530.110    510.125    510.376    510.125
 37.770    538.000    529.976      8.024    509.937    529.729    509.937    510.190    509.937
 37.870    543.729    527.184     16.545    509.751    526.938    509.751    510.005    509.751
 37.970    562.653    523.466     39.187    509.566    523.220    509.566    509.822    509.566
 38.070    548.000    519.977     28.023    509.383    519.730    509.383    509.640    509.383
 38.170    482.204    517.168    -34.964    509.202    516.919    509.202    509.460    509.202
 38.270    558.771    515.117     43.654    509.021    514.864    509.021    509.281    509.021
 38.370    500.000    513.719    -13.719    508.843    513.462    508.843    509.104    508.843
 38.470    480.325    512.795    -32.470    508.665    512.535    508.665    508.928    508.665
 38.570    555.448    512.183     43.265    508.490    511.920    508.490    508.754    508.490
 38.670    484.000    511.759    -27.759    508.315    511.493    508.315    508.582    508.315
 38.770    470.000    511.441    -41.441    508.142    511.173    508.142    508.411    508.142
 38.870    490.000    511.180    -21.180    507.971    510.910    507.971    508.242    507.971
 38.970    468.897    510.951    -42.054    507.801    510.679    507.801    508.074    507.801
 39.070    506.000    510.743     -4.743    507.633    510.468    507.633    507.908    507.633
 39.170    486.000    510.550    -24.550    507.466    510.273    507.466    507.744    507.466
 39.270    515.000    510.369      4.631    507.301    510.089    507.301    507.581    507.301
 39.370    479.000    510.198    -31.198    507.137    509.916    507.137    507.419    507.137
 39.470    500.000    510.037    -10.037    506.975    509.753    506.975    507.260    506.975
 39.570    501.000    509.884     -8.884    506.815    509.597    506.815    507.102    506.815
 39.670    537.000    509.740     27.260    506.655    509.450    506.655    506.945    506.655
 39.770    502.743    509.603     -6.860    506.498    509.310    506.498    506.790    506.498
 39.870    521.000    509.474     11.526    506.342    509.178    506.342    506.637    506.342
 39.970    489.000    509.352    -20.352    506.187    509.054    506.187    506.485    506.187
 40.070    487.435    509.239    -21.805    506.034    508.938    506.034    506.335    506.034
 40.170    516.300    509.134      7.166    505.882    508.830    505.882    506.187    505.882
 40.270    507.000    509.039     -2.039    505.732    508.731    505.732    506.040    505.732
 40.370    530.000    508.953     21.047    505.584    508.642    505.584    505.895    505.584
 40.470    466.209    508.878    -42.669    505.437    508.564    505.437    505.752    505.437
 40.570    536.686    508.816     27.870    505.292    508.498    505.292    505.610    505.292
 40.670    532.642    508.767     23.875    505.148    508.445    505.148    505.470    505.148
 40.770    499.244    508.734     -9.490    505.005    508.409    505.005    505.331    505.005
 40.870    558.000    508.720     49.280    504.865    508.391    504.865    505.194    504.865
 40.970    477.000    508.728    -31.728    504.725    508.395    504.725    505.059    504.725
 41.070    481.000    508.763    -27.763    504.588    508.426    504.588    504.926    504.588
 41.170    494.179    508.831    -14.652    504.452    508.489    504.452    504.794    504.452
 41.270    517.000    508.940      8.060    504.317    508.594    504.317    504.664    504.317
 41.370    505.000    509.101     -4.101    504.184    508.750    504.184    504.535    504.184
 41.470    496.000    509.330    -13.330    504.052    508.975    504.052    504.409    504.052
 41.570    474.929    509.651    -34.722    503.922    509.291    503.922    504.284    503.922
 41.670    499.000    510.110    -11.110    503.794    509.745    503.794    504.160    503.794
 41.770    487.000    510.806    -23.806    503.667    510.436    503.667    504.039    503.667
 41.870    516.000    511.977      4.023    503.542    511.603    503.542    503.919    503.542
 41.970    493.000    514.173    -21.173    503.418    513.794    503.418    503.801    503.418
 42.070    484.000    518.482    -34.482    503.296    518.099    503.296    503.684    503.296
 42.170    484.000    526.633    -42.633    503.175    526.248    503.175    503.570    503.175
 42.270    562.000    540.600     21.400    503.056    540.215    503.056    503.457    503.056
 42.370    578.000    561.398     16.602    502.938    561.016    502.938    503.346    502.938
 42.470    583.000    587.302     -4.302    502.822    586.927    502.822    503.237    502.822
 42.570    596.000    612.295    -16.295    502.708    611.926    502.708    503.129    502.708
 42.670    612.000    626.587    -14.587    502.595    626.221    502.595    503.023    502.595
 42.770    580.940    622.704    -41.764    502.483    622.332    502.483    502.919    502.483
 42.870    527.000    602.923    -75.923    502.374    602.535    502.374    502.817    502.374
 42.970    617.598    576.566     41.032    502.265    576.156    502.265    502.717    502.265
 43.070    557.000    552.148      4.852    502.158    551.716    502.158    502.619    502.158
 43.170    488.000    533.887    -45.887    502.053    533.436    502.053    502.522    502.053
 43.270    510.916    522.238    -11.322    501.950    521.770    501.950    502.428    501.950
 43.370    504.000    515.646    -11.646    501.847    515.165    501.847    502.335    501.847
 43.470    497.000    512.162    -15.162    501.747    511.668    501.747    502.245    501.747
 43.570    489.000    510.305    -21.305    501.648    509.799    501.648    502.156    501.648
 43.670    530.000    509.221     20.779    501.550    508.703    501.550    502.069    501.550
 43.770    515.000    508.502      6.498    501.454    507.973    501.454    501.985    501.454
 43.870    502.000    507.976     -5.976    501.360    507.435    501.360    501.902    501.360
 43.970    484.055    507.570    -23.515    501.267    507.016    501.267    501.821    501.267
 44.070    516.000    507.248      8.752    501.175    506.681    501.175    501.743    501.175
 44.170    527.000    506.990     20.010    501.085    506.409    501.085    501.667    501.085
 44.270    513.000    506.781      6.219    500.997    506.186    500.997    501.593    500.997
 44.370    530.000    506.614     23.386    500.910    506.004    500.910    501.521    500.910
 44.470    465.238    506.480    -41.242    500.825    505.854    500.825    501.451    500.825
 44.570    487.493    506.375    -18.882    500.741    505.732    500.741    501.384    500.741
 44.670    535.000    506.295     28.705    500.659    505.634    500.659    501.320    500.659
 44.770    539.357    506.236     33.121    500.578    505.557    500.578    501.257    500.578
 44.870    496.000    506.198    -10.198    500.499    505.499    500.499    501.198    500.499
 44.970    480.000    506.178    -26.178    500.421    505.458    500.421    501.141    500.421
 45.070    488.000    506.176    -18.176    500.345    505.434    500.345    501.086    500.345
 45.170    530.000    506.191     23.809    500.270    505.426    500.270    501.035    500.270
 45.270    517.000    506.223     10.777    500.197    505.433    500.197    500.987    500.197
 45.370    468.400    506.272    -37.871    500.125    505.455    500.125    500.941    500.125
 45.470    520.000    506.338     13.662    500.055    505.493    500.055    500.899    500.055
 45.570    547.218    506.422     40.796    499.986    505.547    499.986    500.860    499.986
 45.670    515.000    506.525      8.475    499.919    505.618    499.919    500.825    499.919
 45.770    489.000    506.648    -17.648    499.853    505.707    499.853    500.794    499.853
 45.870    516.000    506.794      9.206    499.789    505.816    499.789    500.767    499.789
 45.970    531.000    506.964     24.036    499.726    505.946    499.726    500.744    499.726
 46.070    517.000    507.161      9.839    499.664    506.100    499.664    500.725    499.664
 46.170    510.000    507.390      2.610    499.605    506.282    499.605    500.712    499.605
 46.270    499.000    507.653     -8.653    499.546    506.495    499.546    500.704    499.546
 46.370    534.651    507.958     26.693    499.489    506.745    499.489    500.702    499.489
 46.470    484.961    508.312    -23.350    499.434    507.039    499.434    500.706    499.434
 46.570    550.592    508.724     41.867    499.380    507.386    499.380    500.717    499.380
 46.670    494.995    509.212    -14.217    499.327    507.802    499.327    500.736    499.327
 46.770    493.000    509.801    -16.801    499.276    508.313    499.276    500.763    499.276
 46.870    516.000    510.546      5.454    499.227    508.971    499.227    500.800    499.227
 46.970    473.000    511.570    -38.570    499.179    509.898    499.179    500.848    499.179
 47.070    520.446    513.135      7.311    499.132    511.355    499.132    500.908    499.132
 47.170    496.000    515.752    -19.752    499.087    513.851    499.087    500.982    499.087
 47.270    478.537    520.241    -41.704    499.043    518.203    499.043    501.072    499.043
 47.370    541.000    527.645     13.355    499.000    525.451    499.000    501.181    499.000
 47.470    548.084    538.799      9.285    498.959    536.426    498.959    501.310    498.959
 47.570    525.244    553.617    -28.373    498.920    551.038    498.920    501.466    498.920
 47.670    573.000    570.319      2.681    498.882    567.505    498.882    501.651    498.882
 47.770    577.000    584.988     -7.988    498.845    581.907    498.845    501.872    498.845
 47.870    576.000    592.385    -16.385    498.810    589.000    498.810    502.137    498.810
 47.970    605.000    589.404     15.596    498.776    585.671    498.776    502.455    498.776
 48.070    580.000    578.153      1.847    498.743    574.012    498.743    502.841    498.743
 48.170    560.000    563.769     -3.769    498.712    559.134    498.712    503.316    498.712
 48.270    526.229    550.660    -24.431    498.682    545.410    498.682    503.911    498.682
 48.370    526.000    541.205    -15.205    498.654    535.163    498.654    504.682    498.654
 48.470    555.000    535.988     19.012    498.627    528.880    498.627    505.727    498.627
 48.570    519.822    534.555    -14.733    498.601    525.944    498.601    507.206    498.601
 48.670    506.000    536.207    -30.207    498.577    525.395    498.577    509.384    498.577
 48.770    564.000    540.528     23.472    498.554    526.434    498.554    512.644    498.554
 48.870    531.000    547.558    -16.558    498.533    528.599    498.533    517.487    498.533
 48.970    553.000    557.710     -4.710    498.513    531.755    498.513    524.463    498.513
 49.070    592.725    571.607     21.118    498.494    536.077    498.494    534.017    498.494
 49.170    572.569    590.022    -17.453    498.476    542.223    498.476    546.267    498.476
 49.270    645.895    614.214     31.681    498.460    551.977    498.460    560.686    498.460
 49.370    651.000    647.092      3.908    498.446    569.794    498.446    575.726    498.446
 49.470    734.744    695.616     39.128    498.432    605.521    498.432    588.499    498.432
 49.570    800.921    774.383     26.538    498.420    677.478    498.420    595.276    498.420
 49.670    937.554    908.057     29.497    498.409    812.842    498.409    593.541    498.409
 49.770   1147.706   1126.020     21.686    498.400   1040.276    498.400    584.016    498.400
 49.870   1377.937   1443.654    -65.716    498.392   1371.891    498.392    569.985    498.392
 49.970   1852.000   1836.367     15.633    498.385   1779.609    498.385    554.955    498.385
 50.070   2279.000   2223.044     55.956    498.379   2179.996    498.379    541.272    498.379
 50.170   2502.000   2478.521     23.479    498.375   2446.785    498.375    530.046    498.375
 50.270   2485.000   2493.745     -8.745    498.372   2470.653    498.372    521.520    498.372
 50.370   2294.000   2257.786     36.214    498.370   2240.883    498.370    515.422    498.370
 50.470   1884.000   1868.782     15.218    498.370   1856.093    498.370    511.243    498.370
 50.570   1406.260   1456.755    -50.495    498.371   1446.851    498.371    508.445    498.371
 50.670   1133.050   1114.598     18.452    498.373   1106.535    498.373    506.567    498.373
 50.770    814.000    878.741    -64.741    498.376    871.935    498.376    505.274    498.376
 50.870    714.000    740.855    -26.855    498.381    734.952    498.381    504.346    498.381
 50.970    698.000    670.998     27.002    498.386    665.783    498.386    503.649    498.386
 51.070    665.690    637.599     28.091    498.393    632.928    498.393    503.104    498.393
 51.170    640.000    618.062     21.938    498.402    613.832    498.402    502.666    498.402
 51.270    610.000    601.279      8.721    498.411    597.412    498.411    502.308    498.411
 51.370    613.000    584.708     28.292    498.422    581.141    498.422    502.012    498.422
 51.470    633.000    569.442     63.558    498.434    566.127    498.434    501.765    498.434
 51.570    539.946    556.897    -16.951    498.447    553.795    498.447    501.560    498.447
 51.670    553.000    547.690      5.310    498.461    544.771    498.461    501.389    498.461
 51.770    581.000    541.621     39.379    498.477    538.857    498.477    501.246    498.477
 51.870    543.000    538.032      4.968    498.493    535.402    498.493    501.127    498.493
 51.970    534.000    536.199     -2.199    498.511    533.684    498.511    501.029    498.511
 52.070    510.037    535.580    -25.544    498.530    533.163    498.530    500.949    498.530
 52.170    556.618    535.887     20.730    498.550    533.554    498.550    500.885    498.550
 52.270    520.686    537.076    -16.390    498.572    534.813    498.572    500.835    498.572
 52.370    554.220    539.366     14.854    498.594    537.164    498.594    500.798    498.594
 52.470    509.637    543.397    -33.760    498.618    541.244    498.618    500.771    498.618
 52.570    579.492    550.577     28.914    498.643    548.466    498.643    500.755    498.643
 52.670    547.414    563.632    -16.218    498.669    561.553    498.669    500.747    498.669
 52.770    547.709    587.122    -39.413    498.696    585.068    498.696    500.748    498.696
 52.870    619.469    627.415     -7.946    498.724    625.378    498.724    500.757    498.724
 52.970    743.000    691.371     51.629    498.753    689.345    498.753    500.774    498.753
 53.070    855.000    783.304     71.696    498.783    781.284    498.783    500.797    498.783
 53.170    941.000    900.708     40.292    498.815    898.688    498.815    500.827    498.815
 53.270    986.132   1030.163    -44.031    498.847   1028.143    498.847    500.864    498.847
 53.370   1173.000   1145.438     27.562    498.881   1143.417    498.881    500.906    498.881
 53.470   1188.796   1212.171    -23.375    498.915   1210.148    498.915    500.955    498.915
 53.570   1258.605   1205.124     53.481    498.951   1203.095    498.951    501.010    498.951
 53.670   1087.000   1127.479    -40.479    498.988   1125.434    498.988    501.070    498.988
 53.770    959.992   1007.863    -47.872    499.026   1005.790    499.026    501.136    499.026
 53.870    830.270    879.790    -49.520    499.065    877.678    499.065    501.209    499.065
 53.970    746.000    767.125    -21.125    499.104    764.967    499.104    501.287    499.104
 54.070    722.862    681.043     41.819    499.145    678.834    499.145    501.372    499.145
 54.170    647.000    622.473     24.527    499.187    620.209    499.187    501.463    499.187
 54.270    551.876    586.362    -34.486    499.230    584.039    499.230    501.560    499.230
 54.370    599.072    565.794     33.279    499.274    563.407    499.274    501.665    499.274
 54.470    538.679    554.698    -16.019    499.319    552.244    499.319    501.776    499.319
 54.570    571.098    548.878     22.220    499.365    546.350    499.365    501.895    499.365
 54.670    555.000    545.890      9.110    499.412    543.281    499.412    502.022    499.412
 54.770    543.000    544.487     -1.487    499.459    541.790    499.459    502.157    499.459
 54.870    527.000    544.099    -17.099    499.508    541.306    499.508    502.301    499.508
 54.970    507.566    544.485    -36.919    499.558    541.589    499.558    502.455    499.558
 55.070    530.980    545.560    -14.580    499.609    542.550    499.609    502.619    499.609
 55.170    559.000    547.314     11.686    499.660    544.180    499.660    502.795    499.660
 55.270    592.000    549.789     42.211    499.713    546.520    499.713    502.983    499.713
 55.370    536.764    553.078    -16.314    499.766    549.661    499.766    503.184    499.766
 55.470    576.000    557.352     18.648    499.821    553.774    499.821    503.399    499.821
 55.570    562.000    562.939     -0.939    499.876    559.184    499.876    503.631    499.876
 55.670    616.000    570.515     45.485    499.932    566.565    499.932    503.881    499.932
 55.770    593.164    581.535     11.629    499.989    577.372    499.989    504.150    499.989
 55.870    597.000    599.065     -2.065    500.047    594.667    500.047    504.442    500.047
 55.970    632.010    629.072      2.938    500.106    624.413    500.106    504.759    500.106
 56.070    635.899    681.920    -46.021    500.165    676.969    500.165    505.103    500.165
 56.170    771.000    773.101     -2.101    500.226    767.823    500.226    505.479    500.226
 56.270    845.000    921.580    -76.580    500.287    915.938    500.287    505.891    500.287
 56.370   1121.000   1144.177    -23.177    500.349   1138.127    500.349    506.344    500.349
 56.470   1397.000   1445.964    -48.964    500.412   1439.465    500.412    506.845    500.412
 56.570   1802.524   1809.320     -6.796    500.476   1802.332    500.476    507.400    500.476
 56.670   2229.185   2185.916     43.268    500.541   2178.398    500.541    508.018    500.541
 56.770   2427.507   2496.797    -69.290    500.606   2488.706    500.606    508.710    500.606
 56.870   2504.000   2651.432   -147.432    500.672   2642.708    500.672    509.490    500.672
 56.970   2563.908   2595.392    -31.484    500.739   2585.936    500.739    510.374    500.739
 57.070   2430.723   2350.911     79.811    500.807   2340.569    500.807    511.382    500.807
 57.170   1974.022   1998.150    -24.128    500.875   1986.728    500.875    512.542    500.875
 57.270   1707.000   1624.734     82.266    500.945   1612.006    500.945    513.892    500.945
 57.370   1316.000   1294.075     21.925    501.015   1279.776    501.015    515.489    501.015
 57.470   1043.000   1037.812      5.188    501.085   1021.602    501.085    517.422    501.085
 57.570    847.000    860.665    -13.665    501.157    842.065    501.157    519.839    501.157
 57.670    757.839    750.675      7.165    501.229    728.970    501.229    522.983    501.229
 57.770    741.947    690.070     51.877    501.302    664.144    501.302    527.254    501.302
 57.870    686.000    663.135     22.865    501.376    631.249    501.376    533.272    501.376
 57.970    676.000    659.871     16.129    501.450    619.388    501.450    541.932    501.450
 58.070    658.137    676.310    -18.174    501.525    623.411    501.525    554.413    501.525
 58.170    719.000    712.940      6.060    501.601    642.426    501.601    572.092    501.601
 58.270    823.000    772.355     50.645    501.677    677.672    501.677    596.326    501.677
 58.370    833.951    856.719    -22.768    501.754    730.340    501.754    628.086    501.754
 58.470   1017.763    965.381     52.381    501.832    799.671    501.832    667.485    501.832
 58.570   1081.000   1092.936    -11.936    501.910    881.566    501.910    713.216    501.910
 58.670   1204.000   1228.330    -24.330    501.989    968.332    501.989    761.924    501.989
 58.770   1355.000   1355.936     -0.936    502.068   1050.399    502.068    807.551    502.068
 58.870   1488.779   1458.750     30.029    502.148   1119.478    502.148    841.381    502.148
 58.970   1538.000   1521.390     16.610    502.229   1169.126    502.229    854.474    502.229
 59.070   1599.000   1533.289     65.711    502.310   1192.882    502.310    842.719    502.310
 59.170   1533.000   1493.847     39.153    502.392   1186.360    502.392    809.898    502.392
 59.270   1435.564   1415.390     20.174    502.475   1153.058    502.475    764.830    502.475
 59.370   1378.490   1318.853     59.637    502.558   1105.121    502.558    716.303    502.558
 59.470   1212.407   1225.554    -13.147    502.641   1057.674    502.641    670.512    502.641
 59.570   1166.000   1153.123     12.877    502.726   1024.872    502.726    630.933    502.726
 59.670   1169.000   1116.244     52.756    502.810   1020.006    502.810    598.961    502.810
 59.770   1151.103   1126.000     25.103    502.895   1054.214    502.895    574.543    502.895
 59.870   1181.401   1185.301     -3.900    502.981   1131.347    502.981    556.740    502.981
 59.970   1237.143   1284.314    -47.172    503.067   1242.927    503.067    544.207    503.067
 60.070   1477.000   1399.135     77.865    503.154   1366.440    503.154    535.562    503.154
 60.170   1517.000   1494.409     22.591    503.241   1467.736    503.241    529.614    503.241
 60.270   1557.000   1532.628     24.372    503.329   1510.223    503.329    525.455    503.329
 60.370   1464.000   1491.903    -27.903    503.417   1472.639    503.417    522.456    503.417
 60.470   1384.000   1379.335      4.665    503.506   1362.473    503.506    520.208    503.506
 60.570   1232.000   1223.970      8.030    503.595   1208.999    503.595    518.466    503.595
 60.670   1091.000   1059.146     31.854    503.684   1045.692    503.684    517.085    503.684
 60.770    895.000    910.663    -15.663    503.774    898.430    503.774    515.981    503.774
 60.870    806.000    792.922     13.078    503.865    781.666    503.865    515.110    503.865
 60.970    745.788    709.859     35.929    503.955    699.362    503.955    514.446    503.955
 61.070    622.000    658.496    -36.496    504.047    648.557    504.047    513.978    504.047
 61.170    604.478    633.346    -28.868    504.138    623.774    504.138    513.697    504.138
 61.270    666.000    630.092     35.908    504.230    620.705    504.230    513.596    504.230
 61.370    675.000    647.597     27.403    504.322    638.227    504.322    513.658    504.322
 61.470    688.000    688.053     -0.053    504.415    678.563    504.415    513.854    504.415
 61.570    725.000    755.444    -30.444    504.508    745.745    504.508    514.132    504.508
 61.670    814.000    852.649    -38.649    504.601    842.732    504.601    514.413    504.601
 61.770    975.931    977.892     -1.962    504.695    967.856    504.695    514.594    504.695
 61.870   1088.000   1121.588    -33.588    504.789   1111.643    504.789    514.566    504.789
 61.970   1234.000   1264.727    -30.727    504.884   1255.150    504.884    514.274    504.884
 62.070   1391.174   1380.017     11.157    504.978   1371.068    504.978    513.741    504.978
 62.170   1384.359   1438.338    -53.979    505.073   1430.194    505.073    513.054    505.073
 62.270   1399.000   1421.978    -22.978    505.169   1414.712    505.169    512.314    505.169
 62.370   1335.000   1335.796     -0.796    505.264   1329.387    505.264    511.599    505.264
 62.470   1206.667   1203.720      2.947    505.360   1198.085    505.360    510.960    505.360
 62.570   1071.000   1055.196     15.804    505.456   1050.223    505.456    510.420    505.456
 62.670    891.467    914.544    -23.077    505.552    910.116    505.552    509.987    505.552
 62.770    847.246    796.841     50.405    505.649    792.849    505.649    509.653    505.649
 62.870    663.000    707.917    -44.917    505.746    704.268    505.746    509.405    505.746
 62.970    656.000    646.522      9.478    505.843    643.144    505.843    509.227    505.843
 63.070    625.000    607.424     17.576    505.940    604.263    505.940    509.103    505.940
 63.170    622.000    584.295     37.705    506.037    581.311    506.037    509.020    506.037
 63.270    554.431    571.633    -17.202    506.135    568.798    506.135    508.965    506.135
 63.370    566.181    565.611      0.570    506.232    562.905    506.232    508.933    506.232
 63.470    557.000    564.172     -7.172    506.330    561.578    506.330    508.916    506.330
 63.570    545.597    566.805    -21.208    506.428    564.311    506.428    508.912    506.428
 63.670    553.000    574.264    -21.264    506.527    571.858    506.527    508.918    506.527
 63.770    634.000    588.299     45.701    506.625    585.971    506.625    508.933    506.625
 63.870    640.555    611.288     29.267    506.724    609.026    506.724    508.955    506.724
 63.970    680.658    645.638     35.021    506.822    643.433    506.822    508.983    506.822
 64.070    708.000    692.888     15.112    506.921    690.730    506.921    509.017    506.921
 64.170    767.000    752.626     14.374    507.020    750.507    507.020    509.056    507.020
 64.270    784.695    821.469    -36.774    507.119    819.384    507.119    509.100    507.119
 64.370    955.000    892.402     62.598    507.218    890.350    507.218    509.148    507.218
 64.470   1010.000    954.997     55.003    507.317    952.983    507.317    509.200    507.317
 64.570    946.279    997.612    -51.334    507.416    995.643    507.416    509.256    507.416
 64.670   1016.470   1011.945      4.525    507.515   1010.030    507.515    509.315    507.515
 64.770    950.398    996.767    -46.369    507.615    994.912    507.615    509.377    507.615
 64.870    967.161    957.444      9.716    507.714    955.651    507.714    509.443    507.714
 64.970    935.000    903.026     31.974    507.813    901.292    507.813    509.511    507.813
 65.070    815.912    843.249    -27.337    507.913    841.569    507.913    509.581    507.913
 65.170    812.000    785.908     26.092    508.012    784.272    508.012    509.654    508.012
 65.270    686.451    735.390    -48.939    508.111    733.791    508.111    509.729    508.111
 65.370    665.000    692.976    -27.976    508.210    691.404    508.210    509.807    508.210
 65.470    625.000    658.251    -33.251    508.310    656.699    508.310    509.886    508.310
 65.570    637.000    630.379      6.621    508.409    628.843    508.409    509.968    508.409
 65.670    611.000    608.537      2.463    508.508    607.013    508.508    510.050    508.508
 65.770    567.519    591.908    -24.390    508.607    590.393    508.607    510.135    508.607
 65.870    576.000    579.693     -3.693    508.706    578.185    508.706    510.222    508.706
 65.970    600.833    571.156     29.676    508.805    569.655    508.805    510.310    508.805
 66.070    597.870    565.636     32.234    508.904    564.140    508.904    510.401    508.904
 66.170    578.587    562.551     16.036    509.003    561.061    509.003    510.493    509.003
 66.270    527.000    561.415    -34.415    509.102    559.930    509.102    510.587    509.102
 66.370    563.000    561.867      1.133    509.201    560.385    509.201    510.682    509.201
 66.470    553.226    563.713    -10.488    509.299    562.234    509.299    510.779    509.299
 66.570    584.000    566.988     17.012    509.397    565.509    509.397    510.877    509.397
 66.670    566.294    572.063     -5.769    509.496    570.582    509.496    510.977    509.496
 66.770    538.093    579.844    -41.750    509.594    578.359    509.594    511.079    509.594
 66.870    558.000    592.106    -34.106    509.692    590.615    509.692    511.182    509.692
 66.970    587.000    611.957    -24.957    509.789    610.458    509.789    511.287    509.789
 67.070    607.000    644.334    -37.334    509.887    642.823    509.887    511.393    509.887
 67.170    667.000    696.298    -29.298    509.984    694.772    509.984    511.501    509.984
 67.270    764.000    776.760    -12.760    510.081    775.216    510.081    511.611    510.081
 67.370    903.000    895.204      7.796    510.178    893.640    510.178    511.723    510.178
 67.470   1111.459   1059.201     52.258    510.275   1057.618    510.275    511.836    510.275
 67.570   1280.975   1270.937     10.038    510.372   1269.340    510.372    511.951    510.372
 67.670   1468.000   1523.529    -55.529    510.468   1521.926    510.468    512.069    510.468
 67.770   1864.826   1798.199     66.627    510.564   1796.602    510.564    512.189    510.564
 67.870   2060.000   2063.346     -3.346    510.660   2061.768    510.660    512.311    510.660
 67.970   2268.000   2276.958     -8.958    510.755   2275.414    510.755    512.435    510.755
 68.070   2331.788   2395.430    -63.642    510.850   2393.924    510.850    512.562    510.850
 68.170   2389.988   2390.133     -0.145    510.945   2388.655    510.945    512.692    510.945
 68.270   2338.000   2262.530     75.470    511.040   2261.053    511.040    512.825    511.040
 68.370   2046.000   2043.253      2.747    511.134   2041.742    511.134    512.961    511.134
 68.470   1799.000   1776.258     22.742    511.228   1774.681    511.228    513.100    511.228
 68.570   1510.000   1502.856      7.144    511.322   1501.189    511.322    513.243    511.322
 68.670   1383.000   1253.588    129.412    511.415   1251.818    511.415    513.390    511.415
 68.770   1014.000   1046.160    -32.160    511.508   1044.282    511.508    513.542    511.508
 68.870    942.400    886.566     55.834    511.601    884.581    511.601    513.699    511.601
 68.970    725.678    772.027    -46.349    511.693    769.936    511.693    513.860    511.693
 69.070    644.500    694.693    -50.193    511.785    692.501    511.785    514.028    511.785
 69.170    661.000    645.057     15.943    511.877    642.764    511.877    514.202    511.877
 69.270    584.027    614.333    -30.307    511.968    611.939    511.968    514.384    511.968
 69.370    617.000    595.630     21.370    512.059    593.129    512.059    514.573    512.059
 69.470    613.542    584.163     29.379    512.149    581.550    512.149    514.771    512.149
 69.570    644.000    576.925     67.075    512.239    574.191    512.239    514.980    512.239
 69.670    603.565    572.173     31.392    512.329    569.308    512.329    515.199    512.329
 69.770    561.248    568.964     -7.716    512.418    565.954    512.418    515.431    512.418
 69.870    580.000    566.810     13.190    512.506    563.642    512.506    515.677    512.506
 69.970    559.000    565.469     -6.469    512.595    562.126    512.595    515.939    512.595
 70.070    562.000    564.828     -2.828    512.682    561.292    512.682    516.219    512.682
 70.170    582.000    564.853     17.147    512.770    561.102    512.770    516.520    512.770
 70.270    613.000    565.572     47.428    512.856    561.583    512.856    516.844    512.856
 70.370    527.000    567.101    -40.101    512.943    562.845    512.943    517.196    512.943
 70.470    601.000    569.689     31.311    513.029    565.134    513.029    517.580    513.029
 70.570    562.000    573.830    -11.830    513.114    568.937    513.114    518.001    513.114
 70.670    552.000    580.417    -28.417    513.199    575.142    513.199    518.466    513.199
 70.770    564.000    590.972    -26.972    513.283    585.260    513.283    518.983    513.283
 70.870    585.000    607.906    -22.906    513.367    601.689    513.367    519.565    513.367
 70.970    649.516    634.726     14.790    513.450    627.919    513.450    520.229    513.450
 71.070    614.000    676.075    -62.075    513.532    668.563    513.532    521.002    513.532
 71.170    759.000    737.371     21.629    513.615    728.995    513.615    521.929    513.615
 71.270    820.756    823.938     -3.182    513.696    814.469    513.696    523.079    513.696
 71.370    883.000    939.576    -56.576    513.777    928.671    513.777    524.566    513.777
 71.470   1129.000   1084.755     44.245    513.857   1071.898    513.857    526.566    513.857
 71.570   1288.043   1254.847     33.196    513.937   1239.261    513.937    529.345    513.937
 71.670   1409.292   1438.852    -29.560    514.016   1419.394    514.016    533.271    514.016
 71.770   1591.000   1619.066    -28.066    514.095   1594.111    514.095    538.834    514.095
 71.870   1692.000   1772.255    -80.255    514.173   1739.594    514.173    546.620    514.173
 71.970   1890.000   1873.635     16.365    514.250   1830.427    514.250    557.265    514.250
 72.070   1960.000   1904.692     55.308    514.327   1847.513    514.327    571.347    514.327
 72.170   1934.000   1861.789     72.211    514.403   1786.823    514.403    589.250    514.403
 72.270   1764.248   1758.264      5.984    514.478   1661.673    514.478    610.988    514.478
 72.370   1650.316   1617.545     32.772    514.553   1496.010    514.553    636.035    514.553
 72.470   1540.000   1463.751     76.249    514.627   1315.177    514.627    663.170    514.627
 72.570   1263.841   1315.755    -51.914    514.700   1140.084    514.700    690.353    514.700
 72.670   1200.761   1184.978     15.783    514.773    985.044    514.773    714.695    514.773
 72.770   1035.063   1075.473    -40.410    514.845    857.595    514.845    732.712    514.845
 72.870    946.628    985.696    -39.068    514.916    759.457    514.916    741.145    514.916
 72.970    919.374    911.440      7.934    514.986    688.165    514.986    738.251    514.986
 73.070    765.000    848.581    -83.581    515.056    638.944    515.056    724.684    515.056
 73.170    732.000    794.363    -62.363    515.125    606.346    515.125    703.133    515.125
 73.270    677.000    747.300    -70.300    515.194    585.390    515.194    677.096    515.194
 73.370    659.000    706.667    -47.667    515.261    572.129    515.261    649.794    515.261
 73.470    642.340    672.125    -29.785    515.328    563.767    515.328    623.683    515.328
 73.570    619.013    643.488    -24.476    515.394    558.508    515.394    600.373    515.394
 73.670    600.000    620.554    -20.554    515.460    555.301    515.460    580.714    515.460
 73.770    615.000    602.986     12.014    515.524    553.581    515.524    564.933    515.524
 73.870    586.000    590.268     -4.268    515.588    553.057    515.588    552.807    515.588
 73.970    557.000    581.726    -24.726    515.651    553.556    515.651    543.833    515.651
 74.070    613.899    576.576     37.323    515.713    554.916    515.713    537.391    515.713
 74.170    591.000    573.984     17.016    515.774    556.921    515.774    532.861    515.774
 74.270    586.000    573.099     12.901    515.835    559.259    515.835    529.705    515.835
 74.370    636.000    573.085     62.915    515.895    561.521    515.895    527.493    515.895
 74.470    632.000    573.147     58.853    515.953    563.227    515.953    525.913    515.953
 74.570    598.566    572.610     25.956    516.012    563.916    516.012    524.748    516.012
 74.670    658.000    571.043     86.957    516.069    563.299    516.069    523.856    516.069
 74.770    521.710    568.369    -46.659    516.125    561.388    516.125    523.147    516.125
 74.870    629.000    564.847     64.153    516.181    558.497    516.181    522.567    516.181
 74.970    517.552    560.932    -43.380    516.235    555.119    516.235    522.080    516.235
 75.070    611.000    557.142     53.858    516.289    551.790    516.289    521.666    516.289
 75.170    513.403    553.975    -40.572    516.342    549.027    516.342    521.309    516.342
 75.270    545.000    551.905     -6.905    516.394    547.312    516.394    520.999    516.394
 75.370    568.000    551.397     16.603    516.445    547.119    516.445    520.730    516.445
 75.470    558.000    552.930      5.070    516.495    548.933    516.495    520.493    516.495
 75.570    586.000    557.013     28.987    516.544    553.266    516.544    520.286    516.544
 75.670    578.000    564.150     13.850    516.593    560.628    516.593    520.104    516.593
 75.770    603.000    574.769     28.231    516.640    571.449    516.640    519.943    516.640
 75.870    552.271    589.084    -36.814    516.686    585.944    516.686    519.802    516.686
 75.970    572.000    606.935    -34.935    516.732    603.958    516.732    519.676    516.732
 76.070    616.000    627.630    -11.630    516.777    624.800    516.777    519.565    516.777
 76.170    679.854    649.842     30.012    516.820    647.145    516.820    519.467    516.820
 76.270    649.000    671.576    -22.576    516.863    669.001    516.863    519.379    516.863
 76.370    689.000    690.269     -1.269    516.905    687.809    516.905    519.302    516.905
 76.470    653.522    703.110    -49.589    516.945    700.757    516.945    519.233    516.945
 76.570    721.000    707.740     13.260    516.985    705.490    516.985    519.172    516.985
 76.670    710.000    703.172      6.828    517.024    701.021    517.024    519.117    517.024
 76.770    633.000    690.274    -57.274    517.062    688.218    517.062    519.069    517.062
 76.870    622.945    671.334    -48.388    517.098    669.366    517.098    519.026    517.098
 76.970    671.000    649.141     21.859    517.134    647.257    517.134    518.988    517.134
 77.070    656.251    626.268     29.983    517.169    624.460    517.169    518.954    517.169
 77.170    576.000    604.718    -28.718    517.203    602.981    517.203    518.924    517.203
 77.270    574.000    585.822    -11.822    517.235    584.149    517.235    518.897    517.235
 77.370    544.000    570.246    -26.246    517.267    568.633    517.267    518.873    517.267
 77.470    518.784    558.100    -39.316    517.298    556.541    517.298    518.852    517.298
 77.570    554.000    549.090      4.910    517.327    547.581    517.327    518.833    517.327
 77.670    518.171    542.694    -24.522    517.356    541.231    517.356    518.816    517.356
 77.770    578.241    538.316     39.925    517.383    536.897    517.383    518.801    517.383
 77.870    521.000    535.401    -14.401    517.409    534.021    517.409    518.788    517.409
 77.970    576.000    533.486     42.514    517.435    532.144    517.435    518.776    517.435
 78.070    521.000    532.228    -11.228    517.459    530.921    517.459    518.766    517.459
 78.170    491.883    531.390    -39.508    517.482    530.115    517.482    518.756    517.482
 78.270    503.000    530.820    -27.820    517.504    529.576    517.504    518.748    517.504
 78.370    545.646    530.424     15.222    517.525    529.209    517.525    518.740    517.525
 78.470    513.000    530.137    -17.137    517.545    528.948    517.545    518.734    517.545
 78.570    524.000    529.947     -5.947    517.564    528.782    517.564    518.728    517.564
 78.670    529.546    529.885     -0.338    517.582    528.743    517.582    518.723    517.582
 78.770    535.000    529.936      5.064    517.598    528.815    517.598    518.718    517.598
 78.870    534.385    530.116      4.270    517.614    529.013    517.614    518.715    517.614
 78.970    522.228    530.450     -8.222    517.628    529.364    517.628    518.713    517.628
 79.070    496.000    530.969    -34.969    517.641    529.896    517.641    518.713    517.641
 79.170    524.000    531.707     -7.707    517.653    530.644    517.653    518.714    517.653
 79.270    518.056    532.694    -14.637    517.664    531.637    517.664    518.719    517.664
 79.370    506.000    533.959    -27.959    517.674    532.903    517.674    518.727    517.674
 79.470    571.099    535.527     35.572    517.683    534.467    517.683    518.739    517.683
 79.570    545.000    537.430      7.570    517.690    536.357    517.690    518.758    517.690
 79.670    570.555    539.711     30.844    517.696    538.619    517.696    518.783    517.696
 79.770    505.000    542.448    -37.448    517.702    541.328    517.702    518.816    517.702
 79.870    538.000    545.772     -7.772    517.705    544.615    517.705    518.856    517.705
 79.970    541.000    549.895     -8.895    517.708    548.693    517.708    518.905    517.708
 80.070    539.000    555.137    -16.137    517.710    553.882    517.710    518.960    517.710
 80.170    578.074    561.924     16.149    517.710    560.611    517.710    519.020    517.710
 80.270    534.323    570.744    -36.420    517.710    569.371    517.710    519.081    517.710
 80.370    572.399    582.044     -9.645    517.708    580.614    517.708    519.139    517.708
 80.470    574.909    596.115    -21.206    517.704    594.636    517.704    519.187    517.704
 80.570    584.839    612.978    -28.140    517.700    611.466    517.700    519.221    517.700
 80.670    620.675    632.305    -11.630    517.694    630.781    517.694    519.231    517.694
 80.770    621.000    653.367    -32.367    517.688    651.857    517.688    519.216    517.688
 80.870    695.000    675.067     19.933    517.680    673.596    517.680    519.175    517.680
 80.970    621.000    696.052    -75.052    517.670    694.641    517.670    519.112    517.670
 81.070    671.765    714.915    -43.150    517.660    713.579    517.660    519.033    517.660
 81.170    718.000    730.386    -12.386    517.648    729.135    517.648    518.944    517.648
 81.270    746.000    741.446      4.554    517.635    740.280    517.635    518.851    517.635
 81.370    751.000    747.400      3.600    517.621    746.317    517.621    518.760    517.621
 81.470    768.000    747.960     20.040    517.606    746.953    517.606    518.673    517.606
 81.570    738.305    743.253     -4.948    517.589    742.314    517.589    518.592    517.589
 81.670    762.000    733.778     28.222    517.571    732.896    517.571    518.519    517.571
 81.770    708.044    720.369    -12.324    517.552    719.534    517.552    518.453    517.552
 81.870    707.000    704.173      2.827    517.532    703.376    517.532    518.394    517.532
 81.970    756.000    686.488     69.512    517.510    685.721    517.510    518.341    517.510
 82.070    623.000    668.493    -45.493    517.487    667.747    517.487    518.293    517.487
 82.170    686.711    651.031     35.680    517.463    650.302    517.463    518.249    517.463
 82.270    624.660    634.567     -9.907    517.438    633.849    517.438    518.208    517.438
 82.370    615.000    619.289     -4.289    517.411    618.579    517.411    518.169    517.411
 82.470    590.988    605.285    -14.297    517.383    604.579    517.383    518.132    517.383
 82.570    603.000    592.662     10.338    517.354    591.959    517.354    518.094    517.354
 82.670    584.000    581.579      2.421    517.323    580.876    517.323    518.057    517.323
 82.770    565.000    572.201     -7.201    517.292    571.497    517.292    518.020    517.292
 82.870    536.494    564.675    -28.181    517.258    563.969    517.258    517.982    517.258
 82.970    590.634    559.107     31.528    517.224    558.398    517.224    517.944    517.224
 83.070    516.394    555.551    -39.157    517.188    554.838    517.188    517.905    517.188
 83.170    573.000    553.995     19.005    517.151    553.278    517.151    517.865    517.151
 83.270    589.932    554.340     35.591    517.113    553.618    517.113    517.824    517.113
 83.370    524.000    556.384    -32.384    517.074    555.657    517.074    517.783    517.074
 83.470    565.000    559.805      5.195    517.033    559.073    517.033    517.740    517.033
 83.570    546.000    564.168    -18.168    516.991    563.431    516.991    517.697    516.991
 83.670    574.000    568.929      5.071    516.947    568.187    516.947    517.652    516.947
 83.770    534.582    573.466    -38.884    516.902    572.720    516.902    517.607    516.902
 83.870    583.000    577.124      5.876    516.856    576.376    516.856    517.560    516.856
 83.970    624.832    579.304     45.529    516.809    578.554    516.809    517.513    516.809
 84.070    602.334    579.581     22.753    516.760    578.832    516.760    517.464    516.760
 84.170    576.267    577.830     -1.563    516.710    577.083    516.710    517.414    516.710
 84.270    575.000    574.249      0.751    516.659    573.506    516.659    517.364    516.659
 84.370    598.154    569.282     28.872    516.606    568.543    516.606    517.312    516.606
 84.470    564.000    563.479      0.521    516.552    562.743    516.552    517.259    516.552
 84.570    516.000    557.377    -41.377    516.497    556.645    516.497    517.205    516.497
 84.670    577.000    551.434     25.566    516.441    550.705    516.441    517.151    516.441
 84.770    555.090    545.995      9.095    516.383    545.268    516.383    517.095    516.383
 84.870    523.000    541.281    -18.281    516.323    540.555    516.323    517.038    516.323
 84.970    502.000    537.396    -35.396    516.263    536.670    516.263    516.980    516.263
 85.070    555.000    534.345     20.655    516.201    533.618    516.201    516.920    516.201
 85.170    526.000    532.066     -6.066    516.138    531.338    516.138    516.860    516.138
 85.270    548.000    530.456     17.544    516.073    529.726    516.073    516.799    516.073
 85.370    518.000    529.403    -11.403    516.007    528.669    516.007    516.737    516.007
 85.470    529.000    528.803      0.197    515.940    528.066    515.940    516.673    515.940
 85.570    499.522    528.580    -29.058    515.872    527.838    515.872    516.609    515.872
 85.670    526.000    528.691     -2.691    515.802    527.945    515.802    516.543    515.802
 85.770    540.000    529.135     10.865    515.731    528.383    515.731    516.477    515.731
 85.870    502.000    529.953    -27.953    515.658    529.195    515.658    516.409    515.658
 85.970    537.560    531.230      6.330    515.584    530.464    515.584    516.340    515.584
 86.070    525.647    533.092     -7.445    515.509    532.318    515.509    516.271    515.509
 86.170    547.000    535.702     11.298    515.433    534.919    515.433    516.200    515.433
 86.270    528.000    539.247    -11.247    515.355    538.453    515.355    516.129    515.355
 86.370    576.314    543.919     32.395    515.276    543.113    515.276    516.056    515.276
 86.470    528.772    549.885    -21.113    515.195    549.064    515.195    515.982    515.195
 86.570    517.649    557.250    -39.601    515.113    556.413    515.113    515.908    515.113
 86.670    567.000    566.020      0.980    515.030    565.165    515.030    515.832    515.030
 86.770    610.000    576.056     33.944    514.946    575.181    514.946    515.756    514.946
 86.870    633.000    587.046     45.954    514.860    586.151    514.860    515.678    514.860
 86.970    593.876    598.488     -4.612    514.773    597.572    514.773    515.600    514.773
 87.070    569.877    609.680    -39.803    514.684    608.744    514.684    515.521    514.684
 87.170    651.000    619.793     31.207    514.594    618.839    514.594    515.441    514.594
 87.270    627.000    627.906     -0.906    514.503    626.936    514.503    515.360    514.503
 87.370    647.463    633.149     14.313    514.411    632.167    514.411    515.278    514.411
 87.470    619.788    634.925    -15.137    514.317    633.934    514.317    515.195    514.317
 87.570    676.000    633.077     42.923    514.222    632.081    514.222    515.112    514.222
 87.670    639.000    627.940     11.060    514.126    626.942    514.126    515.028    514.126
 87.770    613.000    620.228     -7.228    514.028    619.229    514.028    514.943    514.028
 87.870    615.484    610.862      4.622    513.929    609.863    513.929    514.858    513.929
 87.970    643.988    600.811     43.177    513.829    599.811    513.829    514.772    513.829
 88.070    582.000    590.991     -8.991    513.727    589.989    513.727    514.685    513.727
 88.170    567.427    582.193    -14.766    513.624    581.186    513.624    514.598    513.624
 88.270    564.000    575.037    -11.037    513.520    574.025    513.520    514.511    513.520
 88.370    596.157    569.952     26.205    513.414    568.932    513.414    514.423    513.414
 88.470    575.000    567.165      7.835    513.307    566.134    513.307    514.335    513.307
 88.570    548.916    566.705    -17.790    513.199    565.664    513.199    514.246    513.199
 88.670    601.707    568.422     33.285    513.089    567.368    513.089    514.156    513.089
 88.770    612.112    571.999     40.113    512.979    570.932    512.979    514.066    512.979
 88.870    550.611    576.980    -26.368    512.867    575.897    512.867    513.977    512.867
 88.970    585.000    582.787      2.213    512.753    581.686    512.753    513.888    512.753
 89.070    645.000    588.754     56.246    512.638    587.635    512.638    513.800    512.638
 89.170    622.443    594.165     28.279    512.523    593.025    512.523    513.711    512.523
 89.270    656.000    598.311     57.689    512.405    597.148    512.405    513.623    512.405
 89.370    580.000    600.587    -20.587    512.287    599.397    512.287    513.536    512.287
 89.470    615.000    600.601     14.399    512.167    599.381    512.167    513.449    512.167
 89.570    596.000    598.273     -2.273    512.046    597.017    512.046    513.363    512.046
 89.670    637.000    593.834     43.166    511.923    592.539    511.923    513.278    511.923
 89.770    557.000    587.752    -30.752    511.800    586.412    511.800    513.195    511.800
 89.870    546.000    580.599    -34.599    511.675    579.211    511.675    513.114    511.675
 89.970    577.000    572.954      4.046    511.549    571.513    511.549    513.034    511.549
 90.070    529.000    565.328    -36.328    511.421    563.830    511.421    512.956    511.421
 90.170    565.600    558.131      7.468    511.293    556.573    511.293    512.882    511.293
 90.270    570.594    551.660     18.934    511.163    550.037    511.163    512.810    511.163
 90.370    578.048    546.093     31.955    511.032    544.401    511.032    512.743    511.032
 90.470    554.000    541.504     12.496    510.899    539.738    510.899    512.680    510.899
 90.570    527.000    537.882    -10.882    510.765    536.036    510.765    512.623    510.765
 90.670    517.000    535.154    -18.154    510.631    533.220    510.631    512.572    510.631
 90.770    490.875    533.214    -42.339    510.494    531.182    510.494    512.531    510.494
 90.870    520.000    531.945    -11.945    510.357    529.804    510.357    512.501    510.357
 90.970    502.000    531.240    -29.240    510.219    528.973    510.219    512.486    510.219
 91.070    513.613    531.015    -17.403    510.079    528.603    510.079    512.492    510.079
 91.170    492.000    531.222    -39.222    509.938    528.635    509.938    512.523    509.938
 91.270    509.776    531.851    -22.075    509.796    529.053    509.796    512.591    509.796
 91.370    504.000    532.932    -28.932    509.652    529.875    509.652    512.706    509.652
 91.470    565.595    534.511     31.085    509.508    531.129    509.508    512.885    509.508
 91.570    513.000    536.783    -23.783    509.362    532.993    509.362    513.146    509.362
 91.670    549.000    539.909      9.091    509.215    535.604    509.215    513.512    509.215
 91.770    532.000    544.085    -12.085    509.067    539.130    509.067    514.012    509.067
 91.870    521.000    549.550    -28.550    508.917    543.778    508.917    514.675    508.917
 91.970    529.000    556.561    -27.561    508.767    549.775    508.767    515.536    508.767
 92.070    541.000    565.362    -24.362    508.615    557.329    508.615    516.626    508.615
 92.170    578.000    576.161      1.839    508.462    566.620    508.462    517.976    508.462
 92.270    565.730    589.102    -23.372    508.308    577.767    508.308    519.611    508.308
 92.370    621.000    604.233     16.767    508.153    590.803    508.153    521.544    508.153
 92.470    620.000    621.477     -1.477    507.997    605.651    507.997    523.777    507.997
 92.570    687.468    640.609     46.859    507.840    622.104    507.840    526.291    507.840
 92.670    607.000    661.242    -54.242    507.681    639.814    507.681    529.048    507.681
 92.770    662.000    682.819    -20.819    507.522    658.290    507.522    531.983    507.522
 92.870    672.091    704.635    -32.544    507.361    676.918    507.361    535.004    507.361
 92.970    740.000    725.882     14.118    507.199    695.015    507.199    537.989    507.199
 93.070    754.000    745.756      8.244    507.036    711.929    507.036    540.782    507.036
 93.170    777.000    763.576     13.424    506.872    727.164    506.872    543.203    506.872
 93.270    764.163    778.927    -14.764    506.707    740.493    506.707    545.059    506.707
 93.370    777.094    791.685    -14.590    506.541    751.971    506.541    546.174    506.541
 93.470    784.380    801.970    -17.591    506.374    761.847    506.374    546.418    506.374
 93.570    849.000    810.090     38.910    506.205    770.468    506.205    545.751    506.205
 93.670    872.000    816.471     55.529    506.036    778.207    506.036    544.227    506.036
 93.770    819.000    821.644     -2.644    505.866    785.456    505.866    541.982    505.866
 93.870    851.000    826.248     24.752    505.694    792.672    505.694    539.201    505.694
 93.970    847.200    831.007     16.193    505.522    800.387    505.522    536.075    505.522
 94.070    909.000    836.631     72.369    505.348    809.132    505.348    532.782    505.348
 94.170    835.000    843.645     -8.645    505.174    819.283    505.174    529.473    505.174
 94.270    874.000    852.210     21.790    504.998    830.881    504.998    526.266    504.998
 94.370    870.000    862.007      7.993    504.822    843.521    504.822    523.249    504.822
 94.470    859.000    872.216    -13.216    504.644    856.323    504.644    520.482    504.644
 94.570    926.000    881.577     44.423    504.466    867.989    504.466    518.002    504.466
 94.670    991.000    888.525    102.475    504.287    876.943    504.287    515.823    504.287
 94.770    900.000    891.426      8.574    504.106    881.551    504.106    513.943    504.106
 94.870    909.639    888.881     20.757    503.925    880.431    503.925    512.346    503.925
 94.970    928.000    880.061     47.939    503.743    872.777    503.743    511.006    503.743
 95.070    870.000    864.928      5.072    503.559    858.583    503.559    509.893    503.559
 95.170    869.150    844.263     24.887    503.375    838.661    503.375    508.973    503.375
 95.270    869.000    819.480     49.520    503.190    814.458    503.190    508.215    503.190
 95.370    840.000    792.374     47.626    503.004    787.797    503.004    507.587    503.004
 95.470    819.123    764.878     54.245    502.818    760.640    502.818    507.064    502.818
 95.570    710.000    738.906    -28.906    502.630    734.922    502.630    506.622    502.630
 95.670    792.000    716.244     75.756    502.441    712.449    502.441    506.244    502.441
 95.770    709.892    698.488     11.405    502.252    694.829    502.252    505.913    502.252
 95.870    732.241    687.069     45.172    502.061    683.508    502.061    505.620    502.061
 95.970    690.000    683.178      6.822    501.870    679.683    501.870    505.356    501.870
 96.070    670.247    687.799    -17.552    501.678    684.346    501.678    505.114    501.678
 96.170    702.594    701.726      0.868    501.486    698.294    501.486    504.890    501.486
 96.270    726.000    725.537      0.463    501.292    722.110    501.292    504.682    501.292
 96.370    739.000    759.558    -20.558    501.098    756.122    501.098    504.486    501.098
 96.470    808.000    803.790      4.210    500.902    800.331    500.902    504.301    500.902
 96.570    827.000    857.813    -30.813    500.707    854.320    500.707    504.127    500.707
 96.670    930.777    920.693     10.084    500.510    917.157    500.510    503.963    500.510
 96.770   1018.203    990.875     27.328    500.312    987.287    500.312    503.808    500.312
 96.870   1111.129   1066.137     44.992    500.114   1062.487    500.114    503.662    500.114
 96.970   1110.000   1143.562    -33.562    499.915   1139.844    499.915    503.527    499.915
 97.070   1220.000   1219.583      0.417    499.716   1215.791    499.716    503.401    499.716
 97.170   1316.120   1290.095     26.024    499.515   1286.222    499.515    503.285    499.515
 97.270   1369.000   1350.701     18.299    499.314   1346.741    499.314    503.179    499.314
 97.370   1391.897   1397.125     -5.229    499.112   1393.071    499.112    503.085    499.112
 97.470   1451.000   1425.818     25.182    498.910   1421.661    498.910    503.003    498.910
 97.570   1431.000   1434.604     -3.604    498.707   1430.333    498.707    502.934    498.707
 97.670   1437.936   1423.120     14.815    498.503   1418.722    498.503    502.880    498.503
 97.770   1455.000   1392.844     62.156    498.299   1388.300    498.299    502.842    498.299
 97.870   1310.227   1346.691    -36.464    498.094   1341.981    498.094    502.822    498.094
 97.970   1334.250   1288.446     45.804    497.889   1283.543    497.889    502.824    497.889
 98.070   1268.681   1222.227     46.454    497.682   1217.101    497.682    502.852    497.682
 98.170   1189.163   1152.114     37.049    497.476   1146.728    497.476    502.910    497.476
 98.270   1090.000   1081.903      8.097    497.268   1076.215    497.268    503.008    497.268
 98.370    986.000   1014.973    -28.973    497.061   1008.929    497.061    503.155    497.061
 98.470    992.000    954.203     37.797    496.852    947.737    496.852    503.365    496.852
 98.570    850.694    901.962    -51.269    496.643    894.990    496.643    503.656    496.643
 98.670    824.126    860.126    -36.000    496.434    852.540    496.434    504.053    496.434
 98.770    832.000    830.129      1.871    496.224    821.790    496.224    504.586    496.224
 98.870    760.000    813.033    -53.033    496.014    803.763    496.014    505.297    496.014
 98.970    864.000    809.604     54.396    495.803    799.176    495.803    506.235    495.803
 99.070    816.000    820.369     -4.369    495.592    808.496    495.592    507.459    495.592
 99.170    813.000    845.656    -32.656    495.380    831.981    495.380    509.040    495.380
 99.270    908.000    885.583     22.417    495.168    869.669    495.168    511.061    495.168
 99.370    886.098    940.019    -53.921    494.956    921.339    494.956    513.609    494.956
 99.470    952.000   1008.499    -56.499    494.743    986.432    494.743    516.780    494.743
 99.570   1036.463   1090.178    -53.715    494.529   1064.009    494.529    520.668    494.529
 99.670   1174.889   1183.675     -8.786    494.316   1152.599    494.316    525.363    494.316
 99.770   1353.856   1286.991     66.864    494.102   1250.131    494.102    530.939    494.102
 99.870   1479.000   1397.465     81.535    493.888   1353.888    493.888    537.451    493.888
 99.970   1479.000   1511.739    -32.739    493.673   1460.495    493.673    544.919    493.673
100.070   1550.300   1625.839    -75.539    493.458   1565.995    493.458    553.321    493.458
100.170   1769.000   1735.359     33.641    493.243   1666.054    493.243    562.588    493.243
100.270   1754.494   1835.797    -81.303    493.028   1756.299    493.028    572.591    493.028
100.370   1883.000   1922.963    -39.963    492.812   1832.731    492.812    583.135    492.812
100.470   1957.680   1993.324    -35.643    492.596   1892.081    492.596    593.956    492.596
100.570   2051.000   2044.168      6.832    492.380   1931.970    492.380    604.719    492.380
100.670   2024.000   2073.586    -49.586    492.164   1950.900    492.164    615.013    492.164
100.770   2166.000   2080.424     85.576    491.947   1948.188    491.947    624.364    491.947
100.870   2144.000   2064.377     79.623    491.731   1924.047    491.731    632.255    491.731
100.970   2085.911   2026.247     59.665    491.514   1879.791    491.514    638.172    491.514
101.070   2030.000   1968.196     61.804    491.297   1818.028    491.297    641.672    491.297
101.170   1905.000   1893.773     11.227    491.080   1742.599    491.080    642.459    491.080
101.270   1779.382   1807.593    -28.211    490.863   1658.205    490.863    640.449    490.863
101.370   1728.000   1714.789     13.211    490.646   1569.830    490.646    635.792    490.646
101.470   1612.000   1620.414     -8.414    490.428   1482.184    490.428    628.833    490.428
101.570   1513.114   1528.958    -15.844    490.211   1399.284    490.211    620.043    490.211
101.670   1458.184   1444.029     14.155    489.994   1324.220    489.994    609.946    489.994
101.770   1448.000   1368.197     79.803    489.777   1259.052    489.777    599.049    489.777
101.870   1269.000   1302.944    -33.944    489.559   1204.807    489.559    587.810    489.559
101.970   1169.000   1248.699    -79.699    489.342   1161.524    489.342    576.618    489.342
102.070   1167.455   1204.926    -37.470    489.125   1128.352    489.125    565.789    489.125
102.170   1183.000   1170.263     12.737    488.908   1103.688    488.908    555.566    488.908
102.270   1128.568   1142.700    -14.132    488.691   1085.347    488.691    546.123    488.691
102.370   1088.000   1119.800    -31.800    488.474   1070.780    488.474    537.571    488.474
102.470   1134.289   1098.977     35.312    488.258   1057.345    488.258    529.965    488.258
102.570   1112.000   1077.807     34.193    488.041   1042.611    488.041    523.314    488.041
102.670   1068.000   1054.344     13.656    487.825   1024.661    487.825    517.586    487.825
102.770   1008.149   1027.350    -19.201    487.609   1002.318    487.609    512.721    487.609
102.870   1009.000    996.379     12.621    487.393    975.214    487.393    508.638    487.393
102.970    932.812    961.687    -28.875    487.177    943.697    487.177    505.246    487.177
103.070    873.664    924.039    -50.375    486.962    908.628    486.962    502.449    486.962
103.170    897.000    884.488     12.512    486.746    871.154    486.746    500.154    486.746
103.270    870.000    844.197     25.803    486.532    832.524    486.532    498.274    486.532
103.370    786.019    804.302    -18.283    486.317    793.952    486.317    496.730    486.317
103.470    784.000    765.827     18.173    486.103    756.532    486.103    495.455    486.103
103.570    708.000    729.632    -21.632    485.889    721.180    485.889    494.391    485.889
103.670    709.000    696.375     12.625    485.676    688.601    485.676    493.493    485.676
103.770    640.000    666.502    -26.502    485.463    659.279    485.463    492.722    485.463
103.870    687.000    640.247     46.753    485.250    633.478    485.250    492.050    485.250
103.970    648.000    617.652     30.348    485.038    611.261    485.038    491.454    485.038
104.070    637.000    598.599     38.401    484.826    592.528    484.826    490.917    484.826
104.170    576.000    582.844     -6.844    484.615    577.049    484.615    490.426    484.615
104.270    574.000    570.066      3.934    484.404    564.510    484.404    489.973    484.404
104.370    569.000    559.899      9.101    484.194    554.553    484.194    489.549    484.194
104.470    580.000    551.959     28.041    483.985    546.799    483.985    489.150    483.985
104.570    564.000    545.897     18.103    483.776    540.904    483.776    488.773    483.776
104.670    563.000    541.385     21.615    483.567    536.541    483.567    488.414    483.567
104.770    501.334    538.143    -36.810    483.360    533.433    483.360    488.071    483.360
104.870    550.000    535.946     14.054    483.153    531.356    483.153    487.742    483.153
104.970    574.000    534.624     39.376    482.946    530.142    482.946    487.426    482.946
105.070    529.000    534.059     -5.059    482.741    529.674    482.741    487.122    482.741
105.170    525.000    534.182     -9.182    482.536    529.883    482.536    486.829    482.536
105.270    533.000    534.970     -1.970    482.332    530.749    482.332    486.546    482.332
105.370    515.000    536.439    -21.439    482.128    532.287    482.128    486.273    482.128
105.470    512.277    538.642    -26.365    481.926    534.549    481.926    486.008    481.926
105.570    543.000    541.655      1.345    481.724    537.614    481.724    485.752    481.724
105.670    545.303    545.572     -0.269    481.523    541.577    481.523    485.504    481.523
105.770    572.000    550.489     21.511    481.323    546.537    481.323    485.258    481.323
105.870    505.000    556.507    -51.507    481.124    552.587    481.124    485.025    481.124
105.970    567.000    563.688      3.312    480.926    559.793    480.926    484.798    480.926
106.070    609.000    572.061     36.939    480.729    568.185    480.729    484.579    480.729
106.170    585.000    581.604      3.396    480.532    577.741    480.532    484.366    480.532
106.270    595.000    592.235      2.765    480.337    588.380    480.337    484.159    480.337
106.370    591.000    603.807    -12.807    480.143    599.955    480.143    483.959    480.143
106.470    573.229    616.102    -42.873    479.950    612.248    479.950    483.764    479.950
106.570    608.196    628.836    -20.641    479.758    624.977    479.758    483.575    479.758
106.670    619.000    641.660    -22.660    479.567    637.799    479.567    483.383    479.567
106.770    620.000    654.197    -34.197    479.377    650.323    479.377    483.205    479.377
106.870    680.139    666.020     14.119    479.188    662.127    479.188    483.034    479.188
106.970    629.952    676.698    -46.745    479.001    672.782    479.001    482.869    479.001
107.070    634.000    685.838    -51.838    478.814    681.897    478.814    482.709    478.814
107.170    701.152    693.129      8.023    478.629    689.159    478.629    482.556    478.629
107.270    725.105    698.396     26.709    478.446    694.392    478.446    482.408    478.446
107.370    683.000    701.636    -18.636    478.263    697.594    478.263    482.267    478.263
107.470    727.767    703.029     24.738    478.082    698.946    478.082    482.131    478.082
107.570    658.000    702.911    -44.911    477.902    698.782    477.902    482.002    477.902
107.670    683.000    701.714    -18.714    477.724    697.534    477.724    481.878    477.724
107.770    662.000    699.905    -37.905    477.547    695.669    477.547    481.762    477.547
107.870    696.000    697.920     -1.920    477.372    693.624    477.372    481.651    477.372
107.970    713.368    696.127     17.242    477.198    691.763    477.198    481.548    477.198
108.070    660.569    694.786    -34.217    477.025    690.351    477.025    481.452    477.025
108.170    708.000    694.041     13.959    476.854    689.528    476.854    481.362    476.854
108.270    728.791    693.906     34.885    476.685    689.309    476.685    481.281    476.685
108.370    715.680    694.266     21.413    476.517    689.579    476.517    481.206    476.517
108.470    699.000    694.889      4.111    476.351    690.105    476.351    481.140    476.351
108.570    669.000    695.441    -26.441    476.186    690.554    476.186    481.083    476.186
108.670    686.000    695.523     -9.523    476.023    690.525    476.023    481.034    476.023
108.770    682.000    694.712    -12.712    475.862    689.595    475.862    480.994    475.862
108.870    690.000    692.619     -2.619    475.702    687.376    475.702    480.964    475.702
108.970    689.000    688.949      0.051    475.545    683.570    475.545    480.944    475.545
109.070    701.000    683.545     17.455    475.389    678.021    475.389    480.934    475.389
109.170    688.000    676.408     11.592    475.235    670.730    475.235    480.935    475.235
109.270    668.000    667.689      0.311    475.083    661.846    475.083    480.949    475.083
109.370    617.000    657.653    -40.653    474.932    651.634    474.932    480.974    474.932
109.470    670.000    646.635     23.365    474.784    640.428    474.784    481.013    474.784
109.570    641.000    634.998      6.002    474.638    628.591    474.638    481.066    474.638
109.670    635.000    623.106     11.894    474.493    616.485    474.493    481.134    474.493
109.770    616.000    611.298      4.702    474.351    604.449    474.351    481.218    474.351
109.870    616.000    599.877     16.123    474.210    592.784    474.210    481.319    474.210
109.970    602.000    589.096     12.904    474.072    581.743    474.072    481.439    474.072
110.070    563.516    579.136    -15.621    473.936    571.504    473.936    481.580    473.936
110.170    621.000    570.174     50.826    473.802    562.242    473.802    481.744    473.802
110.270    568.825    562.324      6.501    473.670    554.070    473.670    481.932    473.670
110.370    633.000    555.611     77.389    473.541    547.008    473.541    482.149    473.541
110.470    518.000    550.033    -32.033    473.413    541.053    473.413    482.398    473.413
110.570    551.397    545.557      5.841    473.288    536.163    473.288    482.683    473.288
110.670    577.000    542.119     34.881    473.165    532.272    473.165    483.012    473.165
110.770    495.456    539.639    -44.183    473.045    529.291    473.045    483.392    473.045
110.870    579.180    538.027     41.152    472.927    527.120    472.927    483.832    472.927
110.970    556.000    537.193     18.807    472.811    525.655    472.811    484.345    472.811
111.070    530.772    537.047     -6.274    472.698    524.793    472.698    484.947    472.698
111.170    563.163    537.511     25.652    472.588    524.436    472.588    485.657    472.588
111.270    518.000    538.522    -20.522    472.480    524.495    472.480    486.500    472.480
111.370    507.000    540.027    -33.027    472.374    524.890    472.374    487.504    472.374
111.470    513.492    541.997    -28.504    472.271    525.552    472.271    488.708    472.271
111.570    567.723    544.415     23.308    472.171    526.424    472.171    490.153    472.171
111.670    591.317    547.288     44.029    472.073    527.460    472.073    491.893    472.073
111.770    557.000    550.641      6.359    471.978    528.623    471.978    493.986    471.978
111.870    503.000    554.517    -51.517    471.886    529.889    471.886    496.503    471.886
111.970    512.980    558.982    -46.002    471.796    531.245    471.796    499.523    471.796
112.070    535.000    564.120    -29.120    471.710    532.687    471.710    503.132    471.710
112.170    577.000    570.032      6.968    471.626    534.221    471.626    507.425    471.626
112.270    580.000    576.833      3.167    471.545    535.864    471.545    512.502    471.545
112.370    616.000    584.651     31.349    471.467    537.638    471.467    518.467    471.467
112.470    559.008    593.619    -34.611    471.392    539.576    471.392    525.422    471.392
112.570    591.000    603.876    -12.876    471.320    541.717    471.320    533.466    471.320
112.670    580.207    615.561    -35.354    471.251    544.111    471.251    542.686    471.251
112.770    668.762    628.809     39.953    471.185    546.821    471.185    553.158    471.185
112.870    635.000    643.753     -8.753    471.122    549.927    471.122    564.932    471.122
112.970    661.000    660.521      0.479    471.062    553.533    471.062    578.033    471.062
113.070    687.000    679.238      7.762    471.006    557.773    471.006    592.452    471.006
113.170    685.000    700.034    -15.034    470.952    562.827    470.952    608.139    470.952
113.270    684.454    723.050    -38.596    470.902    568.930    470.902    625.000    470.902
113.370    776.000    748.447     27.553    470.856    576.387    470.856    642.890    470.856
113.470    762.131    776.428    -14.297    470.812    585.602    470.812    661.610    470.812
113.570    847.528    807.255     40.272    470.772    597.090    470.772    680.905    470.772
113.670    845.000    841.272      3.728    470.735    611.510    470.735    700.460    470.735
113.770    911.000    878.931     32.069    470.702    629.691    470.702    719.899    470.702
113.870    878.000    920.823    -42.823    470.673    652.658    470.673    738.786    470.673
113.970    932.749    967.709    -34.960    470.646    681.662    470.646    756.633    470.646
114.070   1066.581   1020.550     46.031    470.624    718.194    470.624    772.906    470.624
114.170   1044.000   1080.543    -36.543    470.605    764.009    470.605    787.051    470.605
114.270   1153.000   1149.156      3.844    470.590    821.119    470.590    798.522    470.590
114.370   1246.000   1228.155     17.845    470.578    891.779    470.578    806.827    470.578
114.470   1364.778   1319.619     45.159    470.570    978.456    470.570    811.582    470.570
114.570   1457.000   1425.930     31.070    470.566   1083.764    470.566    812.550    470.566
114.670   1508.287   1549.711    -41.425    470.566   1210.376    470.566    809.685    470.566
114.770   1791.000   1693.724     97.276    470.570   1360.911    470.570    803.127    470.570
114.870   1818.000   1860.696    -42.696    470.577   1537.782    470.577    793.191    470.577
114.970   2063.000   2053.114      9.886    470.589   1743.032    470.589    780.322    470.589
115.070   2334.612   2272.985     61.627    470.604   1978.144    470.604    765.043    470.604
115.170   2554.507   2521.588     32.918    470.624   2243.844    470.624    747.912    470.624
115.270   2871.807   2799.248     72.560    470.647   2539.908    470.647    729.475    470.647
115.370   3015.000   3105.124    -90.124    470.675   2864.986    470.675    710.246    470.675
115.470   3358.000   3437.060    -79.060    470.707   3216.458    470.707    690.689    470.707
115.570   3658.000   3791.463   -133.463    470.743   3590.328    470.743    671.210    470.743
115.670   4112.306   4163.261    -50.955    470.783   3981.180    470.783    652.155    470.783
115.770   4375.000   4545.912   -170.912    470.828   4382.190    470.828    633.810    470.828
115.870   4913.263   4931.487    -18.224    470.877   4785.204    470.877    616.401    470.877
115.970   5051.000   5310.823   -259.823    470.930   5180.888    470.930    600.101    470.930
116.070   5732.351   5673.748     58.603    470.988   5558.953    470.988    585.029    470.988
116.170   6036.159   6009.398     26.761    471.050   5908.466    471.050    571.256    471.050
116.270   6264.000   6306.647    -42.647    471.117   6218.271    471.117    558.812    471.117
116.370   6496.993   6554.657    -57.664    471.188   6477.540    471.188    547.688    471.188
116.470   6764.000   6743.582     20.418    471.264   6676.463    471.264    537.846    471.264
116.570   6818.000   6865.354    -47.354    471.344   6807.034    471.344    529.222    471.344
116.670   6933.000   6914.467     18.533    471.430   6863.824    471.430    521.735    471.430
116.770   6875.410   6888.582    -13.172    471.520   6844.584    471.520    515.291    471.520
116.870   6838.000   6788.789     49.211    471.615   6750.501    471.615    509.788    471.615
116.970   6576.986   6619.462    -42.475    471.714   6586.044    471.714    505.124    471.714
117.070   6318.917   6387.722    -68.804    471.819   6358.435    471.819    501.196    471.819
117.170   6186.000   6102.720     83.280    471.928   6076.918    471.928    497.906    471.928
117.270   5841.391   5774.865     66.526    472.042   5751.990    472.042    495.163    472.042
117.370   5344.560   5415.015    -70.455    472.162   5394.594    472.162    492.886    472.162
117.470   4960.809   5033.963    -73.154    472.286   5015.593    472.286    490.998    472.286
117.570   4694.000   4641.965     52.035    472.416   4625.312    472.416    489.437    472.416
117.670   4262.000   4248.405     13.595    472.551   4233.190    472.551    488.145    472.551
117.770   3999.000   3861.553    137.447    472.691   3847.546    472.691    487.075    472.691
117.870   3633.000   3488.400    144.600    472.836   3475.414    472.836    486.188    472.836
117.970   3183.124   3134.579     48.546    472.986   3122.461    472.986    485.450    472.986
118.070   2944.000   2804.341    139.659    473.142   2792.968    473.142    484.835    473.142
118.170   2448.481   2500.610    -52.129    473.304   2489.881    473.304    484.321    473.304
118.270   2307.000   2225.074     81.926    473.470   2214.909    473.470    483.890    473.470
118.370   2021.000   1978.330     42.670    473.643   1968.665    473.643    483.529    473.643
118.470   1818.404   1760.046     58.358    473.820   1750.827    473.820    483.227    473.820
118.570   1578.000   1569.133      8.867    474.004   1560.318    474.004    482.975    474.004
118.670   1349.841   1403.928    -54.087    474.193   1395.481    474.193    482.767    474.193
118.770   1328.278   1262.366     65.911    474.388   1254.258    474.388    482.597    474.388
118.870   1206.591   1142.138     64.453    474.588   1134.344    474.588    482.460    474.588
118.970    996.753   1040.833    -44.080    474.795   1033.331    474.795    482.355    474.795
119.070    983.000    956.052     26.948    475.007    948.825    475.007    482.277    475.007
119.170    844.000    885.503    -41.503    475.225    878.532    475.225    482.226    475.225
119.270    800.000    827.060    -27.060    475.449    820.329    475.449    482.200    475.449
119.370    786.000    778.804      7.196    475.679    772.299    475.679    482.197    475.679
119.470    694.277    739.046    -44.769    475.915    732.753    475.915    482.217    475.915
119.570    687.000    706.326    -19.326    476.157    700.230    476.157    482.258    476.157
119.670    685.000    679.406      5.594    476.406    673.494    476.406    482.321    476.406
119.770    662.000    657.252      4.748    476.660    651.509    476.660    482.404    476.660
119.870    630.000    639.011     -9.011    476.921    633.424    476.921    482.509    476.921
119.970    575.000    623.991    -48.991    477.188    618.546    477.188    482.635    477.188
120.070    595.047    611.634    -16.587    477.462    606.315    477.462    482.781    477.462
120.170    604.134    601.492      2.642    477.742    596.285    477.742    482.950    477.742
120.270    611.148    593.213     17.935    478.029    588.102    478.029    483.140    478.029
120.370    622.652    586.517     36.135    478.322    581.487    478.322    483.354    478.322
120.470    597.660    581.187     16.473    478.621    576.220    478.621    483.590    478.621
120.570    536.840    577.052    -40.212    478.927    572.131    478.927    483.851    478.927
120.670    583.000    573.979      9.021    479.240    569.086    479.240    484.137    479.240
120.770    554.000    571.864    -17.864    479.560    566.979    479.560    484.449    479.560
120.870    522.000    570.625    -48.625    479.887    565.729    479.887    484.787    479.887
120.970    534.000    570.197    -36.197    480.220    565.269    480.220    485.153    480.220
121.070    627.000    570.524     56.476    480.560    565.543    480.560    485.548    480.560
121.170    540.590    571.560    -30.970    480.908    566.504    480.908    485.971    480.908
121.270    548.837    573.257    -24.420    481.262    568.105    481.262    486.424    481.262
121.370    573.000    575.571     -2.571    481.623    570.299    481.623    486.906    481.623
121.470    567.000    578.451    -11.451    481.992    573.039    481.992    487.417    481.992
121.570    562.538    581.843    -19.305    482.368    576.270    482.368    487.956    482.368
121.670    601.000    585.685     15.315    482.751    579.930    482.751    488.522    482.751
121.770    582.000    589.907     -7.907    483.141    583.952    483.141    489.115    483.141
121.870    582.000    594.428    -12.428    483.539    588.256    483.539    489.732    483.539
121.970    555.216    599.161    -43.944    483.944    592.758    483.944    490.370    483.944
122.070    606.000    604.008      1.992    484.356    597.363    484.356    491.027    484.356
122.170    654.768    608.863     45.905    484.776    601.970    484.776    491.699    484.776
122.270    624.668    613.616     11.052    485.204    606.470    485.204    492.383    485.204
122.370    596.000    618.150    -22.150    485.639    610.752    485.639    493.072    485.639
122.470    641.000    622.350     18.650    486.083    614.707    486.083    493.763    486.083
122.570    652.119    626.103     26.016    486.533    618.226    486.533    494.450    486.533
122.670    666.000    629.304     36.696    486.992    621.212    486.992    495.126    486.992
122.770    594.000    631.867    -37.867    487.459    623.584    487.459    495.785    487.459
122.870    635.000    633.722      1.278    487.933    625.279    487.933    496.421    487.933
122.970    667.000    634.826     32.174    488.416    626.262    488.416    497.025    488.416
123.070    614.938    635.167    -20.229    488.906    626.522    488.906    497.597    488.906
123.170    681.000    634.756     46.244    489.405    626.076    489.405    498.130    489.405
123.270    678.000    633.630     44.370    489.912    624.965    489.912    498.621    489.912
123.370    609.963    631.846    -21.883    490.427    623.246    490.427    499.070    490.427
123.470    631.000    629.476      1.524    490.951    620.992    490.951    499.477    490.951
123.570    650.385    626.604     23.781    491.483    618.282    491.483    499.844    491.483
123.670    635.000    623.315     11.685    492.023    615.199    492.023    500.177    492.023
123.770    589.413    619.699    -30.286    492.572    611.827    492.572    500.479    492.572
123.870    659.000    615.842     43.158    493.129    608.247    493.129    500.756    493.129
123.970    641.899    611.825     30.074    493.695    604.533    493.695    501.016    493.695
124.070    599.000    607.722     -8.722    494.270    600.753    494.270    501.265    494.270
124.170    561.753    603.597    -41.844    494.854    596.966    494.854    501.508    494.854
124.270    641.000    599.504     41.496    495.446    593.218    495.446    501.752    495.446
124.370    597.000    595.484      1.516    496.047    589.547    496.047    502.001    496.047
124.470    584.271    591.569     -7.298    496.657    585.981    496.657    502.260    496.657
124.570    601.000    587.780     13.220    497.276    582.534    497.276    502.534    497.276
124.670    562.478    584.127    -21.649    497.904    579.216    497.904    502.826    497.904
124.770    622.938    580.617     42.321    498.542    576.029    498.542    503.138    498.542
124.870    580.000    577.247      2.753    499.188    572.968    499.188    503.474    499.188
124.970    545.000    574.012    -29.012    499.844    570.027    499.844    503.835    499.844
