neutron_powder_diffraction_0208
R_wp: 3.950
Temperature (K): 1074.100
Counts: 83738.00
Wavelength (Ã…): 2.52098
COMMENTS
Test file for demonstrating the .xyy file format in Reel1.0
END OF HEADER
   tth       Y_obs     Y_calc      Y_res    Background    Phase_1_Nuc    Phase_1_Mag    Phase_2_Nuc    Phase_2_Mag
  9.970    557.000    567.348    -10.348    566.730    567.327    566.730    566.750    566.730
 10.070    579.000    567.554     11.446    566.883    567.534    566.883    566.903    566.883
 10.170    608.000    567.763     40.237    567.031    567.743    567.031    567.051    567.031
 10.270    563.000    567.977     -4.977    567.172    567.956    567.172    567.192    567.172
 10.370    545.978    568.211    -22.232    567.307    568.190    567.307    567.328    567.307
 10.470    599.000    568.439     30.561    567.437    568.418    567.437    567.457    567.437
 10.570    561.185    568.677     -7.492    567.560    568.656    567.560    567.581    567.560
 10.670    591.000    568.930     22.070    567.678    568.909    567.678    567.698    567.678
 10.770    565.000    569.206     -4.206    567.790    569.185    567.790    567.810    567.790
 10.870    557.000    569.513    -12.513    567.896    569.491    567.896    567.916    567.896
 10.970    596.078    569.862     26.216    567.996    569.840    567.996    568.017    567.996
 11.070    569.354    570.270     -0.916    568.091    570.248    568.091    568.112    568.091
 11.170    579.000    570.762      8.238    568.180    570.739    568.180    568.201    568.180
 11.270    572.443    571.374      1.069    568.263    571.351    568.263    568.285    568.263
 11.370    556.000    572.172    -16.172    568.342    572.148    568.342    568.363    568.342
 11.470    590.977    573.294     17.683    568.414    573.268    568.414    568.437    568.414
 11.570    547.112    575.133    -28.020    568.482    575.103    568.482    568.507    568.482
 11.670    586.578    578.822      7.756    568.543    578.791    568.543    568.569    568.543
 11.770    591.681    587.090      4.591    568.600    587.054    568.600    568.626    568.600
 11.870    611.500    604.455      7.045    568.652    604.409    568.652    568.678    568.652
 11.970    678.014    634.573     43.441    568.698    634.509    568.698    568.724    568.698
 12.070    684.890    673.680     11.210    568.739    673.595    568.739    568.765    568.739
 12.170    662.000    704.598    -42.598    568.775    704.494    568.775    568.801    568.775
 12.270    670.155    705.634    -35.479    568.806    705.530    568.806    568.833    568.806
 12.370    719.109    675.877     43.232    568.832    675.788    568.832    568.860    568.832
 12.470    668.000    636.643     31.357    568.853    636.575    568.853    568.882    568.853
 12.570    572.000    605.888    -33.888    568.869    605.838    568.869    568.898    568.869
 12.670    563.000    587.981    -24.981    568.880    587.941    568.880    568.909    568.880
 12.770    574.228    579.442     -5.214    568.887    579.407    568.887    568.916    568.887
 12.870    606.241    575.676     30.564    568.889    575.643    568.889    568.918    568.889
 12.970    561.000    573.854    -12.854    568.886    573.822    568.886    568.915    568.886
 13.070    530.000    572.778    -42.778    568.878    572.746    568.878    568.908    568.878
 13.170    540.871    572.036    -31.165    568.866    572.005    568.866    568.896    568.866
 13.270    594.918    571.485     23.433    568.850    571.454    568.850    568.880    568.850
 13.370    562.000    571.058     -9.058    568.828    571.027    568.828    568.859    568.828
 13.470    550.000    570.718    -20.718    568.803    570.686    568.803    568.833    568.803
 13.570    539.000    570.439    -31.439    568.773    570.407    568.773    568.804    568.773
 13.670    572.000    570.214      1.786    568.738    570.172    568.738    568.780    568.738
 13.770    562.000    570.013     -8.013    568.699    569.969    568.699    568.743    568.699
 13.870    558.000    569.836    -11.836    568.656    569.791    568.656    568.700    568.656
 13.970    603.438    569.676     33.763    568.609    569.631    568.609    568.653    568.609
 14.070    566.516    569.529     -3.013    568.558    569.485    568.558    568.602    568.558
 14.170    554.000    569.393    -15.393    568.502    569.348    568.502    568.547    568.502
 14.270    531.000    569.265    -38.265    568.442    569.219    568.442    568.487    568.442
 14.370    518.000    569.143    -51.143    568.379    569.096    568.379    568.425    568.379
 14.470    576.000    569.029      6.971    568.311    568.977    568.311    568.362    568.311
 14.570    545.169    568.913    -23.744    568.239    568.860    568.239    568.292    568.239
 14.670    563.000    568.798     -5.798    568.163    568.745    568.163    568.216    568.163
 14.770    571.000    568.684      2.316    568.084    568.630    568.084    568.137    568.084
 14.870    543.000    568.570    -25.570    568.001    568.516    568.001    568.054    568.001
 14.970    537.000    568.456    -31.456    567.913    568.402    567.913    567.967    567.913
 15.070    601.000    568.341     32.659    567.823    568.287    567.823    567.877    567.823
 15.170    610.989    568.228     42.761    567.728    568.173    567.728    567.783    567.728
 15.270    596.618    568.112     28.506    567.630    568.057    567.630    567.685    567.630
 15.370    577.681    567.994      9.688    567.528    567.938    567.528    567.583    567.528
 15.470    545.000    567.873    -22.873    567.423    567.817    567.423    567.478    567.423
 15.570    526.000    567.750    -41.750    567.314    567.694    567.314    567.369    567.314
 15.670    608.475    567.626     40.850    567.201    567.569    567.201    567.257    567.201
 15.770    609.000    567.499     41.501    567.085    567.442    567.085    567.142    567.085
 15.870    549.000    567.369    -18.369    566.966    567.312    566.966    567.023    566.966
 15.970    567.000    567.238     -0.238    566.843    567.180    566.843    566.901    566.843
 16.070    546.000    567.104    -21.104    566.717    567.046    566.717    566.775    566.717
 16.170    563.000    566.967     -3.967    566.588    566.909    566.588    566.646    566.588
 16.270    586.918    566.829     20.090    566.456    566.770    566.456    566.514    566.456
 16.370    551.000    566.687    -15.687    566.320    566.628    566.320    566.379    566.320
 16.470    550.000    566.543    -16.543    566.181    566.484    566.181    566.240    566.181
 16.570    572.000    566.397      5.603    566.039    566.337    566.039    566.099    566.039
 16.670    574.754    566.248      8.506    565.894    566.188    565.894    565.954    565.894
 16.770    563.000    566.097     -3.097    565.746    566.037    565.746    565.806    565.746
 16.870    562.000    565.945     -3.945    565.595    565.884    565.595    565.656    565.595
 16.970    588.076    565.789     22.287    565.441    565.727    565.441    565.502    565.441
 17.070    554.000    565.630    -11.630    565.284    565.568    565.284    565.346    565.284
 17.170    549.000    565.469    -16.469    565.124    565.406    565.124    565.187    565.124
 17.270    554.000    565.307    -11.307    564.961    565.241    564.961    565.027    564.961
 17.370    517.160    565.141    -47.981    564.796    565.074    564.796    564.862    564.796
 17.470    531.983    564.973    -32.990    564.628    564.905    564.628    564.695    564.628
 17.570    611.000    564.802     46.198    564.457    564.733    564.457    564.525    564.457
 17.670    599.428    564.628     34.800    564.283    564.559    564.283    564.352    564.283
 17.770    564.000    564.453     -0.453    564.106    564.383    564.106    564.176    564.106
 17.870    604.353    564.277     40.076    563.927    564.206    563.927    563.998    563.927
 17.970    564.000    564.097     -0.097    563.746    564.026    563.746    563.817    563.746
 18.070    587.000    563.914     23.086    563.562    563.842    563.562    563.633    563.562
 18.170    591.775    563.729     28.046    563.375    563.657    563.375    563.447    563.375
 18.270    569.000    563.541      5.459    563.186    563.469    563.186    563.258    563.186
 18.370    537.740    563.352    -25.612    562.995    563.279    562.995    563.067    562.995
 18.470    602.567    563.160     39.407    562.801    563.087    562.801    562.874    562.801
 18.570    589.000    562.966     26.034    562.604    562.892    562.604    562.678    562.604
 18.670    568.331    562.771      5.561    562.406    562.696    562.406    562.480    562.406
 18.770    528.591    562.573    -33.981    562.205    562.497    562.205    562.280    562.205
 18.870    553.000    562.373     -9.373    562.002    562.297    562.002    562.077    562.002
 18.970    551.000    562.171    -11.171    561.796    562.095    561.796    561.873    561.796
 19.070    585.000    561.967     23.033    561.589    561.890    561.589    561.666    561.589
 19.170    511.806    561.762    -49.956    561.379    561.684    561.379    561.457    561.379
 19.270    526.000    561.555    -35.555    561.167    561.477    561.167    561.246    561.167
 19.370    528.534    561.347    -32.813    560.953    561.267    560.953    561.033    560.953
 19.470    560.000    561.138     -1.138    560.737    561.057    560.737    560.818    560.737
 19.570    601.000    560.927     40.073    560.519    560.845    560.519    560.601    560.519
 19.670    595.542    560.713     34.829    560.299    560.630    560.299    560.382    560.299
 19.770    554.000    560.497     -6.497    560.077    560.413    560.077    560.161    560.077
 19.870    595.539    560.279     35.260    559.854    560.195    559.854    559.938    559.854
 19.970    550.579    560.061     -9.481    559.628    559.976    559.628    559.713    559.628
 20.070    531.804    559.840    -28.037    559.400    559.755    559.400    559.486    559.400
 20.170    550.000    559.619     -9.619    559.171    559.532    559.171    559.258    559.171
 20.270    589.000    559.396     29.604    558.940    559.308    558.940    559.027    558.940
 20.370    528.000    559.172    -31.172    558.707    559.083    558.707    558.795    558.707
 20.470    606.377    558.947     47.429    558.472    558.858    558.472    558.561    558.472
 20.570    540.000    558.734    -18.734    558.236    558.644    558.236    558.326    558.236
 20.670    567.000    558.516      8.484    557.998    558.426    557.998    558.089    557.998
 20.770    574.000    558.289     15.711    557.759    558.197    557.759    557.850    557.759
 20.870    569.528    558.060     11.468    557.517    557.967    557.517    557.611    557.517
 20.970    546.000    557.834    -11.834    557.275    557.736    557.275    557.373    557.275
 21.070    560.000    557.605      2.395    557.030    557.504    557.030    557.131    557.030
 21.170    540.000    557.374    -17.374    556.785    557.271    556.785    556.887    556.785
 21.270    587.926    557.142     30.785    556.537    557.038    556.537    556.641    556.537
 21.370    525.000    556.909    -31.909    556.289    556.805    556.289    556.393    556.289
 21.470    545.000    556.677    -11.677    556.039    556.571    556.039    556.144    556.039
 21.570    513.000    556.444    -43.444    555.787    556.337    555.787    555.894    555.787
 21.670    539.000    556.211    -17.211    555.535    556.103    555.535    555.643    555.535
 21.770    495.000    555.979    -60.979    555.281    555.870    555.281    555.390    555.281
 21.870    563.542    555.747      7.795    555.025    555.637    555.025    555.136    555.025
 21.970    556.000    555.516      0.484    554.769    555.404    554.769    554.881    554.769
 22.070    553.309    555.294     -1.985    554.511    555.181    554.511    554.624    554.511
 22.170    535.000    555.147    -20.147    554.252    555.032    554.252    554.367    554.252
 22.270    536.932    554.941    -18.008    553.991    554.824    553.991    554.108    553.991
 22.370    525.334    554.719    -29.385    553.730    554.601    553.730    553.848    553.730
 22.470    559.000    554.518      4.482    553.468    554.398    553.468    553.587    553.468
 22.570    580.000    554.326     25.674    553.204    554.205    553.204    553.325    553.204
 22.670    516.517    554.115    -37.598    552.940    553.992    552.940    553.062    552.940
 22.770    524.307    553.906    -29.600    552.674    553.782    552.674    552.799    552.674
 22.870    513.967    553.705    -39.738    552.407    553.579    552.407    552.534    552.407
 22.970    532.631    553.515    -20.884    552.140    553.387    552.140    552.268    552.140
 23.070    550.000    553.377     -3.377    551.871    553.248    551.871    552.001    551.871
 23.170    524.000    553.228    -29.228    551.602    553.096    551.602    551.734    551.602
 23.270    535.000    553.076    -18.076    551.331    552.942    551.331    551.466    551.331
 23.370    556.719    552.942      3.777    551.060    552.806    551.060    551.197    551.060
 23.470    541.000    552.836    -11.836    550.788    552.697    550.788    550.927    550.788
 23.570    560.111    552.765      7.346    550.515    552.625    550.515    550.657    550.515
 23.670    540.495    552.743    -12.248    550.242    552.600    550.242    550.386    550.242
 23.770    582.000    552.788     29.212    549.967    552.642    549.967    550.114    549.967
 23.870    589.914    552.928     36.986    549.692    552.781    549.692    549.842    549.692
 23.970    561.873    553.217      8.656    549.416    553.067    549.416    549.569    549.416
 24.070    580.384    553.778     26.607    549.140    553.625    549.140    549.295    549.140
 24.170    603.000    554.966     48.034    548.863    554.811    548.863    549.021    548.863
 24.270    550.000    557.754     -7.754    548.585    557.597    548.585    548.747    548.585
 24.370    584.000    564.211     19.789    548.307    564.055    548.307    548.472    548.307
 24.470    598.000    577.280     20.720    548.028    577.128    548.028    548.199    548.028
 24.570    658.000    598.486     59.514    547.748    598.345    547.748    547.924    547.748
 24.670    653.000    623.705     29.295    547.468    623.578    547.468    547.648    547.468
 24.770    632.000    640.457     -8.457    547.188    640.338    547.188    547.372    547.188
 24.870    589.000    636.365    -47.365    546.907    636.239    546.907    547.096    546.907
 24.970    678.000    614.804     63.196    546.625    614.657    546.625    546.819    546.625
 25.070    624.000    589.659     34.341    546.343    589.490    546.343    546.542    546.343
 25.170    604.000    570.613     33.387    546.061    570.425    546.061    546.265    546.061
 25.270    587.157    559.496     27.662    545.778    559.294    545.778    545.989    545.778
 25.370    555.000    554.003      0.997    545.495    553.791    545.495    545.712    545.495
 25.470    561.000    551.418      9.582    545.212    551.198    545.212    545.435    545.212
 25.570    593.542    550.031     43.510    544.928    549.803    544.928    545.158    544.928
 25.670    557.498    549.145      8.354    544.644    548.908    544.644    544.882    544.644
 25.770    562.000    548.482     13.518    544.360    548.237    544.360    544.606    544.360
 25.870    547.000    547.948     -0.948    544.075    547.694    544.075    544.330    544.075
 25.970    580.000    547.505     32.495    543.790    547.242    543.790    544.055    543.790
 26.070    559.000    547.136     11.864    543.506    546.862    543.506    543.780    543.506
 26.170    567.000    546.829     20.171    543.220    546.544    543.220    543.506    543.220
 26.270    553.000    546.575      6.425    542.935    546.277    542.935    543.233    542.935
 26.370    580.000    546.367     33.633    542.650    546.056    542.650    542.960    542.650
 26.470    536.000    546.202    -10.202    542.364    545.877    542.364    542.689    542.364
 26.570    542.000    546.084     -4.084    542.079    545.744    542.079    542.419    542.079
 26.670    541.000    546.019     -5.019    541.793    545.661    541.793    542.150    541.793
 26.770    562.077    546.013     16.064    541.507    545.637    541.507    541.883    541.507
 26.870    549.591    546.081      3.511    541.221    545.683    541.221    541.618    541.221
 26.970    544.000    546.260     -2.260    540.936    545.839    540.936    541.355    540.936
 27.070    573.000    546.546     26.454    540.650    546.100    540.650    541.095    540.650
 27.170    559.000    546.956     12.044    540.364    546.482    540.364    540.838    540.364
 27.270    545.000    547.560     -2.560    540.078    547.053    540.078    540.584    540.078
 27.370    570.000    548.441     21.559    539.793    547.897    539.793    540.335    539.793
 27.470    538.000    549.740    -11.740    539.507    549.155    539.507    540.090    539.507
 27.570    518.073    551.815    -33.742    539.222    551.183    539.222    539.852    539.222
 27.670    611.000    555.999     55.001    538.937    555.312    538.937    539.620    538.937
 27.770    591.000    566.917     24.083    538.652    566.164    538.652    539.397    538.652
 27.870    636.257    596.573     39.683    538.367    595.739    538.367    539.183    538.367
 27.970    696.000    664.164     31.836    538.082    663.224    538.082    538.983    538.082
 28.070    796.000    778.800     17.200    537.797    777.727    537.797    538.797    537.797
 28.170    951.000    907.904     43.096    537.513    906.685    537.513    538.632    537.513
 28.270    950.672    971.565    -20.894    537.229    970.205    537.229    538.490    537.229
 28.370    974.633    917.053     57.580    536.945    915.556    536.945    538.381    536.945
 28.470    819.021    800.158     18.863    536.662    798.482    536.662    538.313    536.662
 28.570    716.000    710.173      5.827    536.378    708.238    536.378    538.303    536.378
 28.670    698.000    692.779      5.221    536.096    690.482    536.096    538.377    536.096
 28.770    766.000    742.408     23.592    535.813    739.616    535.813    538.585    535.813
 28.870    755.000    816.386    -61.386    535.531    812.882    535.531    539.020    535.531
 28.970    767.000    851.413    -84.413    535.249    846.808    535.249    539.856    535.249
 29.070    777.207    810.305    -33.099    534.968    803.915    534.968    541.370    534.968
 29.170    676.348    726.286    -49.938    534.686    717.051    534.686    543.934    534.686
 29.270    702.877    650.409     52.469    534.406    636.911    534.406    547.911    534.406
 29.370    588.241    605.339    -17.098    534.126    586.027    534.126    553.439    534.126
 29.470    592.857    587.376      5.481    533.846    561.165    533.846    560.055    533.846
 29.570    609.315    583.302     26.013    533.567    550.736    533.567    566.129    533.567
 29.670    624.000    581.789     42.211    533.288    546.224    533.288    568.850    533.288
 29.770    575.000    577.195     -2.195    533.010    543.809    533.010    566.393    533.010
 29.870    617.190    569.659     47.531    532.732    542.231    532.732    560.158    532.732
 29.970    558.243    561.620     -3.377    532.455    541.116    532.455    552.956    532.455
 30.070    563.000    554.802      8.198    532.178    540.344    532.178    546.634    532.178
 30.170    524.000    549.819    -25.819    531.902    539.892    531.902    541.827    531.902
 30.270    577.394    546.714     30.680    531.627    539.861    531.627    538.477    531.627
 30.370    543.000    545.568     -2.568    531.352    540.672    531.352    536.244    531.352
 30.470    576.000    547.172     28.828    531.078    543.493    531.078    534.751    531.078
 30.570    565.000    553.496     11.504    530.804    550.587    530.804    533.702    530.804
 30.670    581.669    566.956     14.713    530.531    564.559    530.531    532.906    530.531
 30.770    594.000    587.545      6.455    530.259    585.508    530.259    532.257    530.259
 30.870    653.000    609.099     43.901    529.988    607.333    529.988    531.701    529.988
 30.970    667.081    618.996     48.084    529.717    617.450    529.717    531.206    529.717
 31.070    602.000    608.886     -6.886    529.446    607.530    529.446    530.756    529.446
 31.170    550.000    586.523    -36.523    529.177    585.331    529.177    530.340    529.177
 31.270    608.722    564.539     44.183    528.908    563.482    528.908    529.950    528.908
 31.370    525.656    549.372    -23.716    528.640    548.424    528.640    529.581    528.640
 31.470    573.769    541.146     32.623    528.373    540.287    528.373    529.228    528.373
 31.570    531.000    537.304     -6.304    528.107    536.519    528.107    528.889    528.107
 31.670    561.000    535.524     25.476    527.841    534.801    527.841    528.561    527.841
 31.770    605.000    534.564     70.436    527.576    533.896    527.576    528.243    527.576
 31.870    549.000    533.943     15.057    527.312    533.321    527.312    527.933    527.312
 31.970    566.000    533.501     32.499    527.049    532.920    527.049    527.629    527.049
 32.070    544.836    533.188     11.648    526.787    532.643    526.787    527.331    526.787
 32.170    547.000    532.983     14.017    526.525    532.468    526.525    527.038    526.525
 32.270    581.000    532.877     48.123    526.265    532.391    526.265    526.750    526.265
 32.370    572.000    532.874     39.126    526.005    532.413    526.005    526.465    526.005
 32.470    525.000    532.982     -7.982    525.746    532.543    525.746    526.185    525.746
 32.570    539.000    533.213      5.787    525.488    532.793    525.488    525.907    525.488
 32.670    543.000    533.590      9.410    525.231    533.188    525.231    525.632    525.231
 32.770    576.707    534.150     42.557    524.975    533.764    524.975    525.360    524.975
 32.870    548.000    534.946     13.054    524.720    534.574    524.720    525.091    524.720
 32.970    532.000    536.055     -4.055    524.466    535.695    524.466    524.824    524.466
 33.070    543.000    537.594      5.406    524.213    537.246    524.213    524.559    524.213
 33.170    541.000    539.776      1.224    523.960    539.438    523.960    524.296    523.960
 33.270    552.000    543.087      8.913    523.709    542.759    523.709    524.035    523.709
 33.370    571.963    548.887     23.076    523.459    548.567    523.459    523.776    523.459
 33.470    512.532    560.898    -48.366    523.210    560.583    523.210    523.519    523.210
 33.570    569.000    587.542    -18.542    522.962    587.230    522.962    523.263    522.962
 33.670    619.000    642.718    -23.718    522.714    642.402    522.714    523.009    522.714
 33.770    779.000    739.696     39.304    522.468    739.369    522.468    522.757    522.468
 33.870    879.000    875.416      3.584    522.223    875.076    522.223    522.506    522.223
 33.970   1063.000   1012.599     50.401    521.979   1012.254    521.979    522.257    521.979
 34.070   1069.000   1080.018    -11.018    521.736   1079.686    521.736    522.009    521.736
 34.170   1060.000   1029.321     30.679    521.494   1029.021    521.494    521.763    521.494
 34.270    888.000    898.422    -10.422    521.254    898.153    521.254    521.518    521.254
 34.370    758.000    759.030     -1.030    521.014    758.776    521.014    521.275    521.014
 34.470    656.000    654.465      1.535    520.776    654.216    520.776    521.033    520.776
 34.570    581.000    592.445    -11.445    520.538    592.196    520.538    520.793    520.538
 34.670    529.000    561.350    -32.350    520.302    561.100    520.302    520.554    520.302
 34.770    542.000    546.906     -4.906    520.067    546.657    520.067    520.316    520.067
 34.870    540.000    539.782      0.218    519.833    539.535    519.833    520.080    519.833
 34.970    552.000    535.611     16.389    519.600    535.365    519.600    519.845    519.600
 35.070    573.831    532.734     41.097    519.369    532.490    519.369    519.612    519.369
 35.170    522.537    530.558     -8.021    519.138    530.316    519.138    519.380    519.138
 35.270    547.475    528.837     18.638    518.909    528.596    518.909    519.149    518.909
 35.370    502.000    527.438    -25.438    518.681    527.198    518.681    518.920    518.681
 35.470    509.000    526.276    -17.276    518.454    526.038    518.454    518.692    518.454
 35.570    539.000    525.294     13.706    518.229    525.057    518.229    518.465    518.229
 35.670    525.000    524.451      0.549    518.004    524.215    518.004    518.240    518.004
 35.770    493.000    523.716    -30.716    517.781    523.481    517.781    518.016    517.781
 35.870    534.000    523.070     10.930    517.559    522.835    517.559    517.794    517.559
 35.970    521.769    522.494     -0.724    517.338    522.260    517.338    517.572    517.338
 36.070    512.000    521.977     -9.977    517.119    521.743    517.119    517.353    517.119
 36.170    509.575    521.510    -11.935    516.901    521.276    516.901    517.134    516.901
 36.270    496.000    521.086    -25.086    516.684    520.852    516.684    516.917    516.684
 36.370    484.000    520.700    -36.700    516.468    520.467    516.468    516.702    516.468
 36.470    514.000    520.350     -6.350    516.254    520.116    516.254    516.487    516.254
 36.570    486.000    520.034    -34.034    516.041    519.800    516.041    516.274    516.041
 36.670    474.000    519.753    -45.753    515.829    519.520    515.829    516.063    515.829
 36.770    519.000    519.514     -0.514    515.619    519.280    515.619    515.853    515.619
 36.870    543.000    519.333     23.667    515.410    519.099    515.410    515.644    515.410
 36.970    563.000    519.261     43.739    515.202    519.026    515.202    515.437    515.202
 37.070    555.199    519.419     35.780    514.996    519.184    514.996    515.231    514.996
 37.170    510.000    520.046    -10.046    514.791    519.810    514.791    515.027    514.791
 37.270    518.198    521.492     -3.294    514.587    521.255    514.587    514.824    514.587
 37.370    561.000    524.058     36.942    514.384    523.821    514.384    514.622    514.384
 37.470    540.000    527.663     12.337    514.183    527.426    514.183    514.422    514.183
 37.570    559.086    531.475     27.611    513.984    531.238    513.984    514.223    513.984
 37.670    516.000    533.874    -17.874    513.785    533.638    513.785    514.026    513.785
 37.770    525.000    533.507     -8.507    513.588    533.272    513.588    513.830    513.588
 37.870    526.000    530.723     -4.723    513.393    530.488    513.393    513.636    513.393
 37.970    539.000    527.002     11.998    513.198    526.768    513.198    513.443    513.198
 38.070    482.000    523.493    -41.493    513.006    523.259    513.006    513.251    513.006
 38.170    520.669    520.645      0.023    512.814    520.408    512.814    513.061    512.814
 38.270    542.000    518.546     23.454    512.624    518.305    512.624    512.872    512.624
 38.370    484.287    517.108    -32.821    512.435    516.862    512.435    512.685    512.435
 38.470    510.000    516.159     -6.159    512.248    515.910    512.248    512.500    512.248
 38.570    543.541    515.533     28.008    512.062    515.281    512.062    512.316    512.062
 38.670    533.541    515.102     18.439    511.878    514.848    511.878    512.133    511.878
 38.770    509.000    514.778     -5.778    511.695    514.521    511.695    511.952    511.695
 38.870    497.000    514.510    -17.510    511.513    514.251    511.513    511.772    511.513
 38.970    484.000    514.272    -30.272    511.333    514.012    511.333    511.594    511.333
 39.070    479.956    514.055    -34.099    511.155    513.792    511.155    511.417    511.155
 39.170    500.394    513.852    -13.458    510.977    513.587    510.977    511.242    510.977
 39.270    486.000    513.660    -27.660    510.801    513.393    510.801    511.069    510.801
 39.370    522.000    513.479      8.521    510.627    513.209    510.627    510.897    510.627
 39.470    501.000    513.306    -12.306    510.454    513.034    510.454    510.726    510.454
 39.570    516.000    513.141      2.859    510.283    512.867    510.283    510.557    510.283
 39.670    494.000    512.984    -18.984    510.113    512.708    510.113    510.390    510.113
 39.770    493.335    512.835    -19.500    509.944    512.556    509.944    510.224    509.944
 39.870    539.000    512.693     26.307    509.777    512.411    509.777    510.059    509.777
 39.970    483.861    512.558    -28.697    509.611    512.273    509.611    509.896    509.611
 40.070    552.226    512.431     39.795    509.447    512.143    509.447    509.735    509.447
 40.170    487.400    512.312    -24.911    509.284    512.021    509.284    509.575    509.284
 40.270    518.000    512.201      5.799    509.123    511.908    509.123    509.417    509.123
 40.370    545.801    512.100     33.700    508.963    511.803    508.963    509.261    508.963
 40.470    499.719    512.009    -12.291    508.805    511.709    508.805    509.106    508.805
 40.570    525.000    511.930     13.070    508.648    511.626    508.648    508.952    508.648
 40.670    501.000    511.864    -10.864    508.493    511.556    508.493    508.801    508.493
 40.770    515.650    511.812      3.838    508.339    511.501    508.339    508.651    508.339
 40.870    515.000    511.778      3.222    508.187    511.464    508.187    508.502    508.187
 40.970    515.000    511.766      3.234    508.036    511.447    508.036    508.355    508.036
 41.070    506.000    511.778     -5.778    507.887    511.456    507.887    508.210    507.887
 41.170    525.228    511.822     13.406    507.739    511.495    507.739    508.066    507.739
 41.270    541.782    511.904     29.879    507.593    511.573    507.593    507.924    507.593
 41.370    503.000    512.035     -9.035    507.448    511.700    507.448    507.784    507.448
 41.470    510.000    512.230     -2.230    507.304    511.890    507.304    507.645    507.304
 41.570    488.000    512.511    -24.511    507.163    512.168    507.163    507.508    507.163
 41.670    510.000    512.921     -2.921    507.022    512.573    507.022    507.372    507.022
 41.770    523.000    513.551      9.449    506.883    513.198    506.883    507.239    506.883
 41.870    497.000    514.628    -17.628    506.746    514.270    506.746    507.106    506.746
 41.970    507.000    516.692     -9.692    506.610    516.330    506.610    506.976    506.610
 42.070    473.745    520.858    -47.113    506.476    520.492    506.476    506.847    506.476
 42.170    519.000    528.963     -9.963    506.343    528.595    506.343    506.720    506.343
 42.270    541.000    543.182     -2.182    506.212    542.814    506.212    506.595    506.212
 42.370    579.000    564.734     14.266    506.082    564.370    506.082    506.472    506.082
 42.470    573.000    591.885    -18.885    505.954    591.528    505.954    506.350    505.954
 42.570    619.000    618.236      0.764    505.827    617.887    505.827    506.230    505.827
 42.670    566.000    633.334    -67.334    505.702    632.989    505.702    506.112    505.702
 42.770    565.000    629.204    -64.204    505.578    628.853    505.578    505.995    505.578
 42.870    599.000    608.278     -9.278    505.456    607.911    505.456    505.880    505.456
 42.970    527.000    580.513    -53.513    505.336    580.124    505.336    505.767    505.336
 43.070    526.866    554.998    -28.132    505.216    554.587    505.216    505.656    505.216
 43.170    527.000    536.171     -9.171    505.099    535.741    505.099    505.547    505.099
 43.270    545.000    524.385     20.615    504.983    523.938    504.983    505.440    504.983
 43.370    475.000    517.865    -42.865    504.868    517.404    504.868    505.334    504.868
 43.470    492.406    514.494    -22.088    504.755    514.022    504.755    505.231    504.755
 43.570    536.492    512.723     23.770    504.644    512.240    504.644    505.129    504.644
 43.670    507.000    511.689     -4.689    504.534    511.195    504.534    505.030    504.534
 43.770    477.000    510.998    -33.998    504.425    510.493    504.425    504.932    504.425
 43.870    500.000    510.486    -10.486    504.318    509.969    504.318    504.836    504.318
 43.970    535.449    510.085     25.364    504.213    509.556    504.213    504.743    504.213
 44.070    521.000    509.763     11.237    504.109    509.221    504.109    504.651    504.109
 44.170    495.000    509.501    -14.501    504.006    508.946    504.006    504.562    504.006
 44.270    482.000    509.286    -27.286    503.905    508.718    503.905    504.474    503.905
 44.370    496.000    509.110    -13.110    503.806    508.527    503.806    504.389    503.806
 44.470    519.000    508.965     10.035    503.708    508.367    503.708    504.307    503.708
 44.570    502.000    508.848     -6.848    503.611    508.233    503.611    504.226    503.611
 44.670    498.000    508.753    -10.753    503.516    508.122    503.516    504.148    503.516
 44.770    500.000    508.679     -8.679    503.423    508.030    503.423    504.072    503.423
 44.870    484.119    508.624    -24.506    503.331    507.956    503.331    503.999    503.331
 44.970    496.000    508.587    -12.587    503.241    507.899    503.241    503.929    503.241
 45.070    497.754    508.566    -10.812    503.152    507.857    503.152    503.861    503.152
 45.170    512.000    508.561      3.439    503.064    507.830    503.064    503.796    503.064
 45.270    525.804    508.572     17.232    502.978    507.817    502.978    503.733    502.978
 45.370    519.000    508.598     10.402    502.894    507.818    502.894    503.674    502.894
 45.470    529.000    508.641     20.359    502.811    507.834    502.811    503.618    502.811
 45.570    493.000    508.701    -15.701    502.730    507.865    502.730    503.565    502.730
 45.670    546.969    508.779     38.190    502.650    507.912    502.650    503.516    502.650
 45.770    550.000    508.876     41.124    502.571    507.976    502.571    503.471    502.571
 45.870    508.110    508.993     -0.883    502.494    508.058    502.494    503.429    502.494
 45.970    490.000    509.133    -19.133    502.419    508.160    502.419    503.392    502.419
 46.070    520.065    509.299     10.765    502.345    508.285    502.345    503.359    502.345
 46.170    470.674    509.494    -38.820    502.272    508.435    502.272    503.331    502.272
 46.270    521.000    509.722     11.278    502.201    508.615    502.201    503.308    502.201
 46.370    518.000    509.989      8.011    502.132    508.829    502.132    503.291    502.132
 46.470    531.000    510.302     20.698    502.064    509.085    502.064    503.280    502.064
 46.570    494.000    510.670    -16.670    501.997    509.390    501.997    503.275    501.997
 46.670    483.000    511.108    -28.108    501.932    509.760    501.932    503.279    501.932
 46.770    516.074    511.641      4.433    501.868    510.217    501.868    503.290    501.868
 46.870    511.000    512.320     -1.320    501.806    510.813    501.806    503.311    501.806
 46.970    515.798    513.259      2.540    501.745    511.659    501.745    503.342    501.745
 47.070    495.254    514.721    -19.466    501.686    513.018    501.686    503.385    501.686
 47.170    542.000    517.221     24.779    501.628    515.402    501.628    503.441    501.628
 47.270    554.000    521.618     32.382    501.571    519.668    501.571    503.513    501.571
 47.370    485.337    529.023    -43.686    501.516    526.923    501.516    503.603    501.516
 47.470    523.000    540.361    -17.361    501.463    538.088    501.463    503.714    501.463
 47.570    592.366    555.613     36.753    501.410    553.142    501.410    503.849    501.410
 47.670    596.951    572.918     24.034    501.360    570.219    501.360    504.013    501.360
 47.770    627.009    588.136     38.873    501.310    585.179    501.310    504.212    501.310
 47.870    620.000    595.745     24.255    501.263    592.495    501.263    504.453    501.263
 47.970    605.108    592.474     12.635    501.216    588.890    501.216    504.746    501.216
 48.070    593.000    580.550     12.450    501.171    576.574    501.171    505.103    501.171
 48.170    574.000    565.360      8.640    501.127    560.911    501.127    505.545    501.127
 48.270    524.000    551.558    -27.558    501.085    546.522    501.085    506.100    501.085
 48.370    520.849    541.625    -20.775    501.044    535.836    501.044    506.820    501.044
 48.470    503.000    536.109    -33.109    501.005    529.309    501.005    507.797    501.005
 48.570    573.000    534.460     38.540    500.967    526.227    500.967    509.194    500.967
 48.670    489.000    535.908    -46.908    500.930    525.542    500.930    511.291    500.930
 48.770    543.000    540.036      2.964    500.895    526.402    500.895    514.524    500.895
 48.870    543.000    546.963     -3.963    500.861    528.322    500.861    519.497    500.861
 48.970    569.000    557.243     11.757    500.829    531.154    500.829    526.913    500.829
 49.070    579.000    571.650      7.350    500.798    535.046    500.798    537.396    500.798
 49.170    594.000    591.026      2.974    500.768    540.601    500.768    551.185    500.768
 49.270    634.000    616.509     17.491    500.739    549.499    500.739    567.738    500.739
 49.370    695.000    650.615     44.385    500.712    566.054    500.712    585.255    500.712
 49.470    721.000    699.690     21.310    500.687    600.056    500.687    600.291    500.687
 49.570    750.000    777.871    -27.871    500.662    670.169    500.662    608.314    500.662
 49.670    955.000    910.389     44.611    500.639    804.714    500.639    606.233    500.639
 49.770   1131.979   1128.789      3.191    500.618   1034.340    500.618    594.940    500.618
 49.870   1485.818   1450.964     34.853    500.597   1372.935    500.597    578.458    500.597
 49.970   1854.557   1852.758      1.800    500.578   1792.135    500.578    561.018    500.578
 50.070   2306.000   2250.046     55.954    500.561   2205.063    500.561    545.396    500.561
 50.170   2536.521   2512.669     23.852    500.544   2480.308    500.544    532.854    500.544
 50.270   2484.000   2527.761    -43.761    500.529   2504.780    500.529    523.584    500.529
 50.370   2325.000   2283.972     41.028    500.516   2267.495    500.516    517.160    500.516
 50.470   1833.000   1882.573    -49.573    500.503   1870.373    500.503    512.902    500.503
 50.570   1383.000   1458.569    -75.569    500.492   1449.108    500.492    510.134    500.492
 50.670   1093.000   1108.658    -15.658    500.482   1100.962    500.482    508.316    500.482
 50.770    827.000    870.000    -43.000    500.474    863.492    500.474    507.075    500.474
 50.870    685.000    732.638    -47.638    500.466    726.984    500.466    506.183    500.466
 50.970    639.000    664.565    -25.565    500.460    659.564    500.460    505.507    500.460
 51.070    663.431    632.918     30.513    500.455    628.439    500.455    504.974    500.455
 51.170    593.000    614.685    -21.685    500.452    610.630    500.452    504.541    500.452
 51.270    581.000    598.792    -17.792    500.450    595.086    500.450    504.185    500.450
 51.370    576.000    582.821     -6.821    500.449    579.404    500.449    503.888    500.449
 51.470    602.000    567.964     34.036    500.449    564.790    500.449    503.640    500.449
 51.570    565.269    555.704      9.565    500.450    552.735    500.450    503.431    500.450
 51.670    519.116    546.699    -27.584    500.453    543.905    500.453    503.255    500.453
 51.770    511.882    540.773    -28.891    500.457    538.129    500.457    503.107    500.457
 51.870    512.000    537.285    -25.285    500.462    534.768    500.462    502.982    500.462
 51.970    556.550    535.519     21.031    500.468    533.113    500.468    502.877    500.468
 52.070    532.000    534.936     -2.936    500.476    532.625    500.476    502.789    500.476
 52.170    574.000    535.244     38.756    500.485    533.013    500.485    502.717    500.485
 52.270    585.000    536.386     48.614    500.495    534.224    500.495    502.659    500.495
 52.370    571.000    538.566     32.434    500.506    536.460    500.506    502.612    500.506
 52.470    553.000    542.391     10.609    500.518    540.334    500.518    502.576    500.518
 52.570    568.402    549.243     19.159    500.531    547.225    500.531    502.550    500.531
 52.670    566.000    561.843      4.157    500.546    559.856    500.546    502.533    500.546
 52.770    585.977    584.847      1.130    500.562    582.884    500.562    502.524    500.562
 52.870    662.099    624.882     37.216    500.579    622.935    500.579    502.522    500.579
 52.970    639.000    689.241    -50.241    500.597    687.304    500.597    502.528    500.597
 53.070    832.000    782.690     49.310    500.616    780.758    500.616    502.540    500.616
 53.170    848.056    902.881    -54.825    500.636    900.950    500.636    502.559    500.636
 53.270   1092.000   1035.976     56.024    500.658   1034.044    500.658    502.584    500.658
 53.370   1124.000   1154.714    -30.714    500.680   1152.781    500.680    502.615    500.680
 53.470   1238.000   1223.460     14.540    500.704   1221.527    500.704    502.652    500.704
 53.570   1250.664   1216.111     34.553    500.729   1214.172    500.729    502.695    500.729
 53.670   1086.000   1135.973    -49.973    500.755   1134.020    500.755    502.744    500.755
 53.770   1038.612   1012.690     25.922    500.781   1010.710    500.781    502.798    500.781
 53.870    863.000    881.032    -18.032    500.809    879.015    500.809    502.858    500.809
 53.970    734.000    765.780    -31.780    500.839    763.719    500.839    502.924    500.839
 54.070    644.000    678.391    -34.391    500.869    676.281    500.869    502.996    500.869
 54.170    640.000    619.547     20.453    500.900    617.384    500.900    503.074    500.900
 54.270    623.598    583.725     39.873    500.932    581.505    500.932    503.158    500.932
 54.370    577.000    563.602     13.398    500.965    561.322    500.965    503.249    500.965
 54.470    518.413    552.889    -34.476    501.000    550.544    501.000    503.347    501.000
 54.570    554.000    547.320      6.680    501.035    544.904    501.035    503.452    501.035
 54.670    540.112    544.462     -4.349    501.071    541.969    501.071    503.565    501.071
 54.770    523.616    543.100    -19.484    501.109    540.523    501.109    503.686    501.109
 54.870    586.040    542.688     43.351    501.147    540.020    501.147    503.816    501.147
 54.970    510.742    543.001    -32.259    501.186    540.233    501.186    503.955    501.186
 55.070    588.849    543.957     44.893    501.227    541.080    501.227    504.104    501.227
 55.170    624.000    545.546     78.454    501.268    542.551    501.268    504.264    501.268
 55.270    567.000    547.805     19.195    501.310    544.681    501.310    504.435    501.310
 55.370    539.600    550.820    -11.220    501.354    547.554    501.354    504.620    501.354
 55.470    552.451    554.746     -2.295    501.398    551.325    501.398    504.818    501.398
 55.570    524.637    559.878    -35.242    501.443    556.289    501.443    505.032    501.443
 55.670    519.844    566.838    -46.994    501.489    563.064    501.489    505.264    501.489
 55.770    596.000    576.990     19.010    501.536    573.011    501.536    505.514    501.536
 55.870    582.000    593.278    -11.278    501.584    589.073    501.584    505.786    501.584
 55.970    603.446    621.589    -18.142    501.633    617.134    501.633    506.082    501.633
 56.070    647.000    672.410    -25.410    501.683    667.676    501.683    506.404    501.683
 56.170    787.547    761.812     25.735    501.733    756.765    501.733    506.757    501.733
 56.270    876.000    909.956    -33.956    501.785    904.557    501.785    507.145    501.785
 56.370   1122.000   1135.287    -13.287    501.837   1129.496    501.837    507.572    501.837
 56.470   1424.000   1444.180    -20.180    501.890   1437.958    501.890    508.045    501.890
 56.570   1818.000   1818.890     -0.890    501.944   1812.198    501.944    508.570    501.944
 56.670   2242.244   2208.868     33.376    501.999   2201.670    501.999    509.156    501.999
 56.770   2461.773   2531.291    -69.518    502.055   2523.547    502.055    509.814    502.055
 56.870   2689.951   2691.608     -1.657    502.112   2683.263    502.112    510.557    502.112
 56.970   2605.772   2633.174    -27.402    502.169   2624.131    502.169    511.399    502.169
 57.070   2391.000   2379.140     11.860    502.228   2369.250    502.228    512.361    502.228
 57.170   1957.523   2013.105    -55.581    502.287   2002.176    502.287    513.469    502.287
 57.270   1642.000   1626.828     15.172    502.347   1614.643    502.347    514.759    502.347
 57.370   1302.000   1286.789     15.211    502.407   1273.096    502.407    516.281    502.407
 57.470   1024.000   1025.648     -1.648    502.469   1010.129    502.469    518.116    502.469
 57.570    895.000    847.318     47.682    502.531    829.532    502.531    520.400    502.531
 57.670    777.514    738.224     39.291    502.594    717.500    502.594    523.366    502.594
 57.770    708.080    679.131     28.949    502.658    654.403    502.658    527.411    502.658
 57.870    702.000    653.475     48.525    502.722    623.025    502.722    533.182    502.722
 57.970    621.000    651.083    -30.083    502.788    612.202    502.788    541.668    502.788
 58.070    694.772    668.222     26.550    502.854    616.824    502.854    554.240    502.854
 58.170    667.983    705.892    -37.909    502.920    636.202    502.920    572.588    502.920
 58.270    713.000    767.321    -54.321    502.988    671.801    502.988    598.473    502.988
 58.370    831.429    855.257    -23.828    503.056    724.986    503.056    633.279    503.056
 58.470    909.000    969.400    -60.400    503.125    795.087    503.125    677.378    503.125
 58.570   1164.599   1104.319     60.280    503.194    878.036    503.194    729.411    503.194
 58.670   1275.000   1248.405     26.595    503.264    966.099    503.264    785.505    503.264
 58.770   1379.000   1384.891     -5.891    503.335   1049.644    503.335    838.526    503.335
 58.870   1453.585   1494.904    -41.319    503.407   1120.167    503.407    878.101    503.407
 58.970   1497.015   1560.900    -63.885    503.479   1170.901    503.479    893.457    503.479
 59.070   1607.000   1571.175     35.825    503.552   1195.133    503.552    879.595    503.552
 59.170   1576.000   1525.872     50.128    503.625   1188.392    503.625    841.124    503.625
 59.270   1466.218   1439.164     27.054    503.699   1154.209    503.699    788.679    503.699
 59.370   1365.000   1333.802     31.198    503.774   1104.868    503.774    732.723    503.774
 59.470   1200.689   1232.546    -31.857    503.849   1055.836    503.849    680.551    503.849
 59.570   1207.000   1154.142     52.858    503.925   1021.844    503.925    636.181    503.925
 59.670   1096.180   1114.061    -17.881    504.001   1016.899    504.001    601.078    504.001
 59.770   1175.000   1123.795     51.205    504.078   1052.795    504.078    574.939    504.078
 59.870   1207.000   1186.140     20.860    504.156   1133.682    504.156    556.418    504.156
 59.970   1356.000   1290.482     65.518    504.234   1250.706    504.234    543.760    504.234
 60.070   1404.974   1411.458     -6.484    504.312   1380.214    504.312    535.266    504.312
 60.170   1513.000   1511.900      1.100    504.391   1486.440    504.391    529.549    504.391
 60.270   1482.622   1552.707    -70.085    504.471   1531.296    504.471    525.603    504.471
 60.370   1466.000   1511.195    -45.195    504.551   1492.755    504.551    522.768    504.551
 60.470   1315.734   1394.774    -79.039    504.632   1378.611    504.632    520.637    504.632
 60.570   1306.000   1233.705     72.295    504.713   1219.345    504.713    518.977    504.713
 60.670   1054.000   1062.928     -8.928    504.795   1050.019    504.795    517.655    504.795
 60.770    957.000    909.572     47.428    504.877    897.831    504.877    516.598    504.877
 60.870    804.405    788.657     15.748    504.960    777.843    504.960    515.767    504.960
 60.970    710.000    704.003      5.997    505.043    693.896    505.043    515.146    505.043
 61.070    615.030    652.086    -37.055    505.127    642.478    505.127    514.728    505.127
 61.170    590.531    626.825    -36.294    505.211    617.512    505.211    514.513    505.211
 61.270    589.244    623.502    -34.258    505.295    614.281    505.295    514.497    505.295
 61.370    624.676    640.869    -16.193    505.380    631.550    505.380    514.668    505.380
 61.470    692.111    681.298     10.813    505.465    671.722    505.465    514.992    505.465
 61.570    772.000    749.155     22.845    505.551    739.222    505.551    515.410    505.551
 61.670    864.000    847.746     16.254    505.637    837.451    505.637    515.827    505.637
 61.770    918.000    975.519    -57.519    505.723    964.990    505.723    516.114    505.723
 61.870   1073.000   1122.677    -49.677    505.810   1112.181    505.810    516.139    505.810
 61.970   1273.927   1269.519      4.408    505.897   1259.402    505.897    515.828    505.897
 62.070   1405.000   1387.812     17.188    505.985   1378.396    505.985    515.215    505.985
 62.170   1385.633   1447.600    -61.967    506.072   1439.101    506.072    514.411    506.072
 62.270   1291.000   1430.756   -139.756    506.161   1423.256    506.161    513.542    506.161
 62.370   1318.000   1342.284    -24.284    506.249   1335.755    506.249    512.708    506.249
 62.470   1241.000   1206.773     34.227    506.338   1201.111    506.338    511.968    506.338
 62.570   1012.000   1054.615    -42.615    506.427   1049.685    506.427    511.352    506.427
 62.670    913.759    911.014      2.745    506.516    906.674    506.516    510.866    506.516
 62.770    731.000    791.539    -60.539    506.606    787.659    506.606    510.500    506.606
 62.870    676.853    702.020    -25.167    506.696    698.495    506.696    510.234    506.696
 62.970    647.064    640.871      6.192    506.786    637.619    506.786    510.047    506.786
 63.070    558.000    602.429    -44.429    506.877    599.390    506.877    509.919    506.877
 63.170    556.709    580.019    -23.309    506.967    577.153    506.967    509.833    506.967
 63.270    592.000    567.946     24.054    507.058    565.225    507.058    509.776    507.058
 63.370    555.000    562.312     -7.312    507.150    559.717    507.150    509.740    507.150
 63.470    605.863    561.070     44.793    507.241    558.584    507.241    509.720    507.241
 63.570    567.000    563.748      3.252    507.332    561.357    507.332    509.713    507.332
 63.670    577.032    571.169      5.863    507.424    568.864    507.424    509.716    507.424
 63.770    588.000    585.198      2.802    507.516    582.967    507.516    509.727    507.516
 63.870    630.000    608.387     21.613    507.608    606.220    507.608    509.745    507.608
 63.970    652.000    643.360      8.640    507.701    641.247    507.701    509.770    507.701
 64.070    639.112    691.866    -52.754    507.793    689.797    507.793    509.800    507.793
 64.170    776.000    753.598     22.402    507.886    751.565    507.886    509.835    507.886
 64.270    817.000    825.079     -8.079    507.978    823.077    507.978    509.875    507.978
 64.370    903.000    898.967      4.033    508.071    896.996    508.071    509.919    508.071
 64.470    935.000    964.318    -29.318    508.164    962.382    508.164    509.967    508.164
 64.570   1053.000   1008.907     44.093    508.257   1007.014    508.257    510.018    508.257
 64.670   1011.000   1023.989    -12.989    508.350   1022.149    508.350    510.073    508.350
 64.770    968.050   1008.200    -40.150    508.444   1006.420    508.444    510.130    508.444
 64.870    924.737    967.107    -42.370    508.537    965.388    508.537    510.191    508.537
 64.970    930.040    910.199     19.841    508.630    908.539    508.630    510.254    508.630
 65.070    843.527    847.757     -4.230    508.724    846.150    508.724    510.320    508.724
 65.170    785.000    788.040     -3.040    508.817    786.476    508.817    510.389    508.817
 65.270    697.000    735.714    -38.714    508.911    734.185    508.911    510.459    508.911
 65.370    694.000    692.128      1.872    509.004    690.626    509.004    510.532    509.004
 65.470    661.381    656.777      4.604    509.098    655.294    509.098    510.606    509.098
 65.570    624.583    628.652     -4.069    509.192    627.183    509.192    510.683    509.192
 65.670    589.000    606.755    -17.755    509.285    605.296    509.285    510.762    509.285
 65.770    587.000    590.137     -3.137    509.379    588.686    509.379    510.842    509.379
 65.870    574.000    577.924     -3.924    509.472    576.479    509.472    510.924    509.472
 65.970    550.000    569.349    -19.349    509.566    567.910    509.566    511.008    509.566
 66.070    600.000    563.745     36.255    509.659    562.312    509.659    511.093    509.659
 66.170    605.110    560.538     44.572    509.752    559.110    509.752    511.180    509.752
 66.270    576.000    559.247     16.753    509.846    557.824    509.846    511.269    509.846
 66.370    548.952    559.510    -10.558    509.939    558.090    509.939    511.359    509.939
 66.470    563.754    561.125      2.629    510.032    559.706    510.032    511.450    510.032
 66.570    556.000    564.107     -8.107    510.125    562.689    510.125    511.544    510.125
 66.670    535.000    568.796    -33.796    510.218    567.377    510.218    511.638    510.218
 66.770    623.846    576.060     47.786    510.311    574.637    510.311    511.735    510.311
 66.870    576.796    587.634    -10.838    510.404    586.205    510.404    511.832    510.404
 66.970    619.005    606.616     12.390    510.496    605.178    510.496    511.932    510.496
 67.070    599.000    638.015    -39.015    510.589    636.566    510.589    512.033    510.589
 67.170    675.000    689.122    -14.122    510.681    687.658    510.681    512.136    510.681
 67.270    737.798    769.285    -31.487    510.773    767.804    510.773    512.240    510.773
 67.370    925.595    888.637     36.958    510.865    887.136    510.865    512.346    510.865
 67.470   1086.000   1055.475     30.525    510.957   1053.955    510.957    512.454    510.957
 67.570   1309.270   1272.522     36.748    511.049   1270.988    511.049    512.564    511.049
 67.670   1501.000   1532.900    -31.900    511.140   1531.360    511.140    512.676    511.140
 67.770   1736.000   1817.059    -81.059    511.231   1815.526    511.231    512.790    511.231
 67.870   2022.000   2091.873    -69.873    511.322   2090.363    511.322    512.906    511.322
 67.970   2197.000   2313.396   -116.396    511.413   2311.922    511.413    513.025    511.413
 68.070   2519.000   2436.216     82.784    511.503   2434.784    511.503    513.146    511.503
 68.170   2399.000   2430.629    -31.629    511.593   2429.229    511.593    513.270    511.593
 68.270   2230.156   2298.170    -68.013    511.683   2296.774    511.683    513.396    511.683
 68.370   2051.000   2070.658    -19.658    511.773   2069.230    511.773    513.526    511.773
 68.470   1945.000   1793.891    151.109    511.862   1792.397    511.862    513.659    511.862
 68.570   1430.605   1511.091    -80.486    511.952   1509.507    511.952    513.796    511.952
 68.670   1294.771   1254.253     40.518    512.040   1252.566    512.040    513.937    512.040
 68.770   1058.901   1041.767     17.134    512.129   1039.972    512.129    514.082    512.129
 68.870    823.314    879.554    -56.240    512.217    877.651    512.217    514.232    512.217
 68.970    770.000    764.259      5.741    512.305    762.253    512.305    514.387    512.305
 69.070    749.000    687.304     61.696    512.393    685.198    512.393    514.547    512.393
 69.170    647.000    638.547      8.453    512.480    636.344    512.480    514.714    512.480
 69.270    611.000    608.784      2.216    512.567    606.483    512.567    514.888    512.567
 69.370    549.461    590.915    -41.454    512.653    588.512    512.653    515.070    512.653
 69.470    571.263    580.093     -8.829    512.739    577.581    512.739    515.260    512.739
 69.570    600.000    573.322     26.678    512.825    570.694    512.825    515.460    512.825
 69.670    543.000    568.901    -25.901    512.910    566.146    512.910    515.670    512.910
 69.770    550.000    565.923    -15.923    512.995    563.029    512.995    515.893    512.995
 69.870    564.000    563.928      0.072    513.080    560.881    513.080    516.129    513.080
 69.970    593.000    562.690     30.310    513.164    559.475    513.164    516.381    513.164
 70.070    596.000    562.107     33.893    513.247    558.705    513.247    516.650    513.247
 70.170    587.000    562.146     24.854    513.330    558.537    513.330    516.939    513.330
 70.270    552.000    562.832    -10.832    513.413    558.993    513.413    517.252    513.413
 70.370    597.000    564.276     32.724    513.496    560.179    513.496    517.591    513.496
 70.470    607.793    566.717     41.076    513.577    562.331    513.577    517.960    513.577
 70.570    614.909    570.627     44.282    513.659    565.914    513.659    518.366    513.659
 70.670    617.000    576.879     40.121    513.740    571.797    513.740    518.814    513.740
 70.770    621.013    586.987     34.026    513.820    581.483    513.820    519.312    513.820
 70.870    602.515    603.382     -0.867    513.900    597.392    513.900    519.872    513.900
 70.970    674.709    629.661     45.048    513.979    623.102    513.979    520.510    513.979
 71.070    685.025    670.645     14.380    514.058    663.410    514.058    521.252    514.058
 71.170    749.000    732.051     16.949    514.136    723.989    514.136    522.136    514.136
 71.270    796.000    819.592    -23.592    514.214    810.487    514.214    523.232    514.214
 71.370    952.000    937.464     14.536    514.291    926.987    514.291    524.651    514.291
 71.470   1075.000   1086.392    -11.392    514.368   1074.038    514.368    526.572    514.368
 71.570   1228.000   1261.700    -33.700    514.444   1246.690    514.444    529.273    514.444
 71.670   1473.813   1451.942     21.871    514.519   1433.099    514.519    533.155    514.519
 71.770   1647.496   1638.600      8.896    514.594   1614.207    514.594    538.767    514.594
 71.870   1829.000   1797.433     31.567    514.669   1765.094    514.669    546.789    514.669
 71.970   1944.000   1902.727     41.273    514.742   1859.291    514.742    557.982    514.742
 72.070   1909.000   1935.395    -26.395    514.816   1876.979    514.816    573.071    514.816
 72.170   1930.000   1891.800     38.200    514.888   1813.997    514.888    592.571    514.888
 72.270   1913.000   1785.864    127.136    514.960   1684.166    514.960    616.577    514.960
 72.370   1570.244   1641.950    -71.705    515.031   1512.390    515.031    644.539    515.031
 72.470   1482.000   1485.134     -3.134    515.102   1325.126    515.102    675.079    515.102
 72.570   1391.558   1334.973     56.586    515.172   1144.279    515.172    705.846    515.172
 72.670   1102.000   1203.092   -101.092    515.241    984.817    515.241    733.503    515.241
 72.770   1157.541   1093.229     64.312    515.309    854.505    515.309    754.021    515.309
 72.870   1002.451   1003.182     -0.730    515.377    754.920    515.377    763.626    515.377
 72.970    864.000    928.105    -64.105    515.445    683.239    515.445    760.298    515.445
 73.070    827.192    863.571    -36.379    515.511    634.271    515.511    744.799    515.511
 73.170    830.729    806.903     23.826    515.577    602.222    515.577    720.247    515.577
 73.270    720.430    756.931    -36.501    515.642    581.877    515.642    690.687    515.642
 73.370    724.744    713.308     11.436    515.706    569.166    515.706    659.842    515.706
 73.470    638.236    676.033    -37.796    515.770    561.250    515.770    630.549    515.770
 73.570    616.000    645.154    -29.154    515.833    556.339    515.833    604.646    515.833
 73.670    662.264    620.580     41.684    515.895    553.409    515.895    583.067    515.895
 73.770    575.413    601.966    -26.552    515.956    551.921    515.956    566.005    515.956
 73.870    618.527    588.708     29.819    516.017    551.610    516.017    553.123    516.017
 73.970    565.409    580.008    -14.599    516.077    552.322    516.077    543.775    516.077
 74.070    569.491    574.952     -5.461    516.136    553.905    516.136    537.202    516.136
 74.170    537.189    572.596    -35.407    516.194    556.139    516.194    532.675    516.194
 74.270    596.000    572.003     23.997    516.252    558.706    516.252    529.579    516.252
 74.370    527.720    572.275    -44.555    516.309    561.177    516.309    527.443    516.309
 74.470    585.684    572.576     13.108    516.364    563.050    516.364    525.931    516.364
 74.570    557.005    572.204    -15.199    516.420    563.847    516.420    524.821    516.420
 74.670    587.000    570.717     16.283    516.474    563.265    516.474    523.970    516.474
 74.770    607.000    568.040     38.960    516.527    561.319    516.527    523.291    516.527
 74.870    663.000    564.448     98.552    516.580    558.332    516.580    522.733    516.580
 74.970    596.000    560.419     35.581    516.631    554.819    516.631    522.264    516.631
 75.070    605.000    556.491     48.509    516.682    551.336    516.682    521.863    516.682
 75.170    568.000    553.184     14.816    516.732    548.418    516.732    521.517    516.732
 75.270    583.000    550.987     32.013    516.781    546.564    516.781    521.217    516.781
 75.370    566.000    550.375     15.625    516.830    546.257    516.830    520.956    516.830
 75.470    548.000    551.846     -3.846    516.877    547.998    516.877    520.726    516.877
 75.570    589.027    555.925     33.101    516.923    552.319    516.923    520.525    516.923
 75.670    569.000    563.150      5.850    516.969    559.760    516.969    520.348    516.969
 75.770    592.000    573.983     18.017    517.014    570.787    517.014    520.192    517.014
 75.870    636.776    588.673     48.103    517.057    585.651    517.057    520.054    517.057
 75.970    609.000    607.076      1.924    517.100    604.210    517.100    519.932    517.100
 76.070    615.363    628.487    -13.124    517.142    625.762    517.142    519.824    517.142
 76.170    667.399    651.519     15.880    517.183    648.923    517.183    519.728    517.183
 76.270    654.000    674.086    -20.086    517.223    671.607    517.223    519.643    517.223
 76.370    700.000    693.504      6.496    517.262    691.135    517.262    519.567    517.262
 76.470    718.452    706.848     11.604    517.300    704.583    517.300    519.499    517.300
 76.570    730.263    711.669     18.594    517.337    709.503    517.337    519.439    517.337
 76.670    685.000    706.947    -21.947    517.373    704.876    517.373    519.385    517.373
 76.770    683.000    693.582    -10.582    517.408    691.603    517.408    519.338    517.408
 76.870    627.000    673.949    -46.949    517.443    672.057    517.443    519.295    517.443
 76.970    638.000    650.955    -12.955    517.476    649.143    517.476    519.257    517.476
 77.070    607.046    627.289    -20.243    517.508    625.552    517.508    519.223    517.508
 77.170    584.383    605.052    -20.669    517.539    603.383    517.539    519.192    517.539
 77.270    593.000    585.632      7.368    517.569    584.025    517.569    519.165    517.569
 77.370    584.000    569.711     14.289    517.598    568.161    517.598    519.141    517.598
 77.470    570.000    557.379     12.621    517.626    555.882    517.626    519.119    517.626
 77.570    529.823    548.304    -18.481    517.654    546.856    517.654    519.099    517.654
 77.670    556.000    541.921     14.079    517.680    540.517    517.680    519.082    517.680
 77.770    506.000    537.598    -31.598    517.705    536.235    517.705    519.066    517.705
 77.870    488.592    534.746    -46.155    517.728    533.422    517.728    519.052    517.728
 77.970    504.000    532.873    -28.873    517.751    531.585    517.751    519.039    517.751
 78.070    492.705    531.643    -38.938    517.773    530.388    517.773    519.027    517.773
 78.170    508.000    530.845    -22.845    517.794    529.621    517.794    519.016    517.794
 78.270    536.510    530.306      6.204    517.814    529.112    517.814    519.007    517.814
 78.370    574.423    529.936     44.487    517.832    528.769    517.832    518.998    517.832
 78.470    537.599    529.686      7.913    517.850    528.545    517.850    518.990    517.850
 78.570    538.000    529.537      8.463    517.866    528.420    517.866    518.982    517.866
 78.670    486.354    529.484    -43.130    517.881    528.389    517.881    518.976    517.881
 78.770    510.000    529.537    -19.537    517.896    528.463    517.896    518.970    517.896
 78.870    533.000    529.715      3.285    517.909    528.658    517.909    518.965    517.909
 78.970    488.000    530.043    -42.043    517.921    529.002    517.921    518.961    517.921
 79.070    506.000    530.552    -24.552    517.932    529.524    517.932    518.958    517.932
 79.170    512.459    531.276    -18.816    517.941    530.257    517.941    518.958    517.941
 79.270    530.000    532.244     -2.244    517.950    531.232    517.950    518.960    517.950
 79.370    559.756    533.486     26.270    517.957    532.475    517.957    518.966    517.957
 79.470    513.000    535.028    -22.028    517.964    534.011    517.964    518.977    517.964
 79.570    536.000    536.900     -0.900    517.969    535.870    517.969    518.995    517.969
 79.670    514.000    539.149    -25.149    517.973    538.097    517.973    519.020    517.973
 79.770    530.000    541.855    -11.855    517.976    540.772    517.976    519.053    517.976
 79.870    533.000    545.157    -12.157    517.977    544.033    517.977    519.095    517.977
 79.970    530.532    549.276    -18.744    517.978    548.101    517.978    519.147    517.978
 80.070    584.204    554.545     29.659    517.977    553.311    517.977    519.207    517.977
 80.170    551.000    561.406    -10.406    517.976    560.106    517.976    519.272    517.976
 80.270    537.000    570.363    -33.363    517.973    568.994    517.973    519.340    517.973
 80.370    572.973    581.879     -8.906    517.968    580.444    517.968    519.405    517.968
 80.470    566.000    596.257    -30.257    517.963    594.765    517.963    519.459    517.963
 80.570    586.000    613.526    -27.526    517.956    611.995    517.956    519.497    517.956
 80.670    625.000    633.353     -8.353    517.949    631.806    517.949    519.509    517.949
 80.770    630.000    655.000    -25.000    517.940    653.466    517.940    519.492    517.940
 80.870    676.082    677.345     -1.263    517.930    675.854    517.930    519.446    517.930
 80.970    738.000    699.005     38.995    517.918    697.580    517.918    519.375    517.918
 81.070    763.299    718.532     44.768    517.906    717.190    517.906    519.286    517.906
 81.170    775.691    734.605     41.086    517.892    733.355    517.892    519.186    517.892
 81.270    762.000    746.154     15.846    517.877    744.999    517.877    519.084    517.877
 81.370    778.000    752.446     25.554    517.860    751.381    517.860    518.983    517.860
 81.470    815.000    753.164     61.836    517.843    752.182    517.843    518.887    517.843
 81.570    767.000    748.430     18.570    517.824    747.520    517.824    518.799    517.824
 81.670    784.165    738.749     45.417    517.804    737.900    517.804    518.720    517.804
 81.770    721.000    724.985     -3.985    517.783    724.186    517.783    518.650    517.783
 81.870    735.000    708.328     26.672    517.760    707.568    517.760    518.588    517.760
 81.970    726.000    690.122     35.878    517.737    689.392    517.737    518.532    517.737
 82.070    690.520    671.591     18.930    517.712    670.882    517.712    518.482    517.712
 82.170    677.008    653.610     23.398    517.685    652.918    517.685    518.437    517.685
 82.270    600.000    636.665    -36.665    517.658    635.983    517.658    518.394    517.658
 82.370    595.000    620.952    -25.952    517.629    620.277    517.629    518.354    517.629
 82.470    607.911    606.560      1.351    517.599    605.889    517.599    518.315    517.599
 82.570    606.808    593.594     13.213    517.568    592.925    517.568    518.276    517.568
 82.670    556.999    582.209    -25.210    517.535    581.540    517.535    518.237    517.535
 82.770    552.000    572.571    -20.571    517.501    571.900    517.501    518.198    517.501
 82.870    593.000    564.832     28.168    517.466    564.158    517.466    518.158    517.466
 82.970    567.000    559.104      7.896    517.430    558.427    517.430    518.118    517.430
 83.070    598.000    555.452     42.548    517.392    554.771    517.392    518.077    517.392
 83.170    518.000    553.870    -35.870    517.353    553.184    517.353    518.036    517.353
 83.270    566.000    554.261     11.739    517.313    553.570    517.313    517.993    517.313
 83.370    561.119    556.417      4.702    517.271    555.721    517.271    517.949    517.271
 83.470    522.000    560.007    -38.007    517.228    559.305    517.228    517.905    517.228
 83.570    554.477    564.574    -10.097    517.184    563.867    517.184    517.859    517.184
 83.670    539.000    569.551    -30.551    517.139    568.839    517.139    517.813    517.139
 83.770    622.634    574.289     48.345    517.092    573.573    517.092    517.765    517.092
 83.870    550.768    578.108    -27.340    517.044    577.390    517.044    517.717    517.044
 83.970    566.000    580.387    -14.387    516.994    579.668    516.994    517.667    516.994
 84.070    548.000    580.692    -32.692    516.944    579.974    516.944    517.617    516.944
 84.170    592.000    578.893     13.107    516.892    578.177    516.892    517.565    516.892
 84.270    554.000    575.195    -21.195    516.838    574.482    516.838    517.512    516.838
 84.370    587.000    570.056     16.944    516.784    569.348    516.784    517.459    516.784
 84.470    562.000    564.047     -2.047    516.728    563.342    516.728    517.404    516.728
 84.570    561.000    557.726      3.274    516.671    557.026    516.671    517.348    516.671
 84.670    545.645    551.575     -5.930    516.612    550.878    516.612    517.291    516.612
 84.770    539.000    545.953     -6.953    516.552    545.258    516.552    517.233    516.552
 84.870    511.000    541.090    -30.090    516.491    540.396    516.491    517.174    516.491
 84.970    491.004    537.094    -46.089    516.428    536.400    516.428    517.114    516.428
 85.070    494.000    533.966    -39.966    516.365    533.272    516.365    517.052    516.365
 85.170    516.000    531.639    -15.639    516.299    530.943    516.299    516.990    516.299
 85.270    547.000    530.002     16.998    516.233    529.303    516.233    516.927    516.233
 85.370    503.000    528.934    -25.934    516.165    528.233    516.165    516.862    516.165
 85.470    513.000    528.327    -15.327    516.096    527.622    516.096    516.797    516.096
 85.570    544.188    528.099     16.088    516.026    527.390    516.026    516.730    516.026
 85.670    487.000    528.205    -41.205    515.954    527.491    515.954    516.662    515.954
 85.770    514.000    528.640    -14.640    515.881    527.921    515.881    516.594    515.881
 85.870    521.000    529.446     -8.446    515.806    528.721    515.806    516.524    515.806
 85.970    517.000    530.706    -13.706    515.731    529.974    515.731    516.453    515.731
 86.070    487.796    532.551    -44.755    515.653    531.811    515.653    516.381    515.653
 86.170    508.000    535.147    -27.147    515.575    534.398    515.575    516.309    515.575
 86.270    503.000    538.688    -35.688    515.495    537.929    515.495    516.235    515.495
 86.370    583.000    543.374     39.626    515.414    542.602    515.414    516.160    515.414
 86.470    539.000    549.370    -10.370    515.332    548.584    515.332    516.084    515.332
 86.570    538.569    556.808    -18.239    515.248    556.006    515.248    516.007    515.248
 86.670    520.156    565.704    -45.548    515.163    564.884    515.163    515.929    515.163
 86.770    551.364    575.912    -24.548    515.077    575.073    515.077    515.851    515.077
 86.870    586.000    587.112     -1.112    514.989    586.254    514.989    515.770    514.989
 86.970    549.864    598.787    -48.923    514.900    597.909    514.900    515.689    514.900
 87.070    625.355    610.227     15.128    514.810    609.328    514.810    515.607    514.810
 87.170    621.000    620.557      0.443    514.718    619.640    514.718    515.525    514.718
 87.270    634.000    628.826      5.174    514.625    627.894    514.625    515.441    514.625
 87.370    603.000    634.153    -31.153    514.531    633.209    514.531    515.357    514.531
 87.470    699.000    635.927     63.073    514.435    634.975    514.435    515.272    514.435
 87.570    670.000    633.991     36.009    514.338    633.035    514.338    515.187    514.338
 87.670    623.000    628.687     -5.687    514.240    627.730    514.240    515.100    514.240
 87.770    633.416    620.749     12.667    514.141    619.792    514.141    515.013    514.141
 87.870    595.544    611.121    -15.577    514.040    610.165    514.040    514.925    514.040
 87.970    608.000    600.804      7.196    513.938    599.848    513.938    514.837    513.938
 88.070    653.000    590.740     62.260    513.834    589.783    513.834    514.748    513.834
 88.170    617.000    581.746     35.254    513.730    580.785    513.730    514.658    513.730
 88.270    572.093    574.461     -2.368    513.623    573.495    513.623    514.568    513.623
 88.370    616.000    569.326     46.674    513.516    568.353    513.516    514.478    513.516
 88.470    596.000    566.571     29.429    513.407    565.589    513.407    514.387    513.407
 88.570    528.256    566.225    -37.969    513.297    565.233    513.297    514.295    513.297
 88.670    533.124    568.127    -35.003    513.186    567.123    513.186    514.204    513.186
 88.770    622.345    571.947     50.397    513.074    570.930    513.074    514.112    513.074
 88.870    624.703    577.207     47.497    512.960    576.175    512.960    514.020    512.960
 88.970    612.000    583.305     28.695    512.845    582.258    512.845    513.929    512.845
 89.070    584.577    589.552     -4.975    512.728    588.487    512.728    513.837    512.728
 89.170    596.883    595.203      1.680    512.611    594.118    512.611    513.746    512.611
 89.270    646.928    599.527     47.401    512.492    598.421    512.492    513.654    512.492
 89.370    620.000    601.902     18.098    512.371    600.770    512.371    513.564    512.371
 89.470    635.000    601.927     33.073    512.250    600.766    512.250    513.474    512.250
 89.570    612.193    599.520     12.673    512.127    598.325    512.127    513.385    512.127
 89.670    563.000    594.923    -31.923    512.003    593.690    512.003    513.297    512.003
 89.770    575.000    588.617    -13.617    511.878    587.342    511.878    513.210    511.878
 89.870    588.603    581.200      7.404    511.751    579.878    511.751    513.125    511.751
 89.970    565.000    573.270     -8.270    511.623    571.898    511.623    513.042    511.623
 90.070    549.000    565.364    -16.364    511.494    563.937    511.494    512.960    511.494
 90.170    548.000    557.911     -9.911    511.364    556.425    511.364    512.882    511.364
 90.270    525.000    551.218    -26.218    511.233    549.670    511.233    512.806    511.233
 90.370    496.000    545.471    -49.471    511.100    543.856    511.100    512.734    511.100
 90.470    565.000    540.744     24.256    510.966    539.058    510.966    512.666    510.966
 90.570    563.474    537.020     26.454    510.831    535.257    510.831    512.604    510.831
 90.670    531.000    534.215     -3.215    510.694    532.369    510.694    512.548    510.694
 90.770    541.000    532.177      8.823    510.556    530.241    510.556    512.498    510.556
 90.870    533.000    530.850      2.150    510.418    528.811    510.418    512.459    510.418
 90.970    552.000    530.110     21.890    510.277    527.952    510.277    512.436    510.277
 91.070    525.000    529.851     -4.851    510.136    527.556    510.136    512.431    510.136
 91.170    503.000    530.017    -27.017    509.994    527.558    509.994    512.452    509.994
 91.270    553.000    530.598     22.402    509.850    527.939    509.850    512.507    509.850
 91.370    568.559    531.632     36.927    509.705    528.726    509.705    512.608    509.705
 91.470    490.075    533.200    -43.125    509.559    529.982    509.559    512.772    509.559
 91.570    516.911    535.432    -18.521    509.412    531.818    509.412    513.019    509.412
 91.670    538.419    538.507     -0.088    509.263    534.387    509.263    513.376    509.263
 91.770    547.000    542.645      4.355    509.114    537.877    509.114    513.872    509.114
 91.870    535.000    548.101    -13.101    508.963    542.507    508.963    514.544    508.963
 91.970    578.000    555.141     22.859    508.811    548.506    508.811    515.429    508.811
 92.070    591.335    564.029     27.306    508.658    556.095    508.658    516.570    508.658
 92.170    547.000    574.989    -27.989    508.504    565.463    508.504    518.003    508.504
 92.270    567.407    588.179    -20.772    508.349    576.735    508.349    519.760    508.349
 92.370    612.000    603.658      8.342    508.192    589.948    508.192    521.862    508.192
 92.470    593.000    621.349    -28.349    508.035    605.022    508.035    524.314    508.035
 92.570    612.890    641.018    -28.128    507.876    621.740    507.876    527.100    507.876
 92.670    651.000    662.266    -11.266    507.716    639.744    507.716    530.177    507.716
 92.770    655.083    684.520    -29.437    507.555    658.534    507.555    533.473    507.555
 92.870    762.332    707.036     55.295    507.393    677.474    507.393    536.882    507.393
 92.970    747.000    728.972     18.028    507.230    695.862    507.230    540.262    507.230
 93.070    765.994    749.481     16.513    507.066    713.028    507.066    543.437    507.066
 93.170    799.213    767.844     31.369    506.901    728.462    506.901    546.199    506.901
 93.270    820.847    783.593     37.255    506.735    741.920    506.735    548.325    506.735
 93.370    807.000    796.559     10.441    506.568    753.435    506.568    549.609    506.568
 93.470    791.000    806.841    -15.841    506.399    763.256    506.399    549.905    506.399
 93.570    817.000    814.740      2.260    506.230    771.730    506.230    549.163    506.230
 93.670    759.794    820.699    -60.904    506.059    779.236    506.059    547.448    506.059
 93.770    820.000    825.282     -5.282    505.888    786.181    505.888    544.918    505.888
 93.870    787.312    829.176    -41.864    505.716    793.039    505.716    541.784    505.716
 93.970    810.209    833.153    -22.944    505.542    800.361    505.542    538.268    505.542
 94.070    880.491    837.971     42.520    505.368    808.700    505.368    534.575    505.368
 94.170    886.000    844.190     41.810    505.192    818.443    505.192    530.877    505.192
 94.270    861.342    852.000      9.342    505.016    829.645    505.016    527.310    505.016
 94.370    822.768    861.100    -38.332    504.838    841.905    504.838    523.976    504.838
 94.470    852.108    870.683    -18.575    504.660    854.348    504.660    520.942    504.660
 94.570    834.198    879.492    -45.294    504.481    865.678    504.481    518.246    504.481
 94.670    872.000    885.972    -13.972    504.301    874.328    504.301    515.901    504.301
 94.770    947.000    888.492     58.508    504.119    878.675    504.119    513.901    504.119
 94.870    867.000    885.659    -18.659    503.937    877.346    503.937    512.223    503.937
 94.970    925.000    876.636     48.364    503.754    869.539    503.754    510.833    503.754
 95.070    955.000    861.365     93.635    503.570    855.232    503.570    509.693    503.570
 95.170    802.274    840.580    -38.306    503.386    835.200    503.386    508.764    503.386
 95.270    806.000    815.694     -9.694    503.200    810.892    503.200    508.006    503.200
 95.370    808.000    788.467     19.533    503.013    784.103    503.013    507.385    503.013
 95.470    742.000    760.815    -18.815    502.826    756.780    502.826    506.871    502.826
 95.570    815.000    734.651     80.349    502.638    730.859    502.638    506.439    502.638
 95.670    719.409    711.768      7.641    502.449    708.155    502.449    506.070    502.449
 95.770    665.231    693.789    -28.558    502.259    690.304    502.259    505.748    502.259
 95.870    689.000    682.133      6.867    502.068    678.739    502.068    505.461    502.068
 95.970    685.000    678.012      6.988    501.876    674.679    501.876    505.201    501.876
 96.070    717.425    682.441     34.984    501.684    679.146    501.684    504.962    501.684
 96.170    697.000    696.246      0.754    501.491    692.971    501.491    504.741    501.491
 96.270    710.000    720.037    -10.037    501.297    716.765    501.297    504.533    501.297
 96.370    755.000    754.174      0.826    501.102    750.891    501.102    504.337    501.102
 96.470    779.531    798.689    -19.158    500.907    795.384    500.907    504.152    500.907
 96.570    843.000    853.186    -10.186    500.711    849.848    500.711    503.977    500.711
 96.670    955.732    916.732     39.000    500.514    913.351    500.514    503.811    500.514
 96.770    970.000    987.757    -17.757    500.316    984.326    500.316    503.654    500.316
 96.870   1024.000   1063.998    -39.998    500.118   1060.508    500.118    503.506    500.118
 96.970   1203.000   1142.476     60.524    499.919   1138.921    499.919    503.368    499.919
 97.070   1234.269   1219.544     14.725    499.719   1215.917    499.719    503.239    499.719
 97.170   1328.723   1291.014     37.709    499.519   1287.310    499.519    503.119    499.519
 97.270   1362.000   1352.410      9.590    499.318   1348.623    499.318    503.010    499.318
 97.370   1414.320   1399.395     14.924    499.116   1395.519    499.116    502.911    499.116
 97.470   1467.720   1428.376     39.344    498.914   1424.403    498.914    502.824    498.914
 97.570   1445.000   1437.149      7.851    498.711   1433.069    498.711    502.749    498.711
 97.670   1405.000   1425.349    -20.349    498.508   1421.148    498.508    502.689    498.508
 97.770   1358.000   1394.461    -36.461    498.304   1390.122    498.304    502.643    498.304
 97.870   1359.000   1347.436     11.564    498.099   1342.940    498.099    502.615    498.099
 97.970   1302.886   1288.113     14.773    497.894   1283.434    497.894    502.608    497.894
 98.070   1201.000   1220.683    -19.683    497.688   1215.792    497.688    502.624    497.688
 98.170   1191.820   1149.306     42.513    497.482   1144.171    497.482    502.669    497.482
 98.270   1045.000   1077.865    -32.865    497.275   1072.443    497.275    502.751    497.275
 98.370   1019.206   1009.802      9.404    497.068   1004.044    497.068    502.879    497.068
 98.470    955.000    948.047      6.953    496.861    941.890    496.861    503.066    496.861
 98.570    949.175    894.992     54.183    496.652    888.356    496.652    503.331    496.652
 98.670    850.000    852.516     -2.516    496.444    845.296    496.444    503.697    496.444
 98.770    811.000    822.029    -11.029    496.235    814.090    496.235    504.197    496.235
 98.870    819.000    804.596     14.404    496.025    795.761    496.025    504.873    496.025
 98.970    756.000    800.962    -44.962    495.815    791.005    495.815    505.777    495.815
 99.070    760.086    811.641    -51.555    495.605    800.266    495.605    506.974    495.605
 99.170    811.000    836.954    -25.954    495.394    823.792    495.394    508.543    495.394
 99.270    854.112    877.033    -22.921    495.183    861.622    495.183    510.573    495.183
 99.370    972.000    931.767     40.233    494.972    913.545    494.972    513.168    494.972
 99.470   1044.000   1000.731     43.269    494.760    979.023    494.760    516.438    494.760
 99.570   1140.000   1083.085     56.915    494.548   1057.107    494.548    520.495    494.548
 99.670   1215.000   1177.472     37.528    494.336   1146.330    494.336    525.450    494.336
 99.770   1245.000   1281.921    -36.921    494.123   1244.626    494.123    531.396    494.123
 99.870   1390.000   1393.778     -3.778    493.911   1349.271    493.911    538.405    493.911
 99.970   1493.000   1509.686    -16.686    493.697   1456.874    493.697    546.511    493.697
100.070   1673.000   1625.654     47.346    493.484   1563.456    493.484    555.702    493.484
100.170   1755.000   1737.246     17.754    493.271   1664.653    493.271    565.905    493.271
100.270   1821.342   1839.908    -18.566    493.057   1756.052    493.057    576.979    493.057
100.370   1964.000   1929.373     34.627    492.843   1833.602    492.843    588.707    492.843
100.470   1977.000   2002.005    -25.005    492.629   1893.963    492.629    600.788    492.629
100.570   2201.000   2054.969    146.031    492.415   1934.686    492.415    612.840    492.415
100.670   2168.217   2086.233     81.984    492.200   1954.204    492.200    624.393    492.200
100.770   2035.000   2094.530    -59.530    491.986   1951.789    491.986    634.909    491.986
100.870   2064.000   2079.467    -15.467    491.771   1927.635    491.771    643.798    491.771
100.970   2055.000   2041.791     13.209    491.557   1883.075    491.557    650.476    491.557
101.070   2101.000   1983.648    117.352    491.342   1820.759    491.342    654.439    491.342
101.170   1978.000   1908.609     69.391    491.128   1744.592    491.128    655.349    491.128
101.270   1828.000   1821.356      6.644    490.913   1659.354    490.913    653.113    490.913
101.370   1744.000   1727.128     16.872    490.698   1570.114    490.698    647.899    490.698
101.470   1586.282   1631.108    -44.826    490.484   1481.664    490.484    640.101    490.484
101.570   1449.000   1537.929    -88.929    490.269   1398.098    490.269    630.258    490.269
101.670   1458.567   1451.333      7.234    490.055   1322.567    490.055    618.962    490.055
101.770   1296.731   1374.002    -77.271    489.840   1257.175    489.840    606.793    489.840
101.870   1350.256   1307.494     42.762    489.626   1202.959    489.626    594.272    489.626
101.970   1281.940   1252.278     29.663    489.412   1159.945    489.412    581.843    489.412
102.070   1203.134   1207.822     -4.687    489.198   1127.243    489.198    569.865    489.198
102.170   1191.615   1172.736     18.878    488.984   1103.188    488.984    558.614    488.984
102.270   1073.000   1144.960    -71.960    488.770   1085.524    488.770    548.283    488.770
102.370   1057.000   1121.991    -64.991    488.556   1071.630    488.556    538.993    488.556
102.470   1151.980   1101.175     50.804    488.343   1058.796    488.343    530.798    488.343
102.570   1021.510   1080.023    -58.513    488.130   1044.534    488.130    523.695    488.130
102.670   1063.617   1056.532      7.084    487.917   1026.889    487.917    517.638    487.917
102.770   1031.523   1029.426      2.097    487.705   1004.662    487.705    512.548    487.705
102.870   1050.790    998.232     52.559    487.493    977.480    487.493    508.325    487.493
102.970    969.000    963.199      5.801    487.281    945.703    487.281    504.857    487.281
103.070    933.000    925.103      7.897    487.069    910.218    487.069    502.031    487.069
103.170    885.233    885.020      0.213    486.858    872.212    486.858    499.740    486.858
103.270    804.000    844.145    -40.145    486.648    832.978    486.648    497.883    486.648
103.370    880.000    803.653     76.347    486.437    793.779    486.437    496.374    486.437
103.470    785.430    764.604     20.826    486.228    755.750    486.228    495.138    486.228
103.570    701.164    727.887    -26.723    486.018    719.846    486.018    494.110    486.018
103.670    720.000    694.195     25.805    485.809    686.799    485.809    493.249    485.809
103.770    700.745    663.975     36.771    485.601    657.100    485.601    492.512    485.601
103.870    661.000    637.475     23.525    485.393    631.028    485.393    491.871    485.393
103.970    623.000    614.730      8.270    485.186    608.640    485.186    491.301    485.186
104.070    617.000    595.606     21.394    484.979    589.818    484.979    490.788    484.979
104.170    569.817    579.849    -10.032    484.773    574.320    484.773    490.318    484.773
104.270    550.000    567.116    -17.116    484.568    561.815    484.568    489.881    484.568
104.370    546.000    557.016    -11.016    484.363    551.924    484.363    489.464    484.363
104.470    576.944    549.177     27.766    484.159    544.264    484.159    489.079    484.159
104.570    597.000    543.219     53.781    483.956    538.464    483.956    488.715    483.956
104.670    549.000    538.807     10.193    483.753    534.194    483.753    488.368    483.753
104.770    553.000    535.658     17.342    483.551    531.172    483.551    488.037    483.551
104.870    526.953    533.543     -6.590    483.350    529.172    483.350    487.720    483.350
104.970    574.000    532.292     41.708    483.150    528.024    483.150    487.415    483.150
105.070    549.000    531.786     17.214    482.950    527.611    482.950    487.121    482.950
105.170    537.000    531.961      5.039    482.751    527.869    482.751    486.839    482.751
105.270    544.000    532.796     11.204    482.554    528.778    482.554    486.566    482.554
105.370    516.000    534.312    -18.312    482.357    530.358    482.357    486.302    482.357
105.470    532.000    536.563     -4.563    482.161    532.666    482.161    486.047    482.161
105.570    529.000    539.633    -10.633    481.966    535.786    481.966    485.800    481.966
105.670    581.000    543.622     37.378    481.772    539.818    481.772    485.562    481.772
105.770    531.742    548.636    -16.894    481.579    544.867    481.579    485.330    481.579
105.870    545.000    554.768     -9.768    481.387    551.030    481.387    485.106    481.387
105.970    562.000    562.092     -0.092    481.196    558.377    481.196    484.888    481.196
106.070    576.000    570.636      5.364    481.006    566.939    481.006    484.677    481.006
106.170    608.778    580.381     28.396    480.818    576.697    480.818    484.473    480.818
106.270    573.725    591.243    -17.518    480.630    587.566    480.630    484.275    480.630
106.370    593.000    603.068    -10.068    480.444    599.393    480.444    484.083    480.444
106.470    582.098    615.634    -33.536    480.259    611.956    480.259    483.897    480.259
106.570    607.000    628.646    -21.646    480.075    624.962    480.075    483.716    480.075
106.670    652.877    641.752     11.125    479.892    638.057    479.892    483.542    479.892
106.770    659.514    654.547      4.967    479.711    650.838    479.711    483.373    479.711
106.870    612.000    666.600    -54.600    479.530    662.873    479.530    483.211    479.530
106.970    645.635    677.472    -31.837    479.352    673.724    479.352    483.053    479.352
107.070    653.000    686.765    -33.765    479.174    682.992    479.174    482.902    479.174
107.170    660.000    694.165    -34.165    478.998    690.363    478.998    482.757    478.998
107.270    701.437    699.495      1.942    478.824    695.661    478.824    482.617    478.824
107.370    668.364    702.756    -34.391    478.651    698.886    478.651    482.483    478.651
107.470    696.000    704.133     -8.133    478.479    700.223    478.479    482.355    478.479
107.570    648.000    703.968    -55.968    478.309    700.013    478.309    482.234    478.309
107.670    692.000    702.703    -10.703    478.141    698.699    478.141    482.118    478.141
107.770    726.624    700.813     25.811    477.974    696.756    477.974    482.009    477.974
107.870    703.000    698.747      4.253    477.808    694.632    477.808    481.907    477.808
107.970    691.000    696.880     -5.880    477.644    692.701    477.644    481.811    477.644
108.070    705.000    695.483      9.517    477.482    691.234    477.482    481.722    477.482
108.170    644.000    694.702    -50.702    477.322    690.379    477.322    481.641    477.322
108.270    680.000    694.554    -14.554    477.163    690.150    477.163    481.566    477.163
108.370    693.402    694.921     -1.519    477.007    690.430    477.007    481.500    477.007
108.470    735.427    695.565     39.862    476.851    690.981    476.851    481.441    476.851
108.570    687.000    696.146     -9.146    476.698    691.462    476.698    481.391    476.698
108.670    653.680    696.254    -42.574    476.547    691.464    476.547    481.349    476.547
108.770    693.000    695.458     -2.458    476.397    690.554    476.397    481.316    476.397
108.870    739.536    693.361     46.175    476.250    688.335    476.250    481.293    476.250
108.970    641.000    689.659    -48.659    476.104    684.503    476.104    481.280    476.104
109.070    687.000    684.191      2.809    475.960    678.896    475.960    481.277    475.960
109.170    621.000    676.954    -55.954    475.819    671.510    475.819    481.285    475.819
109.270    703.857    668.077     35.781    475.679    662.474    475.679    481.304    475.679
109.370    670.000    657.854     12.146    475.542    652.082    475.542    481.336    475.542
109.470    666.947    646.645     20.303    475.406    640.692    475.406    481.381    475.406
109.570    623.000    634.799    -11.799    475.273    628.654    475.273    481.439    475.273
109.670    598.025    622.687    -24.662    475.142    616.336    475.142    481.513    475.142
109.770    584.703    610.657    -25.954    475.013    604.086    475.013    481.601    475.013
109.870    608.363    599.019      9.343    474.887    592.214    474.887    481.707    474.887
109.970    591.000    588.036      2.964    474.762    580.981    474.762    481.831    474.762
110.070    596.971    577.917     19.054    474.640    570.593    474.640    481.975    474.640
110.170    602.000    568.814     33.186    474.521    561.203    474.521    482.141    474.521
110.270    611.000    560.823     50.177    474.403    552.903    474.403    482.331    474.403
110.370    597.307    553.990     43.317    474.289    545.736    474.289    482.548    474.289
110.470    561.000    548.313     12.687    474.176    539.698    474.176    482.795    474.176
110.570    595.000    543.754     51.246    474.066    534.746    474.066    483.077    474.066
110.670    572.000    540.249     31.751    473.959    530.808    473.959    483.400    473.959
110.770    568.322    537.712     30.610    473.854    527.794    473.854    483.771    473.854
110.870    549.000    536.048     12.952    473.752    525.599    473.752    484.200    473.752
110.970    508.000    535.164    -27.164    473.653    524.116    473.653    484.697    473.653
111.070    553.000    534.967     18.033    473.556    523.238    473.556    485.280    473.556
111.170    510.000    535.375    -25.375    473.462    522.865    473.462    485.966    473.462
111.270    500.728    536.323    -35.594    473.370    522.906    473.370    486.781    473.370
111.370    555.000    537.757     17.243    473.282    523.278    473.282    487.754    473.282
111.470    525.006    539.646    -14.641    473.196    523.911    473.196    488.924    473.196
111.570    563.727    541.977     21.750    473.113    524.747    473.113    490.335    473.113
111.670    577.000    544.757     32.243    473.033    525.737    473.033    492.043    473.033
111.770    544.913    548.014     -3.101    472.956    526.846    472.956    494.114    472.956
111.870    564.000    551.799     12.201    472.882    528.049    472.882    496.622    472.882
111.970    567.000    556.185     10.815    472.811    529.330    472.811    499.655    472.811
112.070    586.000    561.267     24.733    472.743    530.687    472.743    503.312    472.743
112.170    506.000    567.157    -61.157    472.678    532.125    472.678    507.699    472.678
112.270    550.000    573.988    -23.988    472.616    533.660    472.616    512.932    472.616
112.370    549.000    581.905    -32.905    472.557    535.316    472.557    519.134    472.557
112.470    604.000    591.060     12.940    472.502    537.124    472.502    526.425    472.502
112.570    650.000    601.613     48.387    472.449    539.123    472.449    534.926    472.449
112.670    605.000    613.723     -8.723    472.400    541.363    472.400    544.747    472.400
112.770    600.138    627.547    -27.409    472.355    543.906    472.355    555.980    472.355
112.870    651.000    643.234      7.766    472.313    546.832    472.313    568.698    472.313
112.970    677.000    660.926     16.074    472.274    550.244    472.274    582.938    472.274
113.070    680.664    680.759     -0.096    472.238    554.276    472.238    598.702    472.238
113.170    692.000    702.864    -10.864    472.207    559.107    472.207    615.942    472.207
113.270    715.000    727.373    -12.373    472.178    564.969    472.178    634.559    472.178
113.370    754.222    754.437     -0.215    472.153    572.171    472.153    654.394    472.153
113.470    729.732    784.234    -54.502    472.132    581.114    472.132    675.222    472.132
113.570    825.000    816.991      8.009    472.115    592.317    472.115    696.756    472.115
113.670    807.838    853.012    -45.174    472.101    606.441    472.101    718.633    472.101
113.770    961.000    892.700     68.300    472.091    624.320    472.091    740.426    472.091
113.870    913.517    936.593    -23.076    472.084    646.987    472.084    761.637    472.084
113.970   1046.645    985.392     61.253    472.082    675.705    472.082    781.707    472.082
114.070   1028.000   1039.999    -11.999    472.083    711.980    472.083    800.028    472.083
114.170   1077.000   1101.556    -24.556    472.089    757.587    472.089    815.969    472.089
114.270   1205.258   1171.480     33.778    472.098    814.564    472.098    828.908    472.098
114.370   1257.000   1251.500      5.500    472.111    885.197    472.111    838.288    472.111
114.470   1319.000   1343.679    -24.679    472.128    971.989    472.128    843.666    472.128
114.570   1485.000   1450.405     34.595    472.150   1077.595    472.150    844.779    472.150
114.670   1589.014   1574.341     14.673    472.175   1204.733    472.175    841.568    472.175
114.770   1703.696   1718.313    -14.617    472.205   1356.066    472.205    834.198    472.205
114.870   1848.000   1885.138    -37.138    472.239   1534.053    472.239    823.027    472.239
114.970   2171.000   2077.405     93.595    472.277   1740.777    472.277    808.561    472.277
115.070   2261.000   2297.221    -36.221    472.319   1977.749    472.319    791.397    472.319
115.170   2624.000   2545.963     78.037    472.366   2245.714    472.366    772.167    472.366
115.270   2923.000   2824.029     98.971    472.417   2544.447    472.417    751.496    472.417
115.370   3232.165   3130.630    101.535    472.472   2872.577    472.472    729.970    472.472
115.470   3367.573   3463.627    -96.054    472.532   3227.436    472.532    708.118    472.532
115.570   3698.000   3819.414   -121.414    472.597   3604.957    472.597    686.404    472.597
115.670   4103.000   4192.873    -89.873    472.666   3999.628    472.666    665.223    472.666
115.770   4669.482   4577.386     92.096    472.740   4404.508    472.740    644.901    472.740
115.870   4802.000   4964.923   -162.923    472.818   4811.315    472.818    625.694    472.818
115.970   5292.000   5346.210    -54.210    472.902   5210.585    472.902    607.792    472.902
116.070   5461.000   5710.966   -249.966    472.990   5591.909    472.990    591.326    472.990
116.170   6126.000   6048.230     77.770    473.082   5944.256    473.082    576.367    473.082
116.270   6375.000   6346.796     28.204    473.180   6256.398    473.180    562.938    473.180
116.370   6579.000   6595.788    -16.788    473.282   6517.478    473.282    551.018    473.282
116.470   6751.733   6785.381    -33.648    473.390   6717.727    473.390    540.553    473.390
116.570   6950.000   6907.498     42.502    473.502   6849.146    473.502    531.458    473.502
116.670   6976.000   6956.637     19.363    473.620   6906.336    473.620    523.632    473.620
116.770   6814.203   6930.455   -116.251    473.742   6887.060    473.742    516.959    473.742
116.870   6788.359   6830.015    -41.655    473.870   6792.501    473.870    511.317    473.870
116.970   6564.796   6659.647    -94.851    474.003   6627.105    474.003    506.584    474.003
117.070   6564.930   6426.439    138.490    474.141   6398.075    474.141    502.641    474.141
117.170   6094.000   6139.514    -45.514    474.285   6114.642    474.285    499.377    474.285
117.270   5692.713   5809.248   -116.535    474.433   5787.283    474.433    496.688    474.433
117.370   5155.000   5446.560   -291.560    474.588   5427.009    474.588    494.481    474.588
117.470   5052.270   5062.319    -10.049    474.747   5044.771    474.747    492.676    474.747
117.570   4672.000   4666.886      5.114    474.912   4651.000    474.912    491.202    474.912
117.670   4290.000   4269.764     20.236    475.083   4255.261    475.083    489.999    475.083
117.770   3935.000   3879.345     55.655    475.259   3865.996    475.259    489.016    475.259
117.870   3660.000   3502.733    157.267    475.441   3490.355    475.441    488.213    475.441
117.970   3241.393   3145.659     95.734    475.629   3134.103    475.629    487.555    475.629
118.070   2975.000   2812.451    162.549    475.822   2801.597    475.822    487.016    475.822
118.170   2611.000   2506.081    104.919    476.021   2495.836    476.021    486.574    476.021
118.270   2214.822   2228.269    -13.447    476.226   2218.555    476.226    486.212    476.226
118.370   1984.598   1979.618      4.980    476.437   1970.374    476.437    485.916    476.437
118.470   1751.000   1759.783     -8.783    476.654   1750.960    476.654    485.676    476.654
118.570   1530.000   1567.652    -37.652    476.877   1559.211    476.877    485.483    476.877
118.670   1378.000   1401.529    -23.529    477.106   1393.436    477.106    485.333    477.106
118.770   1199.000   1259.308    -60.308    477.341   1251.537    477.341    485.218    477.341
118.870   1127.000   1138.640    -11.640    477.582   1131.169    477.582    485.137    477.582
118.970   1041.000   1037.076      3.924    477.830   1029.883    477.830    485.085    477.830
119.070    930.025    952.182    -22.157    478.083    945.250    478.083    485.061    478.083
119.170    910.195    881.631     28.564    478.344    874.945    478.344    485.063    478.344
119.270    859.313    823.272     36.041    478.610    816.816    478.610    485.088    478.610
119.370    784.000    775.163      8.837    478.883    768.924    478.883    485.137    478.883
119.470    743.000    735.597      7.403    479.162    729.561    479.162    485.208    479.162
119.570    627.000    703.101    -76.101    479.448    697.254    479.448    485.301    479.448
119.670    645.000    676.426    -31.426    479.741    670.755    479.741    485.415    479.741
119.770    665.000    654.529     10.471    480.040    649.021    480.040    485.550    480.040
119.870    642.000    636.554      5.446    480.346    631.195    480.346    485.706    480.346
119.970    658.116    621.804     36.312    480.658    616.580    480.658    485.883    480.658
120.070    642.336    609.716     32.620    480.978    604.613    480.978    486.082    480.978
120.170    635.000    599.844     35.156    481.304    594.847    481.304    486.303    481.304
120.270    558.709    591.832    -33.124    481.638    586.926    481.638    486.546    481.638
120.370    565.000    585.402    -20.402    481.978    580.569    481.978    486.813    481.978
120.470    556.000    580.335    -24.335    482.325    575.559    482.325    487.104    482.325
120.570    586.812    576.460     10.352    482.680    571.723    482.680    487.420    482.680
120.670    550.000    573.645    -23.645    483.042    568.928    483.042    487.763    483.042
120.770    553.000    571.788    -18.788    483.410    567.069    483.410    488.133    483.410
120.870    548.743    570.807    -22.064    483.787    566.066    483.787    488.532    483.787
120.970    560.000    570.637    -10.637    484.170    565.852    484.170    488.960    484.170
121.070    584.651    571.225     13.426    484.561    566.373    484.561    489.420    484.561
121.170    568.000    572.523     -4.523    484.959    567.581    484.959    489.910    484.959
121.270    577.000    574.486      2.514    485.365    569.429    485.365    490.432    485.365
121.370    537.043    577.068    -40.025    485.779    571.874    485.779    490.985    485.779
121.470    590.496    580.222     10.274    486.200    574.864    486.200    491.570    486.200
121.570    623.607    583.892     39.715    486.629    578.347    486.629    492.188    486.629
121.670    562.000    588.015    -26.015    487.065    582.260    487.065    492.837    487.065
121.770    578.072    592.518    -14.447    487.510    586.533    487.510    493.515    487.510
121.870    586.000    597.322    -11.322    487.962    591.087    487.962    494.219    487.962
121.970    602.000    602.336     -0.336    488.422    595.835    488.422    494.948    488.422
122.070    642.000    607.459     34.541    488.890    600.679    488.890    495.697    488.890
122.170    631.000    612.584     18.416    489.367    605.517    489.367    496.464    489.367
122.270    612.276    617.597     -5.321    489.851    610.239    489.851    497.242    489.851
122.370    649.000    622.381     26.619    490.344    614.732    490.344    498.028    490.344
122.470    585.000    626.816    -41.816    490.844    618.884    490.844    498.815    490.844
122.570    612.705    630.789    -18.084    491.354    622.587    491.354    499.596    491.354
122.670    652.000    634.193     17.807    491.871    625.742    491.871    500.366    491.871
122.770    632.000    636.941     -4.941    492.397    628.267    492.397    501.116    492.397
122.870    646.000    638.962      7.038    492.932    630.101    492.932    501.839    492.932
122.970    669.932    640.215     29.718    493.475    631.206    493.475    502.529    493.475
123.070    640.000    640.682     -0.682    494.026    631.576    494.026    503.180    494.026
123.170    623.360    640.379    -17.018    494.587    631.225    494.587    503.786    494.587
123.270    649.000    639.341      9.659    495.156    630.197    495.156    504.345    495.156
123.370    665.000    637.628     27.372    495.734    628.550    495.734    504.856    495.734
123.470    647.000    635.314     11.686    496.320    626.359    496.320    505.319    496.320
123.570    671.000    632.483     38.517    496.916    623.703    496.916    505.737    496.916
123.670    611.000    629.225    -18.225    497.521    620.670    497.521    506.114    497.521
123.770    638.000    625.631     12.369    498.135    617.344    498.135    506.458    498.135
123.870    627.678    621.790      5.887    498.758    613.807    498.758    506.774    498.758
123.970    668.201    617.787     50.414    499.390    610.137    499.390    507.070    499.390
124.070    614.000    613.695      0.305    500.031    606.401    500.031    507.352    500.031
124.170    576.098    609.583    -33.486    500.682    602.661    500.682    507.629    500.682
124.270    630.785    605.505     25.280    501.342    598.963    501.342    507.905    501.342
124.370    637.288    601.504     35.784    502.012    595.346    502.012    508.188    502.012
124.470    625.000    597.612     27.388    502.691    591.837    502.691    508.482    502.691
124.570    571.000    593.848    -22.848    503.380    588.448    503.380    508.793    503.380
124.670    569.000    590.229    -21.229    504.079    585.195    504.079    509.124    504.079
124.770    602.366    586.757     15.609    504.787    582.075    504.787    509.477    504.787
124.870    577.000    583.426     -6.426    505.505    579.084    505.505    509.854    505.505
124.970    571.000    580.237     -9.237    506.233    576.214    506.233    510.261    506.233
