neutron_powder_diffraction_0183
R_wp: 3.936
Temperature (K): 1074.000
Counts: 83432.00
Wavelength (Ã…): 2.52098
COMMENTS
Test file for demonstrating the .xyy file format in Reel1.0
END OF HEADER
   tth       Y_obs     Y_calc      Y_res    Background    Phase_1_Nuc    Phase_1_Mag    Phase_2_Nuc    Phase_2_Mag
  9.970    659.000    574.734     84.266    574.007    574.674    574.007    574.067    574.007
 10.070    601.000    574.762     26.238    573.978    574.701    573.978    574.038    573.978
 10.170    564.000    574.793    -10.793    573.943    574.733    573.943    574.004    573.943
 10.270    527.442    574.830    -47.388    573.905    574.769    573.905    573.965    573.905
 10.370    607.000    574.875     32.125    573.861    574.814    573.861    573.922    573.861
 10.470    572.484    574.931     -2.447    573.813    574.869    573.813    573.875    573.813
 10.570    540.450    575.002    -34.552    573.761    574.938    573.761    573.824    573.761
 10.670    548.247    575.091    -26.844    573.704    575.027    573.704    573.767    573.704
 10.770    622.000    575.205     46.795    573.643    575.141    573.643    573.706    573.643
 10.870    600.000    575.355     24.645    573.577    575.290    573.577    573.641    573.577
 10.970    615.521    575.552     39.970    573.508    575.486    573.508    573.572    573.508
 11.070    559.058    575.813    -16.755    573.434    575.748    573.434    573.498    573.434
 11.170    576.000    576.166     -0.166    573.356    576.099    573.356    573.420    573.356
 11.270    537.294    576.649    -39.355    573.274    576.582    573.274    573.338    573.274
 11.370    594.000    577.334     16.666    573.187    577.266    573.187    573.252    573.187
 11.470    608.023    578.369     29.654    573.097    578.301    573.097    573.162    573.097
 11.570    587.000    580.175      6.825    573.003    580.105    573.003    573.068    573.003
 11.670    573.000    583.932    -10.932    572.904    583.860    572.904    572.970    572.904
 11.770    636.934    592.360     44.574    572.802    592.282    572.802    572.869    572.802
 11.870    589.457    609.795    -20.338    572.696    609.707    572.696    572.763    572.696
 11.970    712.000    639.557     72.443    572.586    639.453    572.586    572.653    572.586
 12.070    670.000    677.772     -7.772    572.473    677.646    572.473    572.540    572.473
 12.170    688.000    707.765    -19.765    572.355    707.623    572.355    572.423    572.355
 12.270    697.537    708.626    -11.090    572.234    708.483    572.234    572.302    572.234
 12.370    639.000    679.472    -40.472    572.109    679.345    572.109    572.178    572.109
 12.470    652.000    640.849     11.151    571.981    640.742    571.981    572.050    571.981
 12.570    582.361    610.173    -27.812    571.849    610.083    571.849    571.918    571.849
 12.670    578.000    591.901    -13.901    571.714    591.821    571.714    571.783    571.714
 12.770    554.000    582.894    -28.894    571.575    582.819    571.575    571.644    571.575
 12.870    584.000    578.750      5.250    571.433    578.677    571.433    571.502    571.433
 12.970    576.000    576.650     -0.650    571.287    576.577    571.287    571.357    571.287
 13.070    621.145    575.354     45.791    571.138    575.282    571.138    571.208    571.138
 13.170    539.000    574.422    -35.422    570.985    574.349    570.985    571.056    570.985
 13.270    581.000    573.695      7.305    570.830    573.622    570.830    570.901    570.830
 13.370    575.660    573.103      2.558    570.671    573.030    570.671    570.742    570.671
 13.470    562.000    572.603    -10.603    570.508    572.530    570.508    570.580    570.508
 13.570    556.000    572.172    -16.172    570.343    572.098    570.343    570.415    570.343
 13.670    554.000    571.789    -17.789    570.175    571.715    570.175    570.247    570.175
 13.770    552.000    571.442    -19.442    570.003    571.369    570.003    570.076    570.003
 13.870    553.000    571.123    -18.123    569.829    571.049    569.829    569.902    569.829
 13.970    619.000    570.826     48.174    569.651    570.751    569.651    569.725    569.651
 14.070    559.000    570.548    -11.548    569.471    570.469    569.471    569.549    569.471
 14.170    614.572    570.280     44.292    569.287    570.199    569.287    569.368    569.287
 14.270    565.159    570.021     -4.862    569.101    569.939    569.101    569.182    569.101
 14.370    582.000    569.771     12.229    568.912    569.689    568.912    568.994    568.912
 14.470    518.000    569.526    -51.526    568.720    569.443    568.720    568.802    568.720
 14.570    544.000    569.283    -25.283    568.525    569.200    568.525    568.608    568.525
 14.670    553.049    569.044    -15.995    568.328    568.961    568.328    568.411    568.328
 14.770    602.923    568.807     34.116    568.127    568.723    568.127    568.211    568.127
 14.870    601.525    568.572     32.953    567.925    568.488    567.925    568.009    567.925
 14.970    541.799    568.338    -26.539    567.719    568.253    567.719    567.804    567.719
 15.070    517.000    568.104    -51.104    567.511    568.019    567.511    567.596    567.511
 15.170    543.000    567.871    -24.871    567.300    567.785    567.300    567.386    567.300
 15.270    584.000    567.637     16.363    567.087    567.551    567.087    567.173    567.087
 15.370    545.000    567.404    -22.404    566.872    567.317    566.872    566.958    566.872
 15.470    545.000    567.170    -22.170    566.654    567.083    566.654    566.741    566.654
 15.570    568.115    566.935      1.180    566.433    566.847    566.433    566.521    566.433
 15.670    529.000    566.699    -37.699    566.211    566.611    566.211    566.298    566.211
 15.770    596.000    566.462     29.538    565.985    566.374    565.985    566.074    565.985
 15.870    533.778    566.225    -32.448    565.758    566.136    565.758    565.847    565.758
 15.970    573.000    565.988      7.012    565.528    565.899    565.528    565.618    565.528
 16.070    544.504    565.748    -21.244    565.296    565.658    565.296    565.386    565.296
 16.170    548.000    565.506    -17.506    565.062    565.416    565.062    565.153    565.062
 16.270    572.000    565.263      6.737    564.826    565.173    564.826    564.917    564.826
 16.370    577.000    565.019     11.981    564.588    564.928    564.588    564.679    564.588
 16.470    539.925    564.774    -24.849    564.347    564.682    564.347    564.439    564.347
 16.570    586.000    564.527     21.473    564.105    564.434    564.105    564.197    564.105
 16.670    601.000    564.278     36.722    563.860    564.185    563.860    563.953    563.860
 16.770    551.000    564.028    -13.028    563.614    563.935    563.614    563.707    563.614
 16.870    536.247    563.777    -27.530    563.365    563.683    563.365    563.460    563.365
 16.970    573.000    563.524      9.476    563.115    563.430    563.115    563.210    563.115
 17.070    539.361    563.272    -23.911    562.863    563.177    562.863    562.958    562.863
 17.170    606.943    563.017     43.925    562.608    562.921    562.608    562.705    562.608
 17.270    578.895    562.760     16.134    562.353    562.664    562.353    562.449    562.353
 17.370    583.722    562.502     21.220    562.095    562.404    562.095    562.192    562.095
 17.470    507.000    562.242    -55.242    561.835    562.144    561.835    561.933    561.835
 17.570    576.000    561.981     14.019    561.574    561.882    561.574    561.673    561.574
 17.670    514.000    561.718    -47.718    561.311    561.619    561.311    561.410    561.311
 17.770    576.971    561.454     15.517    561.047    561.354    561.047    561.146    561.047
 17.870    503.000    561.189    -58.189    560.780    561.088    560.780    560.881    560.780
 17.970    539.793    560.922    -21.129    560.513    560.821    560.513    560.614    560.513
 18.070    569.000    560.654      8.346    560.243    560.552    560.243    560.345    560.243
 18.170    552.000    560.386     -8.386    559.972    560.283    559.972    560.075    559.972
 18.270    571.000    560.116     10.884    559.700    560.013    559.700    559.803    559.700
 18.370    534.000    559.845    -25.845    559.426    559.741    559.426    559.530    559.426
 18.470    515.000    559.572    -44.572    559.151    559.467    559.151    559.256    559.151
 18.570    536.000    559.299    -23.299    558.874    559.193    558.874    558.980    558.874
 18.670    540.000    559.024    -19.024    558.596    558.917    558.596    558.702    558.596
 18.770    536.000    558.748    -22.748    558.316    558.640    558.316    558.424    558.316
 18.870    585.000    558.471     26.529    558.035    558.363    558.035    558.144    558.035
 18.970    572.000    558.193     13.807    557.753    558.084    557.753    557.862    557.753
 19.070    526.744    557.915    -31.170    557.470    557.804    557.470    557.580    557.470
 19.170    563.000    557.637      5.363    557.185    557.524    557.185    557.298    557.185
 19.270    545.000    557.358    -12.358    556.900    557.243    556.900    557.014    556.900
 19.370    548.000    557.078     -9.078    556.613    556.962    556.613    556.728    556.613
 19.470    562.335    556.795      5.540    556.324    556.679    556.324    556.441    556.324
 19.570    548.000    556.512     -8.512    556.035    556.395    556.035    556.153    556.035
 19.670    561.000    556.230      4.770    555.745    556.111    555.745    555.863    555.745
 19.770    590.556    555.959     34.597    555.453    555.840    555.453    555.573    555.453
 19.870    588.469    555.685     32.784    555.161    555.564    555.161    555.282    555.161
 19.970    532.000    555.400    -23.400    554.868    555.278    554.868    554.989    554.868
 20.070    587.373    555.114     32.259    554.573    554.991    554.573    554.696    554.573
 20.170    599.000    554.828     44.172    554.278    554.704    554.278    554.402    554.278
 20.270    526.000    554.541    -28.541    553.981    554.416    553.981    554.106    553.981
 20.370    549.000    554.253     -5.253    553.684    554.127    553.684    553.810    553.684
 20.470    544.000    553.966     -9.966    553.386    553.839    553.386    553.513    553.386
 20.570    550.000    553.678     -3.678    553.087    553.550    553.087    553.216    553.087
 20.670    554.000    553.390      0.610    552.787    553.260    552.787    552.917    552.787
 20.770    540.000    553.102    -13.102    552.487    552.971    552.487    552.618    552.487
 20.870    600.000    552.814     47.186    552.186    552.682    552.186    552.318    552.186
 20.970    547.321    552.526     -5.205    551.884    552.392    551.884    552.017    551.884
 21.070    578.000    552.238     25.762    551.581    552.103    551.581    551.716    551.581
 21.170    593.690    551.959     41.730    551.277    551.823    551.277    551.414    551.277
 21.270    557.000    551.758      5.242    550.973    551.620    550.973    551.111    550.973
 21.370    540.000    551.494    -11.494    550.669    551.355    550.669    550.808    550.669
 21.470    506.697    551.210    -44.513    550.363    551.069    550.363    550.504    550.363
 21.570    580.000    550.925     29.075    550.057    550.783    550.057    550.200    550.057
 21.670    533.000    550.641    -17.641    549.751    550.497    549.751    549.895    549.751
 21.770    538.506    550.360    -11.854    549.444    550.214    549.444    549.590    549.444
 21.870    600.000    550.101     49.899    549.136    549.953    549.136    549.284    549.136
 21.970    545.000    549.850     -4.850    548.828    549.701    548.828    548.977    548.828
 22.070    564.000    549.579     14.421    548.520    549.428    548.520    548.671    548.520
 22.170    540.000    549.351     -9.351    548.211    549.198    548.211    548.364    548.211
 22.270    576.000    549.097     26.903    547.901    548.943    547.901    548.056    547.901
 22.370    508.000    548.832    -40.832    547.592    548.675    547.592    547.749    547.592
 22.470    583.848    548.571     35.277    547.282    548.412    547.282    547.441    547.282
 22.570    555.000    548.311      6.689    546.971    548.150    546.971    547.132    546.971
 22.670    555.000    548.056      6.944    546.660    547.893    546.660    546.824    546.660
 22.770    569.425    547.808     21.617    546.349    547.642    546.349    546.515    546.349
 22.870    535.000    547.567    -12.567    546.038    547.399    546.038    546.206    546.038
 22.970    568.569    547.336     21.233    545.726    547.165    545.726    545.897    545.726
 23.070    545.000    547.116     -2.116    545.415    546.943    545.415    545.588    545.415
 23.170    557.000    546.911     10.089    545.103    546.735    545.103    545.279    545.103
 23.270    560.722    546.724     13.998    544.790    546.546    544.790    544.969    544.790
 23.370    538.000    546.562     -8.562    544.478    546.381    544.478    544.660    544.478
 23.470    545.000    546.428     -1.428    544.165    546.244    544.165    544.350    544.165
 23.570    535.000    546.332    -11.332    543.853    546.144    543.853    544.041    543.853
 23.670    549.000    546.288      2.712    543.540    546.097    543.540    543.731    543.540
 23.770    577.649    546.315     31.334    543.227    546.122    543.227    543.422    543.227
 23.870    545.000    546.445     -1.445    542.914    546.248    542.914    543.113    542.914
 23.970    568.000    546.733     21.267    542.601    546.533    542.601    542.804    542.601
 24.070    585.000    547.313     37.687    542.289    547.109    542.289    542.495    542.289
 24.170    554.299    548.556      5.744    541.976    548.349    541.976    542.186    541.976
 24.270    514.966    551.452    -36.485    541.663    551.243    541.663    541.878    541.663
 24.370    596.224    558.053     38.171    541.350    557.845    541.350    541.569    541.350
 24.470    591.000    571.182     19.818    541.037    570.978    541.037    541.261    541.037
 24.570    612.000    592.218     19.782    540.725    592.025    540.725    540.954    540.725
 24.670    605.000    617.060    -12.060    540.412    616.879    540.412    540.647    540.412
 24.770    599.242    633.491    -34.249    540.100    633.317    540.100    540.340    540.100
 24.870    659.421    629.479     29.941    539.787    629.297    539.787    540.034    539.787
 24.970    634.110    608.284     25.826    539.475    608.080    539.475    539.728    539.475
 25.070    590.000    583.434      6.566    539.163    583.205    539.163    539.423    539.163
 25.170    577.000    564.423     12.577    538.852    564.174    538.852    539.118    538.852
 25.270    544.000    553.154     -9.154    538.540    552.889    538.540    538.814    538.540
 25.370    585.000    547.471     37.529    538.229    547.194    538.229    538.511    538.229
 25.470    522.000    544.722    -22.722    537.918    544.434    537.918    538.209    537.918
 25.570    525.000    543.240    -18.240    537.607    542.942    537.607    537.907    537.607
 25.670    584.000    542.279     41.721    537.297    541.971    537.297    537.607    537.297
 25.770    584.000    541.563     42.437    536.987    541.244    536.987    537.308    536.987
 25.870    498.000    540.997    -42.997    536.677    540.666    536.677    537.009    536.677
 25.970    527.815    540.561    -12.745    536.368    540.217    536.368    536.712    536.368
 26.070    570.043    540.200     29.843    536.059    539.843    536.059    536.416    536.059
 26.170    556.000    539.882     16.118    535.750    539.511    535.750    536.122    535.750
 26.270    540.000    539.623      0.377    535.442    539.235    535.442    535.830    535.442
 26.370    542.000    539.418      2.582    535.134    539.014    535.134    535.539    535.134
 26.470    586.000    539.260     46.740    534.827    538.837    534.827    535.250    534.827
 26.570    581.798    539.156     42.643    534.520    538.712    534.520    534.963    534.520
 26.670    549.000    539.112      9.888    534.213    538.646    534.213    534.679    534.213
 26.770    521.644    539.154    -17.510    533.908    538.663    533.908    534.398    533.908
 26.870    537.000    539.298     -2.298    533.602    538.781    533.602    534.119    533.602
 26.970    561.369    539.507     21.862    533.297    538.960    533.297    533.844    533.297
 27.070    555.608    539.840     15.769    532.993    539.259    532.993    533.573    532.993
 27.170    554.179    540.340     13.839    532.689    539.722    532.689    533.306    532.689
 27.270    562.000    541.064     20.936    532.386    540.405    532.386    533.044    532.386
 27.370    570.000    542.103     27.897    532.084    541.397    532.084    532.788    532.084
 27.470    517.985    543.623    -25.639    531.782    542.864    531.782    532.539    531.782
 27.570    590.968    546.054     44.914    531.480    545.234    531.480    532.298    531.480
 27.670    554.072    550.875      3.198    531.180    549.984    531.180    532.066    531.180
 27.770    554.000    562.880     -8.880    530.880    561.907    530.880    531.845    530.880
 27.870    598.000    593.739      4.261    530.580    592.664    530.580    531.637    530.580
 27.970    669.000    660.819      8.181    530.282    659.614    530.282    531.446    530.282
 28.070    739.000    770.943    -31.943    529.984    769.580    529.984    531.274    529.984
 28.170    926.043    893.018     33.025    529.686    891.477    529.686    531.127    529.686
 28.270    993.690    953.244     40.446    529.390    951.525    529.390    531.010    529.390
 28.370    852.037    902.910    -50.872    529.094    901.006    529.094    530.934    529.094
 28.470    798.000    794.100      3.900    528.799    791.958    528.799    530.913    528.799
 28.570    749.064    709.543     39.521    528.505    707.067    528.505    530.968    528.505
 28.670    694.000    691.930      2.070    528.211    688.990    528.211    531.136    528.211
 28.770    752.000    736.670     15.330    527.919    733.092    527.919    531.476    527.919
 28.870    801.344    804.379     -3.036    527.627    799.912    527.627    532.080    527.627
 28.970    757.000    836.341    -79.341    527.336    830.601    527.336    533.077    527.336
 29.070    765.000    797.724    -32.724    527.046    790.155    527.046    534.625    527.046
 29.170    696.000    718.611    -22.611    526.756    708.490    526.756    536.889    526.756
 29.270    695.000    645.529     49.471    526.468    632.022    526.468    539.982    526.468
 29.370    591.000    599.631     -8.631    526.180    581.957    526.180    543.857    526.180
 29.470    626.000    578.580     47.420    525.894    556.368    525.894    548.106    525.894
 29.570    541.000    571.170    -30.170    525.608    545.072    525.608    551.704    525.608
 29.670    627.000    567.850     59.150    525.323    540.003    525.323    553.168    525.323
 29.770    560.000    563.869     -3.869    525.039    537.278    525.039    551.628    525.039
 29.870    598.409    558.499     39.910    524.756    535.513    524.756    547.740    524.756
 29.970    538.000    552.769    -14.769    524.474    534.279    524.474    542.963    524.474
 30.070    543.000    547.663     -4.663    524.193    533.435    524.193    538.419    524.193
 30.170    541.000    543.655     -2.655    523.913    532.955    523.913    534.612    523.913
 30.270    543.000    540.961      2.039    523.634    532.955    523.634    531.637    523.634
 30.370    525.316    539.941    -14.625    523.356    533.890    523.356    529.404    523.356
 30.470    559.232    541.609     17.623    523.079    536.930    523.079    527.752    523.079
 30.570    503.851    547.923    -44.071    522.803    544.193    522.803    526.520    522.803
 30.670    536.722    560.999    -24.277    522.528    557.931    522.528    525.573    522.528
 30.770    625.000    580.577     44.423    522.255    577.982    522.255    524.812    522.255
 30.870    601.000    600.821      0.179    521.982    598.577    521.982    524.174    521.982
 30.970    622.000    610.023     11.977    521.710    608.059    521.710    523.619    521.710
 31.070    616.202    600.435     15.767    521.439    598.708    521.439    523.121    521.439
 31.170    626.256    579.235     47.021    521.170    577.708    521.170    522.667    521.170
 31.270    538.000    558.118    -20.118    520.901    556.758    520.901    522.245    520.901
 31.370    566.000    543.154     22.846    520.634    541.931    520.634    521.849    520.634
 31.470    535.000    534.713      0.287    520.368    533.602    520.368    521.474    520.368
 31.570    529.115    530.591     -1.476    520.103    529.574    520.103    521.117    520.103
 31.670    578.000    528.621     49.379    519.839    527.684    519.839    520.774    519.839
 31.770    505.000    527.556    -22.556    519.576    526.688    519.576    520.442    519.576
 31.870    506.000    526.876    -20.876    519.315    526.069    519.315    520.121    519.315
 31.970    487.908    526.404    -38.496    519.054    525.649    519.054    519.808    519.054
 32.070    564.000    526.078     37.922    518.795    525.368    518.795    519.503    518.795
 32.170    489.669    525.873    -36.204    518.537    525.204    518.537    519.205    518.537
 32.270    544.000    525.782     18.218    518.280    525.149    518.280    518.912    518.280
 32.370    567.000    525.804     41.196    518.025    525.204    518.025    518.624    518.025
 32.470    532.000    525.949      6.051    517.770    525.377    517.770    518.342    517.770
 32.570    577.000    526.233     50.767    517.517    525.687    517.517    518.063    517.517
 32.670    537.000    526.683     10.317    517.265    526.159    517.265    517.788    517.265
 32.770    539.000    527.338     11.662    517.015    526.835    517.015    517.517    517.015
 32.870    552.000    528.255     23.745    516.765    527.771    516.765    517.249    516.765
 32.970    490.040    529.521    -39.481    516.517    529.053    516.517    516.984    516.517
 33.070    559.380    531.267     28.113    516.271    530.815    516.271    516.722    516.271
 33.170    586.000    533.738     52.262    516.025    533.298    516.025    516.462    516.025
 33.270    587.000    537.492     49.508    515.781    537.065    515.781    516.205    515.781
 33.370    564.000    544.040     19.960    515.538    543.624    515.538    515.951    515.538
 33.470    551.820    557.268     -5.448    515.296    556.859    515.296    515.699    515.296
 33.570    583.000    585.415     -2.415    515.056    585.011    515.056    515.449    515.056
 33.670    649.000    641.230      7.770    514.817    640.825    514.817    515.201    514.817
 33.770    761.223    735.936     25.287    514.579    735.524    514.579    514.955    514.579
 33.870    921.000    865.402     55.598    514.343    864.981    514.343    514.712    514.343
 33.970   1035.255    994.659     40.596    514.108    994.235    514.108    514.470    514.108
 34.070   1064.212   1057.874      6.338    513.875   1057.466    513.875    514.230    513.875
 34.170   1032.991   1010.402     22.589    513.642   1010.025    513.642    513.992    513.642
 34.270    946.317    887.221     59.096    513.412    886.873    513.412    513.756    513.412
 34.370    764.000    754.566      9.434    513.182    754.234    513.182    513.522    513.182
 34.470    649.000    652.890     -3.890    512.954    652.563    512.954    513.290    512.954
 34.570    580.015    590.580    -10.565    512.727    590.254    512.727    513.059    512.727
 34.670    561.000    558.043      2.957    512.502    557.718    512.502    512.830    512.502
 34.770    576.182    542.322     33.860    512.278    541.998    512.278    512.603    512.278
 34.870    489.000    534.388    -45.388    512.056    534.066    512.056    512.377    512.056
 34.970    495.971    529.739    -33.768    511.834    529.420    511.834    512.153    511.834
 35.070    512.000    526.561    -14.561    511.615    526.244    511.615    511.931    511.615
 35.170    497.000    524.174    -27.174    511.397    523.859    511.397    511.711    511.397
 35.270    528.206    522.294      5.912    511.180    521.981    511.180    511.492    511.180
 35.370    486.000    520.772    -34.772    510.964    520.461    510.964    511.275    510.964
 35.470    491.000    519.515    -28.515    510.751    519.205    510.751    511.060    510.751
 35.570    473.436    518.457    -45.022    510.538    518.149    510.538    510.846    510.538
 35.670    543.000    517.555     25.445    510.327    517.248    510.327    510.634    510.327
 35.770    488.000    516.774    -28.774    510.117    516.468    510.117    510.423    510.117
 35.870    507.732    516.090     -8.357    509.909    515.785    509.909    510.214    509.909
 35.970    558.000    515.485     42.515    509.703    515.181    509.703    510.007    509.703
 36.070    524.000    514.946      9.054    509.498    514.642    509.498    509.801    509.498
 36.170    518.000    514.463      3.537    509.294    514.159    509.294    509.597    509.294
 36.270    497.677    514.027    -16.350    509.092    513.724    509.092    509.395    509.092
 36.370    513.000    513.634     -0.634    508.891    513.331    508.891    509.194    508.891
 36.470    514.000    513.280      0.720    508.692    512.977    508.692    508.995    508.692
 36.570    510.000    512.964     -2.964    508.494    512.660    508.494    508.798    508.494
 36.670    552.025    512.686     39.339    508.298    512.383    508.298    508.602    508.298
 36.770    487.000    512.453    -25.453    508.103    512.149    508.103    508.407    508.103
 36.870    539.211    512.284     26.927    507.910    511.979    507.910    508.215    507.910
 36.970    516.545    512.229      4.317    507.719    511.924    507.719    508.024    507.719
 37.070    533.000    512.411     20.589    507.528    512.106    507.528    507.834    507.528
 37.170    537.891    513.072     24.820    507.340    512.765    507.340    507.646    507.340
 37.270    500.000    514.555    -14.555    507.153    514.248    507.153    507.460    507.153
 37.370    543.000    517.153     25.847    506.967    516.845    506.967    507.276    506.967
 37.470    553.000    520.777     32.223    506.783    520.469    506.783    507.093    506.783
 37.570    567.000    524.596     42.404    506.601    524.288    506.601    506.912    506.601
 37.670    567.000    526.996     40.004    506.420    526.688    506.420    506.732    506.420
 37.770    539.000    526.623     12.377    506.240    526.316    506.240    506.554    506.240
 37.870    516.000    523.826     -7.826    506.062    523.519    506.062    506.378    506.062
 37.970    520.000    520.090     -0.090    505.886    519.783    505.886    506.203    505.886
 38.070    521.727    516.575      5.152    505.711    516.267    505.711    506.030    505.711
 38.170    493.000    513.740    -20.740    505.538    513.428    505.538    505.859    505.538
 38.270    572.000    511.667     60.333    505.366    511.351    505.366    505.689    505.366
 38.370    528.652    510.255     18.397    505.196    509.935    505.196    505.521    505.196
 38.470    517.000    509.324      7.676    505.028    509.000    505.028    505.354    505.028
 38.570    505.000    508.711     -3.711    504.861    508.384    504.861    505.190    504.861
 38.670    544.079    508.289     35.790    504.695    507.959    504.695    505.027    504.695
 38.770    516.474    507.976      8.498    504.531    507.643    504.531    504.865    504.531
 38.870    477.000    507.721    -30.721    504.369    507.386    504.369    504.705    504.369
 38.970    477.000    507.500    -30.500    504.208    507.162    504.208    504.547    504.208
 39.070    504.000    507.300     -3.300    504.049    506.959    504.049    504.391    504.049
 39.170    493.998    507.115    -13.117    503.892    506.771    503.892    504.236    503.892
 39.270    499.000    506.943     -7.943    503.736    506.597    503.736    504.083    503.736
 39.370    473.241    506.782    -33.542    503.581    506.433    503.581    503.931    503.581
 39.470    473.000    506.631    -33.631    503.429    506.278    503.429    503.782    503.429
 39.570    499.000    506.488     -7.488    503.277    506.132    503.277    503.634    503.277
 39.670    482.177    506.354    -24.177    503.128    505.994    503.128    503.487    503.128
 39.770    484.000    506.228    -22.228    502.980    505.865    502.980    503.343    502.980
 39.870    520.000    506.109     13.891    502.833    505.743    502.833    503.200    502.833
 39.970    481.000    505.999    -24.999    502.688    505.629    502.688    503.059    502.688
 40.070    499.551    505.897     -6.347    502.545    505.524    502.545    502.919    502.545
 40.170    547.337    505.804     41.532    502.403    505.427    502.403    502.781    502.403
 40.270    466.703    505.721    -39.018    502.263    505.339    502.263    502.645    502.263
 40.370    478.000    505.647    -27.647    502.124    505.262    502.124    502.511    502.124
 40.470    511.000    505.585      5.415    501.987    505.195    501.987    502.378    501.987
 40.570    518.000    505.536     12.464    501.852    505.141    501.852    502.247    501.852
 40.670    530.000    505.501     24.499    501.718    505.101    501.718    502.118    501.718
 40.770    489.000    505.482    -16.482    501.586    505.078    501.586    501.990    501.586
 40.870    483.000    505.482    -22.482    501.455    505.074    501.455    501.865    501.455
 40.970    523.000    505.506     17.494    501.326    505.092    501.326    501.741    501.326
 41.070    520.000    505.557     14.443    501.199    505.138    501.199    501.618    501.199
 41.170    487.000    505.642    -18.642    501.073    505.218    501.073    501.498    501.073
 41.270    517.181    505.769     11.412    500.949    505.340    500.949    501.379    500.949
 41.370    547.382    505.950     41.432    500.826    505.515    500.826    501.262    500.826
 41.470    497.000    506.201     -9.201    500.705    505.760    500.705    501.147    500.705
 41.570    474.000    506.547    -32.547    500.586    506.100    500.586    501.034    500.586
 41.670    466.401    507.036    -40.634    500.468    506.583    500.468    500.922    500.468
 41.770    482.018    507.769    -25.751    500.351    507.310    500.351    500.813    500.351
 41.870    492.000    508.993    -16.993    500.237    508.528    500.237    500.705    500.237
 41.970    484.000    511.270    -27.270    500.124    510.798    500.124    500.599    500.124
 42.070    533.000    515.701     17.299    500.012    515.224    500.012    500.494    500.012
 42.170    528.000    524.025      3.975    499.902    523.545    499.902    500.392    499.902
 42.270    511.000    538.205    -27.205    499.794    537.724    499.794    500.291    499.794
 42.370    501.000    559.227    -58.227    499.687    558.748    499.687    500.192    499.687
 42.470    552.000    585.335    -33.335    499.582    584.861    499.582    500.096    499.582
 42.570    655.470    610.482     44.988    499.478    610.013    499.478    500.001    499.478
 42.670    615.105    624.856     -9.751    499.376    624.388    499.376    499.908    499.376
 42.770    594.000    620.969    -26.969    499.275    620.494    499.275    499.816    499.275
 42.870    606.586    601.103      5.483    499.176    600.610    499.176    499.727    499.176
 42.970    557.000    574.597    -17.597    499.079    574.080    499.079    499.640    499.079
 43.070    603.000    549.991     53.009    498.983    549.449    498.983    499.555    498.983
 43.170    526.013    531.533     -5.520    498.889    530.969    498.889    499.471    498.889
 43.270    546.000    519.711     26.289    498.796    519.129    498.796    499.390    498.796
 43.370    529.000    512.994     16.006    498.705    512.395    498.705    499.311    498.705
 43.470    518.651    509.432      9.219    498.616    508.818    498.616    499.234    498.616
 43.570    485.000    507.534    -22.534    498.528    506.906    498.528    499.159    498.528
 43.670    524.000    506.430     17.570    498.441    505.788    498.441    499.086    498.441
 43.770    482.000    505.705    -23.705    498.357    505.049    498.357    499.015    498.357
 43.870    493.000    505.180    -12.180    498.273    504.508    498.273    498.946    498.273
 43.970    486.664    504.777    -18.114    498.192    504.090    498.192    498.880    498.192
 44.070    510.000    504.462      5.538    498.111    503.758    498.111    498.816    498.111
 44.170    505.070    504.212      0.858    498.033    503.491    498.033    498.754    498.033
 44.270    493.000    504.014    -11.014    497.956    503.275    497.956    498.695    497.956
 44.370    499.325    503.858     -4.532    497.880    503.101    497.880    498.638    497.880
 44.470    478.000    503.736    -25.736    497.806    502.960    497.806    498.583    497.806
 44.570    503.000    503.645     -0.645    497.733    502.847    497.733    498.531    497.733
 44.670    535.000    503.579     31.421    497.662    502.759    497.662    498.482    497.662
 44.770    545.994    503.535     42.459    497.593    502.693    497.593    498.436    497.593
 44.870    530.400    503.513     26.887    497.525    502.646    497.525    498.392    497.525
 44.970    490.000    503.510    -13.510    497.459    502.617    497.459    498.351    497.459
 45.070    543.274    503.525     39.749    497.394    502.605    497.394    498.314    497.394
 45.170    491.000    503.558    -12.558    497.330    502.609    497.330    498.279    497.330
 45.270    464.000    503.608    -39.608    497.269    502.629    497.269    498.248    497.269
 45.370    523.000    503.677     19.323    497.208    502.664    497.208    498.220    497.208
 45.470    470.461    503.763    -33.302    497.149    502.716    497.149    498.196    497.149
 45.570    508.000    503.868      4.132    497.092    502.784    497.092    498.176    497.092
 45.670    482.000    503.993    -21.993    497.036    502.869    497.036    498.160    497.036
 45.770    515.000    504.140     10.860    496.982    502.973    496.982    498.148    496.982
 45.870    501.000    504.309     -3.309    496.929    503.097    496.929    498.141    496.929
 45.970    517.000    504.504     12.496    496.878    503.242    496.878    498.139    496.878
 46.070    490.000    504.728    -14.728    496.828    503.413    496.828    498.142    496.828
 46.170    502.000    504.984     -2.984    496.779    503.612    496.779    498.151    496.779
 46.270    488.000    505.277    -17.277    496.732    503.842    496.732    498.166    496.732
 46.370    516.057    505.613     10.444    496.687    504.111    496.687    498.188    496.687
 46.470    529.000    506.001     22.999    496.643    504.425    496.643    498.218    496.643
 46.570    512.000    506.450      5.550    496.600    504.793    496.600    498.256    496.600
 46.670    465.494    506.977    -41.483    496.559    505.232    496.559    498.303    496.559
 46.770    562.000    507.610     54.390    496.519    505.768    496.519    498.360    496.519
 46.870    500.000    508.406     -8.406    496.481    506.457    496.481    498.428    496.481
 46.970    519.000    509.490      9.510    496.444    507.422    496.444    498.510    496.444
 47.070    533.214    511.132     22.082    496.409    508.932    496.409    498.606    496.409
 47.170    484.000    513.848    -29.848    496.375    511.500    496.375    498.718    496.375
 47.270    494.910    518.468    -23.558    496.343    515.952    496.343    498.850    496.343
 47.370    533.000    526.024      6.976    496.312    523.318    496.312    499.004    496.312
 47.470    542.000    537.343      4.657    496.282    534.420    496.282    499.183    496.282
 47.570    541.000    552.326    -11.326    496.254    549.153    496.254    499.393    496.254
 47.670    542.000    569.178    -27.178    496.227    565.722    496.227    499.639    496.227
 47.770    632.000    583.979     48.021    496.202    580.199    496.202    499.928    496.202
 47.870    581.000    591.487    -10.487    496.178    587.337    496.178    500.270    496.178
 47.970    593.221    588.598      4.623    496.155    584.023    496.155    500.677    496.155
 48.070    594.000    577.434     16.566    496.134    572.357    496.134    501.169    496.134
 48.170    586.000    563.116     22.884    496.114    557.427    496.114    501.772    496.114
 48.270    591.639    550.095     41.544    496.095    543.639    496.095    502.530    496.095
 48.370    500.451    540.769    -40.318    496.078    533.319    496.078    503.515    496.078
 48.470    548.280    535.755     12.526    496.063    526.973    496.063    504.836    496.063
 48.570    486.000    534.615    -48.615    496.048    523.996    496.048    506.661    496.048
 48.670    535.000    536.634     -1.634    496.035    523.438    496.035    509.227    496.035
 48.770    530.849    541.319    -10.470    496.023    524.496    496.023    512.843    496.023
 48.870    530.000    548.557    -18.557    496.013    526.704    496.013    517.863    496.013
 48.970    573.000    558.554     14.446    496.004    529.926    496.004    524.627    496.004
 49.070    599.088    571.713     27.375    495.996    534.342    495.996    533.362    495.996
 49.170    546.000    588.671    -42.671    495.990    540.628    495.990    544.025    495.990
 49.270    600.026    610.740    -10.714    495.985    550.613    495.985    556.103    495.985
 49.370    673.000    641.182     31.818    495.981    568.830    495.981    568.318    495.981
 49.470    679.000    687.712     -8.712    495.979    605.221    495.979    578.444    495.979
 49.570    786.000    765.954     20.046    495.978    678.147    495.978    583.738    495.978
 49.670    888.000    901.143    -13.143    495.978    814.630    495.978    582.411    495.978
 49.770   1087.949   1122.016    -34.067    495.979   1042.905    495.979    574.966    495.979
 49.870   1417.000   1442.483    -25.483    495.982   1374.530    495.982    563.769    495.982
 49.970   1848.219   1836.813     11.406    495.986   1781.166    495.986    551.450    495.986
 50.070   2180.182   2223.805    -43.623    495.991   2179.789    495.991    539.855    495.991
 50.170   2567.251   2479.156     88.096    495.998   2445.157    495.998    529.936    495.998
 50.270   2514.931   2494.862     20.069    496.006   2468.928    496.006    521.998    496.006
 50.370   2265.000   2260.297      4.703    496.015   2240.500    496.015    515.963    496.015
 50.470   1929.855   1872.919     56.936    496.025   1857.583    496.025    511.547    496.025
 50.570   1452.000   1461.876     -9.876    496.037   1449.689    496.037    508.396    496.037
 50.670   1099.193   1119.625    -20.432    496.049   1109.639    496.049    506.169    496.049
 50.770    842.507    882.806    -40.299    496.063    874.379    496.063    504.584    496.063
 50.870    730.000    743.635    -13.635    496.079    736.345    496.079    503.432    496.079
 50.970    709.913    672.634     37.279    496.095    666.208    496.095    502.570    496.095
 51.070    629.000    638.424     -9.424    496.113    632.673    496.113    501.903    496.113
 51.170    601.404    618.383    -16.979    496.131    613.176    496.131    501.374    496.131
 51.270    634.295    601.301     32.994    496.151    596.538    496.151    500.945    496.151
 51.370    584.000    584.536     -0.536    496.172    580.140    496.172    500.592    496.172
 51.470    551.541    569.120    -17.578    496.195    565.032    496.195    500.300    496.195
 51.570    520.924    556.441    -35.517    496.218    552.614    496.218    500.058    496.218
 51.670    580.000    547.112     32.888    496.243    543.507    496.243    499.856    496.243
 51.770    497.445    540.939    -43.494    496.269    537.525    496.269    499.688    496.269
 51.870    569.000    537.273     31.727    496.296    534.023    496.296    499.550    496.296
 51.970    580.000    535.395     44.605    496.324    532.286    496.324    499.436    496.324
 52.070    567.000    534.761     32.239    496.353    531.772    496.353    499.344    496.353
 52.170    567.404    535.081     32.323    496.383    532.194    496.383    499.272    496.383
 52.270    527.987    536.309     -8.322    496.415    533.510    496.415    499.215    496.415
 52.370    524.627    538.673    -14.047    496.447    535.948    496.447    499.174    496.447
 52.470    527.000    542.829    -15.829    496.481    540.165    496.481    499.146    496.481
 52.570    556.000    550.214      5.786    496.516    547.601    496.516    499.130    496.516
 52.670    576.665    563.592     13.073    496.551    561.018    496.551    499.125    496.551
 52.770    626.706    587.552     39.154    496.588    585.009    496.588    499.130    496.588
 52.870    645.000    628.459     16.541    496.626    625.938    496.626    499.145    496.626
 52.970    753.000    693.115     59.885    496.665    690.609    496.665    499.168    496.665
 53.070    768.000    785.730    -17.730    496.705    783.231    496.705    499.199    496.705
 53.170    942.000    903.692     38.308    496.746    901.197    496.746    499.239    496.746
 53.270   1067.000   1033.534     33.466    496.788   1031.039    496.788    499.286    496.788
 53.370   1136.656   1149.033    -12.377    496.832   1146.535    496.832    499.340    496.832
 53.470   1198.000   1215.866    -17.866    496.876   1213.364    496.876    499.402    496.876
 53.570   1152.546   1208.831    -56.285    496.921   1206.318    496.921    499.470    496.921
 53.670   1124.181   1131.105     -6.925    496.967   1128.570    496.967    499.546    496.967
 53.770    931.000   1011.277    -80.277    497.014   1008.705    497.014    499.628    497.014
 53.870    845.000    882.823    -37.823    497.062    880.203    497.062    499.718    497.062
 53.970    821.289    769.610     51.679    497.112    766.935    497.112    499.815    497.112
 54.070    725.027    682.871     42.157    497.162    680.133    497.162    499.919    497.162
 54.170    659.806    623.649     36.157    497.213    620.844    497.213    500.030    497.213
 54.270    576.000    586.987    -10.987    497.265    584.110    497.265    500.150    497.265
 54.370    575.500    566.016      9.483    497.318    563.062    497.318    500.277    497.318
 54.470    595.000    554.663     40.337    497.372    551.624    497.372    500.413    497.372
 54.570    565.000    548.696     16.304    497.427    545.567    497.427    500.558    497.427
 54.670    563.000    545.635     17.365    497.482    542.407    497.482    500.712    497.482
 54.770    575.000    544.207     30.793    497.539    540.871    497.539    500.877    497.539
 54.870    526.000    543.825    -17.825    497.597    540.371    497.597    501.052    497.597
 54.970    540.000    544.239     -4.239    497.655    540.656    497.655    501.239    497.655
 55.070    510.969    545.360    -34.391    497.714    541.638    497.714    501.438    497.714
 55.170    571.791    547.178     24.613    497.775    543.303    497.775    501.651    497.775
 55.270    591.711    549.736     41.976    497.836    545.694    497.836    501.878    497.836
 55.370    553.000    553.128     -0.128    497.898    548.904    497.898    502.122    497.898
 55.470    554.000    557.532     -3.532    497.960    553.110    497.960    502.383    497.960
 55.570    588.000    563.285     24.715    498.024    558.645    498.024    502.664    498.024
 55.670    582.000    571.083     10.917    498.089    566.205    498.089    502.967    498.089
 55.770    570.000    582.422    -12.422    498.154    577.282    498.154    503.293    498.154
 55.870    650.871    600.428     50.443    498.220    595.000    498.220    503.647    498.220
 55.970    624.000    631.149     -7.149    498.287    625.400    498.287    504.030    498.287
 56.070    721.003    685.009     35.994    498.355    678.904    498.355    504.447    498.355
 56.170    749.000    777.488    -28.488    498.423    770.987    498.423    504.903    498.423
 56.270    923.000    927.401     -4.401    498.492    920.456    498.492    505.402    498.492
 56.370   1097.000   1151.265    -54.265    498.562   1143.827    498.562    505.950    498.562
 56.470   1514.400   1453.815     60.585    498.633   1445.832    498.633    506.556    498.633
 56.570   1764.193   1817.239    -53.046    498.705   1808.660    498.705    507.228    498.705
 56.670   2118.000   2193.324    -75.324    498.777   2184.096    498.777    507.976    498.777
 56.770   2566.536   2503.525     63.012    498.850   2493.588    498.850    508.814    498.850
 56.870   2597.000   2657.842    -60.842    498.924   2647.117    498.924    509.757    498.924
 56.970   2655.000   2602.186     52.814    498.999   2590.550    498.999    510.826    498.999
 57.070   2328.990   2358.656    -29.666    499.074   2345.928    499.074    512.047    499.074
 57.170   2054.000   2006.942     47.058    499.150   1992.890    499.150    513.456    499.150
 57.270   1689.000   1634.192     54.808    499.226   1618.540    499.226    515.105    499.226
 57.370   1238.230   1303.578    -65.347    499.303   1285.991    499.303    517.072    499.303
 57.470   1087.392   1046.831     40.561    499.381   1026.868    499.381    519.476    499.381
 57.570    906.668    869.009     37.660    499.460    846.050    499.460    522.504    499.460
 57.670    717.262    758.533    -41.271    499.539    731.680    499.539    526.443    499.539
 57.770    753.000    697.879     55.121    499.619    665.814    499.619    531.713    499.619
 57.870    735.000    671.369     63.631    499.700    632.181    499.700    538.899    499.700
 57.970    701.000    668.815     32.185    499.781    619.835    499.781    548.761    499.781
 58.070    697.000    685.851     11.149    499.863    623.508    499.863    562.196    499.863
 58.170    748.000    722.385     25.615    499.945    642.168    499.945    580.141    499.945
 58.270    795.000    780.322     14.678    500.028    676.913    500.028    603.406    500.028
 58.370    808.000    861.178    -53.178    500.111    728.811    500.111    632.436    500.111
 58.470    921.403    963.900    -42.497    500.196    797.028    500.196    667.016    500.196
 58.570   1080.000   1083.140     -3.140    500.280    877.475    500.280    705.889    500.280
 58.670   1239.000   1208.469     30.531    500.365    962.514    500.365    746.268    500.365
 58.770   1273.000   1325.672    -52.672    500.451   1042.752    500.451    783.328    500.451
 58.870   1432.000   1420.033     11.967    500.538   1110.181    500.538    810.363    500.538
 58.970   1439.232   1478.773    -39.541    500.624   1158.651    500.624    820.738    500.624
 59.070   1503.000   1492.815     10.185    500.712   1182.060    500.712    811.478    500.712
 59.170   1516.000   1460.789     55.211    500.800   1176.299    500.800    785.316    500.800
 59.270   1355.247   1392.719    -37.472    500.888   1144.846    500.888    748.790    500.888
 59.370   1390.000   1307.166     82.834    500.977   1099.510    500.977    708.651    500.977
 59.470   1177.765   1223.726    -45.961    501.066   1054.965    501.066    669.821    501.066
 59.570   1185.000   1159.065     25.935    501.156   1024.998    501.156    635.182    501.156
 59.670   1204.000   1127.564     76.436    501.246   1022.669    501.246    606.055    501.246
 59.770   1211.094   1140.503     70.591    501.337   1059.003    501.337    582.700    501.337
 59.870   1194.000   1201.273     -7.273    501.428   1137.810    501.428    564.698    501.428
 59.970   1361.000   1300.601     60.399    501.520   1250.621    501.520    551.253    501.520
 60.070   1447.680   1415.059     32.620    501.612   1374.956    501.612    541.430    501.612
 60.170   1546.000   1509.624     36.376    501.704   1476.701    501.704    534.328    501.704
 60.270   1664.000   1546.952    117.048    501.797   1519.289    501.797    529.184    501.797
 60.370   1602.000   1505.216     96.784    501.890   1481.479    501.890    525.403    501.890
 60.470   1461.000   1391.518     69.482    501.984   1370.782    501.984    522.562    501.984
 60.570   1229.086   1234.891     -5.805    502.078   1216.496    502.078    520.374    502.078
 60.670   1119.000   1068.676     50.324    502.172   1052.141    502.172    518.654    502.172
 60.770    857.657    918.712    -61.054    502.267    903.667    502.267    517.287    502.267
 60.870    752.000    799.498    -47.498    502.362    785.645    502.362    516.205    502.362
 60.970    684.000    715.102    -31.102    502.458    702.188    502.458    515.365    502.458
 61.070    635.000    662.654    -27.654    502.553    650.456    502.553    514.743    502.553
 61.170    676.915    636.721     40.194    502.649    625.038    502.649    514.320    502.649
 61.270    666.000    632.959     33.041    502.746    621.606    502.746    514.077    502.746
 61.370    622.647    650.135    -27.488    502.842    638.952    502.842    513.993    502.842
 61.470    654.000    690.294    -36.294    502.939    679.148    502.939    514.035    502.939
 61.570    763.000    757.231      5.769    503.036    746.038    503.036    514.156    503.036
 61.670    891.000    853.646     37.354    503.134    842.392    503.134    514.284    503.134
 61.770   1012.000    977.664     34.336    503.232    966.429    503.232    514.331    503.232
 61.870   1083.000   1119.759    -36.759    503.329   1108.716    503.329    514.207    503.329
 61.970   1209.000   1261.166    -52.166    503.428   1250.543    503.428    513.868    503.428
 62.070   1309.000   1374.992    -65.992    503.526   1365.007    503.526    513.329    503.526
 62.170   1369.000   1432.548    -63.548    503.625   1423.356    503.625    512.658    503.625
 62.270   1329.000   1416.386    -87.386    503.724   1408.053    503.724    511.939    503.724
 62.370   1280.201   1331.274    -51.073    503.823   1323.789    503.823    511.236    503.823
 62.470   1169.000   1200.757    -31.757    503.922   1194.052    503.922    510.593    503.922
 62.570   1027.000   1053.826    -26.826    504.021   1047.806    504.021    510.033    504.021
 62.670    890.000    914.453    -24.453    504.121    909.016    504.121    509.564    504.121
 62.770    757.946    797.553    -39.607    504.220    792.601    504.220    509.184    504.220
 62.870    685.000    708.976    -23.976    504.320    704.423    504.320    508.884    504.320
 62.970    646.000    647.605     -1.605    504.420    643.378    504.420    508.653    504.420
 63.070    586.000    608.367    -22.367    504.520    604.411    504.520    508.480    504.520
 63.170    537.594    585.062    -47.468    504.621    581.331    504.621    508.351    504.621
 63.270    553.098    572.262    -19.164    504.721    568.721    504.721    508.258    504.721
 63.370    605.602    566.171     39.431    504.821    562.795    504.821    508.192    504.821
 63.470    575.483    564.742     10.741    504.922    561.510    504.922    508.147    504.922
 63.570    543.000    567.470    -24.470    505.022    564.364    505.022    508.118    505.022
 63.670    607.526    575.114     32.412    505.123    572.121    505.123    508.102    505.123
 63.770    556.410    589.436    -33.026    505.224    586.542    505.224    508.097    505.224
 63.870    629.310    612.823     16.487    505.325    610.016    505.325    508.102    505.325
 63.970    619.086    647.689    -28.604    505.425    644.957    505.425    508.114    505.425
 64.070    719.952    695.580     24.372    505.526    692.911    505.526    508.134    505.526
 64.170    785.000    756.093     28.907    505.627    753.479    505.627    508.160    505.627
 64.270    796.084    825.856    -29.772    505.728    823.290    505.728    508.192    505.728
 64.370    913.000    897.855     15.145    505.829    895.335    505.829    508.229    505.829
 64.470    913.330    961.634    -48.304    505.930    959.163    505.930    508.272    505.930
 64.570    969.278   1005.472    -36.194    506.031   1003.058    506.031    508.318    506.031
 64.670   1054.000   1020.924     33.076    506.131   1018.574    506.131    508.369    506.131
 64.770   1031.000   1006.565     24.435    506.232   1004.285    506.232    508.424    506.232
 64.870    989.000    967.593     21.407    506.333    965.383    506.333    508.482    506.333
 64.970    933.886    912.997     20.889    506.433    910.854    506.433    508.543    506.433
 65.070    846.000    852.587     -6.587    506.534    850.504    506.534    508.608    506.534
 65.170    821.527    794.294     27.233    506.634    792.262    506.634    508.676    506.634
 65.270    749.000    742.648      6.352    506.735    740.658    506.735    508.746    506.735
 65.370    722.000    699.046     22.954    506.835    697.089    506.835    508.819    506.835
 65.470    671.000    663.168      7.832    506.935    661.236    506.935    508.895    506.935
 65.570    633.000    634.256     -1.256    507.035    632.342    507.035    508.973    507.035
 65.670    636.000    611.534     24.466    507.135    609.635    507.135    509.053    507.135
 65.770    587.000    594.200     -7.200    507.235    592.312    507.235    509.135    507.235
 65.870    594.000    581.446     12.554    507.335    579.569    507.335    509.220    507.335
 65.970    542.000    572.516    -30.516    507.434    570.647    507.434    509.307    507.434
 66.070    556.782    566.724     -9.942    507.533    564.863    507.533    509.395    507.533
 66.170    530.000    563.467    -33.467    507.633    561.614    507.633    509.486    507.633
 66.270    518.309    562.242    -43.933    507.731    560.395    507.731    509.579    507.731
 66.370    562.000    562.674     -0.674    507.830    560.831    507.830    509.673    507.830
 66.470    550.544    564.561    -14.017    507.929    562.720    507.929    509.770    507.929
 66.570    611.041    567.938     43.103    508.027    566.098    508.027    509.868    508.027
 66.670    598.000    573.191     24.809    508.125    571.349    508.125    509.968    508.125
 66.770    594.139    581.256     12.883    508.223    579.410    508.223    510.070    508.223
 66.870    581.000    593.962    -12.962    508.321    592.109    508.321    510.174    508.321
 66.970    632.278    614.493     17.785    508.418    612.630    508.418    510.280    508.418
 67.070    670.000    647.881     22.119    508.515    646.003    508.515    510.388    508.515
 67.170    689.582    701.286    -11.703    508.612    699.391    508.612    510.499    508.612
 67.270    744.000    783.692    -39.692    508.708    781.777    508.708    510.611    508.708
 67.370    847.670    904.605    -56.935    508.805    902.667    508.805    510.725    508.805
 67.470   1034.000   1071.541    -37.541    508.900   1069.581    508.900    510.842    508.900
 67.570   1306.000   1286.551     19.449    508.996   1284.574    508.996    510.961    508.996
 67.670   1558.000   1542.555     15.445    509.091   1540.568    509.091    511.083    509.091
 67.770   1870.133   1820.536     49.597    509.186   1818.552    509.186    511.207    509.186
 67.870   2016.649   2088.613    -71.964    509.281   2086.645    509.281    511.334    509.281
 67.970   2260.000   2304.451    -44.451    509.375   2302.511    509.375    511.464    509.375
 68.070   2494.000   2424.118     69.882    509.469   2422.210    509.469    511.598    509.469
 68.170   2378.584   2418.777    -40.193    509.563   2416.889    509.563    511.734    509.563
 68.270   2333.356   2289.899     43.458    509.656   2288.002    509.656    511.875    509.656
 68.370   2022.000   2068.343    -46.343    509.748   2066.401    509.748    512.019    509.748
 68.470   1829.586   1798.393     31.194    509.841   1796.372    509.841    512.168    509.841
 68.570   1536.000   1521.680     14.320    509.933   1519.556    509.933    512.321    509.933
 68.670   1309.919   1269.022     40.897    510.024   1266.781    510.024    512.479    510.024
 68.770   1060.000   1058.361      1.639    510.115   1055.996    510.115    512.643    510.115
 68.870    941.648    895.884     45.763    510.206    893.394    510.206    512.813    510.206
 68.970    742.000    778.940    -36.940    510.296    776.327    510.296    512.989    510.296
 69.070    690.593    699.728     -9.134    510.386    696.994    510.386    513.173    510.386
 69.170    687.000    648.713     38.287    510.475    645.858    510.475    513.364    510.475
 69.270    602.000    617.031    -15.031    510.564    614.053    510.564    513.565    510.564
 69.370    613.000    597.693     15.307    510.652    594.585    510.652    513.775    510.652
 69.470    600.000    585.819     14.181    510.740    582.573    510.740    513.997    510.740
 69.570    540.718    578.325    -37.606    510.828    574.929    510.828    514.230    510.828
 69.670    577.000    573.415      3.585    510.914    569.857    510.914    514.478    510.914
 69.770    598.000    570.112     27.888    511.001    566.376    511.001    514.740    511.001
 69.870    580.000    567.908     12.092    511.087    563.977    511.087    515.020    511.087
 69.970    532.000    566.550    -34.550    511.172    562.404    511.172    515.320    511.172
 70.070    556.160    565.923     -9.763    511.257    561.538    511.257    515.642    511.257
 70.170    583.861    565.989     17.872    511.341    561.340    511.341    515.990    511.341
 70.270    590.628    566.781     23.847    511.424    561.838    511.424    516.366    511.424
 70.370    570.000    568.417      1.583    511.507    563.146    511.507    516.777    511.507
 70.470    579.000    571.163      7.837    511.590    565.524    511.590    517.226    511.590
 70.570    603.000    575.529     27.471    511.672    569.474    511.672    517.721    511.672
 70.670    572.000    582.441    -10.441    511.753    575.915    511.753    518.271    511.753
 70.770    575.000    593.466    -18.466    511.834    586.401    511.834    518.886    511.834
 70.870    600.617    611.073    -10.456    511.914    603.383    511.914    519.585    511.914
 70.970    644.000    638.843      5.157    511.993    630.418    511.993    520.389    511.993
 71.070    710.469    681.480     28.989    512.072    672.174    512.072    521.336    512.072
 71.170    708.000    744.466    -36.466    512.150    734.070    512.150    522.484    512.150
 71.270    850.222    833.150     17.072    512.227    821.373    512.227    523.919    512.227
 71.370   1012.686    951.313     61.373    512.304    937.731    512.304    525.772    512.304
 71.470   1046.000   1099.357    -53.357    512.380   1083.361    512.380    528.231    512.380
 71.570   1249.388   1272.529    -23.140    512.456   1253.249    512.456    531.561    512.456
 71.670   1428.000   1459.645    -31.645    512.531   1435.872    512.531    536.106    512.531
 71.770   1724.017   1642.742     81.276    512.605   1612.849    512.605    542.287    512.605
 71.870   1829.000   1798.235     30.765    512.678   1760.127    512.678    550.580    512.678
 71.970   1917.310   1900.934     16.375    512.751   1852.045    512.751    561.457    512.751
 72.070   1961.000   1931.952     29.048    512.823   1869.320    512.823    575.307    512.823
 72.170   1867.000   1887.434    -20.434    512.894   1807.884    512.894    592.336    512.894
 72.270   1747.562   1780.729    -33.167    512.965   1681.180    512.965    612.443    512.965
 72.370   1674.037   1635.498     38.540    513.035   1513.390    513.035    635.101    513.035
 72.470   1497.000   1476.254     20.746    513.104   1330.103    513.104    659.234    513.104
 72.570   1334.720   1322.389     12.331    513.172   1152.443    513.172    683.110    513.172
 72.670   1134.030   1185.952    -51.921    513.239    994.894    513.239    704.295    513.239
 72.770   1058.378   1071.703    -13.325    513.306    865.135    513.306    719.873    513.306
 72.870    988.948    978.753     10.195    513.372    764.986    513.372    727.138    513.372
 72.970    853.484    903.255    -49.771    513.437    692.037    513.437    724.653    513.437
 73.070    781.000    840.978    -59.978    513.502    641.519    513.502    712.958    513.502
 73.170    762.000    788.669    -26.669    513.565    607.957    513.565    694.274    513.565
 73.270    688.000    744.206    -56.206    513.628    586.312    513.628    671.520    513.628
 73.370    670.410    706.285    -35.875    513.690    572.572    513.690    647.401    513.690
 73.470    566.000    674.124   -108.124    513.751    563.883    513.751    623.992    513.751
 73.570    589.000    647.265    -58.265    513.811    558.399    513.811    602.678    513.811
 73.670    597.000    625.401    -28.401    513.871    555.035    513.871    584.240    513.871
 73.770    586.000    608.238    -22.238    513.929    553.201    513.929    568.972    513.929
 73.870    602.000    595.399      6.601    513.987    552.590    513.987    556.805    513.987
 73.970    594.000    586.388      7.612    514.044    553.018    514.044    547.427    514.044
 74.070    608.490    580.594     27.897    514.100    554.319    514.100    540.394    514.100
 74.170    597.000    577.315     19.685    514.155    556.270    514.155    535.224    514.155
 74.270    604.000    575.789     28.211    514.209    558.561    514.209    531.468    514.209
 74.370    665.000    575.221     89.779    514.262    560.780    514.262    528.740    514.262
 74.470    550.333    574.828    -24.495    514.315    562.446    514.315    526.738    514.315
 74.570    591.000    573.928     17.072    514.366    563.099    514.366    525.238    514.366
 74.670    614.000    572.073     41.927    514.417    562.451    514.417    524.084    514.417
 74.770    644.000    569.170     74.830    514.467    560.512    514.467    523.167    514.467
 74.870    517.791    565.463    -47.671    514.515    557.597    514.515    522.419    514.515
 74.970    565.287    561.397      3.890    514.563    554.199    514.563    521.793    514.563
 75.070    530.138    557.482    -27.345    514.610    550.858    514.610    521.260    514.610
 75.170    564.000    554.216      9.784    514.656    548.091    514.656    520.800    514.656
 75.270    510.192    552.071    -41.878    514.701    546.385    514.701    520.400    514.701
 75.370    576.000    551.513     24.487    514.745    546.216    514.745    520.048    514.745
 75.470    569.000    553.026     15.974    514.788    548.077    514.788    519.738    514.788
 75.570    547.512    557.118     -9.606    514.829    552.479    514.829    519.464    514.829
 75.670    550.000    564.294    -14.294    514.870    559.933    514.870    519.221    514.870
 75.770    560.031    574.975    -14.944    514.910    570.864    514.910    519.004    514.910
 75.870    603.000    589.368     13.632    514.949    585.482    514.949    518.811    514.949
 75.970    621.000    607.302     13.698    514.987    603.619    514.987    518.638    514.987
 76.070    607.000    628.078    -21.078    515.024    624.579    515.024    518.482    515.024
 76.170    617.000    650.360    -33.360    515.060    647.028    515.060    518.343    515.060
 76.270    686.000    672.149     13.851    515.095    668.970    515.095    518.217    515.095
 76.370    701.000    690.876     10.124    515.129    687.840    515.129    518.103    515.129
 76.470    757.589    703.725     53.864    515.162    700.823    515.162    518.000    515.162
 76.570    692.000    708.333    -16.333    515.194    705.558    515.194    517.907    515.194
 76.670    691.000    703.712    -12.712    515.225    701.058    515.225    517.822    515.225
 76.770    693.000    690.730      2.270    515.254    688.191    515.254    517.745    515.254
 76.870    658.000    671.678    -13.678    515.283    669.247    515.283    517.675    515.283
 76.970    644.000    649.352     -5.352    515.311    647.021    515.311    517.611    515.311
 77.070    671.998    626.325     45.673    515.337    624.088    515.337    517.552    515.337
 77.170    568.000    604.609    -36.609    515.362    602.458    515.362    517.498    515.362
 77.270    569.000    585.537    -16.537    515.387    583.465    515.387    517.448    515.387
 77.370    595.000    569.786     25.214    515.410    567.786    515.410    517.403    515.410
 77.470    545.757    557.472    -11.715    515.432    555.539    515.432    517.360    515.432
 77.570    584.431    548.311     36.120    515.453    546.439    515.453    517.321    515.453
 77.670    545.856    541.784      4.073    515.473    539.970    515.473    517.285    515.473
 77.770    481.000    537.298    -56.298    515.492    535.538    515.492    517.251    515.492
 77.870    513.000    534.296    -21.296    515.509    532.585    515.509    517.219    515.509
 77.970    498.966    532.313    -33.347    515.526    530.649    515.526    517.189    515.526
 78.070    523.000    531.002     -8.002    515.541    529.381    515.541    517.162    515.541
 78.170    474.000    530.121    -56.121    515.556    528.541    515.556    517.135    515.556
 78.270    484.000    529.516    -45.516    515.569    527.974    515.569    517.110    515.569
 78.370    549.000    529.093     19.907    515.581    527.587    515.581    517.087    515.581
 78.470    533.000    528.801      4.199    515.592    527.327    515.592    517.065    515.592
 78.570    495.157    528.597    -33.440    515.601    527.154    515.601    517.043    515.601
 78.670    491.461    528.491    -37.030    515.610    527.076    515.610    517.024    515.610
 78.770    528.000    528.521     -0.521    515.617    527.132    515.617    517.005    515.617
 78.870    536.000    528.686      7.314    515.623    527.321    515.623    516.988    515.623
 78.970    548.487    529.007     19.480    515.628    527.663    515.628    516.972    515.628
 79.070    549.000    529.516     19.484    515.632    528.189    515.632    516.958    515.632
 79.170    496.403    530.244    -33.842    515.635    528.930    515.635    516.947    515.635
 79.270    515.079    531.223    -16.144    515.636    529.918    515.636    516.938    515.636
 79.370    513.000    532.480    -19.480    515.636    531.180    515.636    516.933    515.636
 79.470    490.000    534.041    -44.041    515.635    532.740    515.635    516.933    515.635
 79.570    531.000    535.938     -4.938    515.633    534.630    515.633    516.937    515.633
 79.670    541.000    538.215      2.785    515.630    536.893    515.630    516.947    515.630
 79.770    580.000    540.950     39.050    515.625    539.607    515.625    516.962    515.625
 79.870    545.269    544.274      0.995    515.619    542.904    515.619    516.984    515.619
 79.970    536.095    548.399    -12.304    515.612    546.994    515.612    517.011    515.612
 80.070    595.000    553.641     41.359    515.604    552.197    515.604    517.043    515.604
 80.170    559.374    560.424     -1.050    515.594    558.937    515.594    517.078    515.594
 80.270    569.000    569.233     -0.233    515.584    567.702    515.584    517.113    515.584
 80.370    599.000    580.514     18.486    515.572    578.942    515.572    517.145    515.572
 80.470    590.000    594.557     -4.557    515.558    592.951    515.558    517.169    515.558
 80.570    582.800    611.391    -28.591    515.544    609.764    515.544    517.180    515.544
 80.670    588.191    630.695    -42.505    515.528    629.064    515.528    517.174    515.528
 80.770    650.000    651.758     -1.758    515.511    650.142    515.511    517.146    515.511
 80.870    602.000    673.496    -71.496    515.493    671.915    515.493    517.098    515.493
 80.970    689.000    694.572     -5.572    515.473    693.045    515.473    517.032    515.473
 81.070    702.000    713.592    -11.592    515.453    712.131    515.453    516.952    515.453
 81.170    712.000    729.287    -17.287    515.431    727.898    515.431    516.865    515.431
 81.270    767.000    740.629     26.371    515.407    739.314    515.407    516.774    515.407
 81.370    789.000    746.905     42.095    515.383    745.663    515.383    516.682    515.383
 81.470    803.012    747.800     55.212    515.357    746.625    515.357    516.594    515.357
 81.570    756.000    743.410     12.590    515.330    742.295    515.330    516.509    515.330
 81.670    755.753    734.197     21.556    515.301    733.136    515.301    516.430    515.301
 81.770    752.539    720.974     31.565    515.272    719.958    515.272    516.356    515.272
 81.870    719.000    704.876     14.124    515.241    703.897    515.241    516.287    515.241
 81.970    700.000    687.202     12.798    515.208    686.252    515.208    516.223    515.208
 82.070    714.681    669.140     45.541    515.175    668.214    515.175    516.163    515.175
 82.170    629.970    651.549    -21.579    515.140    650.641    515.140    516.107    515.140
 82.270    619.857    634.906    -15.049    515.104    634.011    515.104    516.053    515.104
 82.370    633.000    619.414     13.586    515.066    618.528    515.066    516.002    515.066
 82.470    617.000    605.172     11.828    515.028    604.293    515.028    515.951    515.028
 82.570    567.000    592.303    -25.303    514.987    591.428    514.987    515.901    514.987
 82.670    573.000    580.974     -7.974    514.946    580.101    514.946    515.852    514.946
 82.770    574.953    571.364      3.590    514.903    570.491    514.903    515.802    514.903
 82.870    540.000    563.620    -23.620    514.859    562.746    514.859    515.753    514.859
 82.970    571.727    557.849     13.878    514.814    556.972    514.814    515.702    514.814
 83.070    538.000    554.105    -16.105    514.767    553.225    514.767    515.652    514.767
 83.170    535.000    552.372    -17.372    514.719    551.488    514.719    515.600    514.719
 83.270    528.000    552.547    -24.547    514.670    551.659    514.670    515.548    514.670
 83.370    526.000    554.424    -28.424    514.620    553.532    514.620    515.494    514.620
 83.470    498.000    557.681    -59.681    514.568    556.784    514.568    515.440    514.568
 83.570    542.000    561.884    -19.884    514.514    560.982    514.514    515.385    514.514
 83.670    533.321    566.493    -33.173    514.460    565.587    514.460    515.330    514.460
 83.770    550.000    570.896    -20.896    514.404    569.986    514.404    515.273    514.404
 83.870    577.000    574.445      2.555    514.347    573.533    514.347    515.215    514.347
 83.970    613.587    576.549     37.038    514.288    575.636    514.288    515.156    514.288
 84.070    583.000    576.793      6.207    514.228    575.880    514.228    515.096    514.228
 84.170    608.899    575.049     33.851    514.167    574.139    514.167    515.036    514.167
 84.270    559.152    571.511    -12.360    514.105    570.604    514.105    514.974    514.105
 84.370    530.664    566.614    -35.950    514.041    565.710    514.041    514.911    514.041
 84.470    543.000    560.893    -17.893    513.975    559.993    513.975    514.847    513.975
 84.570    546.000    554.876     -8.876    513.909    553.980    513.909    514.782    513.909
 84.670    540.099    549.012     -8.913    513.841    548.118    513.841    514.717    513.841
 84.770    501.000    543.639    -42.639    513.772    542.747    513.772    514.650    513.772
 84.870    535.000    538.975     -3.975    513.701    538.083    513.701    514.582    513.701
 84.970    508.959    535.123    -26.164    513.629    534.231    513.629    514.513    513.629
 85.070    580.000    532.092     47.908    513.556    531.199    513.556    514.443    513.556
 85.170    531.000    529.823      1.177    513.482    528.927    513.482    514.372    513.482
 85.270    581.000    528.216     52.784    513.406    527.317    513.406    514.300    513.406
 85.370    544.000    527.163     16.837    513.329    526.260    513.329    514.227    513.329
 85.470    502.982    526.564    -23.582    513.250    525.656    513.250    514.153    513.250
 85.570    493.000    526.344    -33.344    513.170    525.431    513.170    514.078    513.170
 85.670    490.000    526.464    -36.464    513.089    525.545    513.089    514.002    513.089
 85.770    494.573    526.924    -32.351    513.006    525.998    513.006    513.925    513.006
 85.870    508.656    527.766    -19.110    512.922    526.834    512.922    513.848    512.922
 85.970    518.020    529.079    -11.059    512.837    528.138    512.837    513.769    512.837
 86.070    543.000    530.990     12.010    512.751    530.039    512.751    513.689    512.751
 86.170    507.000    533.663    -26.663    512.663    532.702    512.663    513.608    512.663
 86.270    559.000    537.288     21.712    512.574    536.315    512.574    513.526    512.574
 86.370    568.552    542.057     26.496    512.483    541.069    512.483    513.444    512.483
 86.470    558.000    548.134      9.866    512.391    547.131    512.391    513.360    512.391
 86.570    552.000    555.626     -3.626    512.298    554.605    512.298    513.276    512.298
 86.670    595.891    564.533     31.358    512.203    563.492    512.203    513.191    512.203
 86.770    620.098    574.713     45.385    512.108    573.651    512.108    513.104    512.108
 86.870    546.126    585.849    -39.723    512.010    584.765    512.010    513.017    512.010
 86.970    628.000    597.433     30.567    511.912    596.326    511.912    512.930    511.912
 87.070    654.000    608.767     45.233    511.812    607.638    511.812    512.841    511.812
 87.170    591.358    618.994    -27.635    511.711    617.844    511.711    512.752    511.711
 87.270    620.062    627.167     -7.105    511.609    625.999    511.609    512.662    511.609
 87.370    669.000    632.433     36.567    511.505    631.251    511.505    512.571    511.505
 87.470    624.680    634.195     -9.514    511.400    633.001    511.400    512.480    511.400
 87.570    653.000    632.289     20.711    511.293    631.089    511.293    512.388    511.293
 87.670    588.262    627.056    -38.794    511.186    625.850    511.186    512.295    511.186
 87.770    608.074    619.220    -11.146    511.077    618.011    511.077    512.202    511.077
 87.870    659.757    609.712     50.045    510.967    608.500    510.967    512.108    510.967
 87.970    645.751    599.513     46.238    510.855    598.297    510.855    512.014    510.855
 88.070    588.000    589.544     -1.544    510.742    588.323    510.742    511.920    510.742
 88.170    595.000    580.602     14.398    510.628    579.373    510.628    511.825    510.628
 88.270    608.000    573.310     34.690    510.513    572.072    510.513    511.730    510.513
 88.370    593.000    568.097     24.903    510.396    566.846    510.396    511.635    510.396
 88.470    568.000    565.189      2.811    510.278    563.925    510.278    511.539    510.278
 88.570    612.867    564.616     48.251    510.158    563.336    510.158    511.444    510.158
 88.670    569.718    566.224      3.494    510.038    564.927    510.038    511.348    510.038
 88.770    584.000    569.698     14.302    509.916    568.381    509.916    511.253    509.916
 88.870    646.000    574.578     71.422    509.793    573.241    509.793    511.158    509.793
 88.970    613.000    580.290     32.710    509.669    578.931    509.669    511.063    509.669
 89.070    553.903    586.172    -32.269    509.543    584.788    509.543    510.969    509.543
 89.170    627.000    591.509     35.491    509.416    590.099    509.416    510.876    509.416
 89.270    629.784    595.598     34.186    509.288    594.158    509.288    510.783    509.288
 89.370    596.000    597.836     -1.836    509.158    596.363    509.158    510.691    509.158
 89.470    609.000    597.835     11.165    509.028    596.324    509.028    510.601    509.028
 89.570    592.912    595.513     -2.601    508.896    593.959    508.896    510.511    508.896
 89.670    557.000    591.099    -34.099    508.763    589.498    508.763    510.424    508.763
 89.770    560.000    585.054    -25.054    508.628    583.400    508.628    510.339    508.628
 89.870    564.000    577.947    -13.947    508.493    576.235    508.493    510.255    508.493
 89.970    569.137    570.347     -1.210    508.356    568.573    508.356    510.175    508.356
 90.070    564.000    562.763      1.237    508.218    560.921    508.218    510.097    508.218
 90.170    531.569    555.601    -24.033    508.079    553.688    508.079    510.024    508.079
 90.270    509.000    549.156    -40.156    507.938    547.165    507.938    509.954    507.938
 90.370    544.000    543.606      0.394    507.796    541.532    507.796    509.890    507.796
 90.470    525.000    539.027    -14.027    507.654    536.863    507.654    509.832    507.654
 90.570    509.000    535.409    -26.409    507.509    533.148    507.509    509.782    507.509
 90.670    486.000    532.685    -46.685    507.364    530.316    507.364    509.741    507.364
 90.770    491.000    530.749    -39.749    507.218    528.260    507.218    509.712    507.218
 90.870    545.000    529.490     15.510    507.070    526.865    507.070    509.698    507.070
 90.970    513.508    528.801    -15.294    506.921    526.020    506.921    509.704    506.921
 91.070    512.000    528.602    -16.602    506.771    525.639    506.771    509.735    506.771
 91.170    534.394    528.845      5.549    506.620    525.665    506.620    509.799    506.620
 91.270    531.000    529.522      1.478    506.468    526.082    506.468    509.906    506.468
 91.370    525.000    530.667     -5.667    506.315    526.912    506.315    510.067    506.315
 91.470    546.000    532.363     13.637    506.160    528.221    506.160    510.298    506.160
 91.570    546.426    534.729     11.697    506.004    530.112    506.004    510.616    506.004
 91.670    544.288    537.897      6.391    505.848    532.697    505.848    511.040    505.848
 91.770    589.758    542.143     47.615    505.690    536.228    505.690    511.594    505.690
 91.870    542.000    547.684     -5.684    505.531    540.900    505.531    512.302    505.531
 91.970    537.000    554.750    -17.750    505.370    546.916    505.370    513.188    505.370
 92.070    523.348    563.577    -40.228    505.209    554.491    505.209    514.273    505.209
 92.170    559.000    574.357    -15.357    505.047    563.798    505.047    515.579    505.047
 92.270    569.359    587.222    -17.864    504.883    574.955    504.883    517.118    504.883
 92.370    593.000    602.211     -9.211    504.719    587.995    504.719    518.895    504.719
 92.470    649.299    619.240     30.060    504.553    602.841    504.553    520.905    504.553
 92.570    652.000    638.085     13.915    504.387    619.290    504.387    523.129    504.387
 92.670    665.000    658.367      6.633    504.219    636.995    504.219    525.531    504.219
 92.770    697.000    679.543     17.457    504.050    655.470    504.050    528.057    504.050
 92.870    674.000    700.928    -26.928    503.881    674.108    503.881    530.629    503.881
 92.970    710.164    721.742    -11.579    503.710    692.228    503.710    533.148    503.710
 93.070    705.000    741.209    -36.209    503.538    709.183    503.538    535.486    503.538
 93.170    793.000    758.691     34.309    503.365    724.480    503.365    537.497    503.365
 93.270    762.000    773.798    -11.798    503.191    737.885    503.191    539.025    503.191
 93.370    794.310    786.422      7.888    503.016    749.433    503.016    539.927    503.016
 93.470    780.000    796.706    -16.706    502.841    759.368    502.841    540.103    502.841
 93.570    861.000    804.956     56.044    502.664    768.028    502.664    539.518    502.664
 93.670    831.883    811.562     20.321    502.486    775.760    502.486    538.216    502.486
 93.770    847.000    817.007     29.993    502.307    782.939    502.307    536.307    502.307
 93.870    875.000    821.877     53.123    502.128    790.002    502.128    533.936    502.128
 93.970    791.432    826.848    -35.416    501.947    797.469    501.947    531.261    501.947
 94.070    808.000    832.593    -24.593    501.765    805.870    501.765    528.426    501.765
 94.170    841.201    839.615      1.586    501.583    815.583    501.583    525.554    501.583
 94.270    885.000    848.069     36.931    501.399    826.668    501.399    522.741    501.399
 94.370    888.000    857.650     30.350    501.215    838.746    501.215    520.063    501.215
 94.470    930.000    867.565     62.435    501.030    850.971    501.030    517.570    501.030
 94.570    907.000    876.590     30.410    500.844    862.089    500.844    515.295    500.844
 94.670    821.319    883.210    -61.891    500.657    870.567    500.657    513.256    500.657
 94.770    879.689    885.840     -6.151    500.469    874.815    500.469    511.457    500.469
 94.870    972.000    883.125     88.875    500.281    873.485    500.281    509.892    500.281
 94.970    927.000    874.266     52.734    500.091    865.792    500.091    508.545    500.091
 95.070    869.358    859.240     10.118    499.901    851.731    499.901    507.398    499.901
 95.170    868.000    838.817     29.183    499.710    832.096    499.710    506.427    499.710
 95.270    818.000    814.391      3.609    499.518    808.303    499.518    505.607    499.518
 95.370    825.000    787.723     37.277    499.325    782.137    499.325    504.917    499.325
 95.470    798.439    760.714     37.725    499.131    755.520    499.131    504.333    499.131
 95.570    727.573    735.240     -7.667    498.937    730.349    498.937    503.836    498.937
 95.670    744.000    713.062     30.938    498.742    708.401    498.742    503.409    498.742
 95.770    740.667    695.764     44.903    498.546    691.275    498.546    503.038    498.546
 95.870    705.054    684.733     20.321    498.350    680.369    498.350    502.712    498.350
 95.970    707.000    681.136     25.864    498.152    676.859    498.152    502.421    498.152
 96.070    668.000    685.988    -17.988    497.954    681.768    497.954    502.158    497.954
 96.170    714.000    700.067     13.933    497.756    695.878    497.756    501.919    497.756
 96.270    741.000    723.942     17.058    497.556    719.763    497.556    501.699    497.556
 96.370    762.000    757.931      4.069    497.356    753.745    497.356    501.495    497.356
 96.470    800.000    802.030     -2.030    497.155    797.821    497.155    501.306    497.155
 96.570    869.283    855.818     13.465    496.954    851.572    496.954    501.131    496.954
 96.670    882.315    918.356    -36.041    496.752    914.059    496.752    500.968    496.752
 96.770    948.953    988.102    -39.149    496.549    983.744    496.549    500.817    496.549
 96.870   1058.000   1062.856     -4.856    496.346   1058.427    496.346    500.678    496.346
 96.970   1130.000   1139.732     -9.732    496.142   1135.222    496.142    500.551    496.142
 97.070   1242.000   1215.199     26.801    495.938   1210.599    495.938    500.436    495.938
 97.170   1225.325   1285.197    -59.872    495.733   1280.499    495.733    500.333    495.733
 97.270   1345.271   1345.375     -0.103    495.527   1340.569    495.527    500.243    495.527
 97.370   1447.978   1391.504     56.475    495.321   1386.582    495.321    500.168    495.321
 97.470   1375.000   1420.070    -45.070    495.114   1415.020    495.114    500.107    495.114
 97.570   1408.000   1428.916    -20.916    494.907   1423.724    494.907    500.063    494.907
 97.670   1403.000   1417.683    -14.683    494.699   1412.330    494.699    500.037    494.699
 97.770   1312.352   1387.822    -75.470    494.491   1382.287    494.491    500.032    494.491
 97.870   1294.761   1342.216    -47.455    494.283   1336.472    494.283    500.050    494.283
 97.970   1261.000   1284.604    -23.604    494.073   1278.618    494.073    500.097    494.073
 98.070   1253.921   1219.058     34.863    493.864   1212.793    493.864    500.176    493.864
 98.170   1179.000   1149.616     29.384    493.654   1143.027    493.654    500.296    493.654
 98.270   1076.000   1080.043     -4.043    493.444   1073.075    493.444    500.466    493.444
 98.370    994.000   1013.688    -19.688    493.233   1006.276    493.233    500.699    493.233
 98.470    961.480    953.418      8.062    493.022    945.480    493.022    501.009    493.022
 98.570    925.000    901.593     23.407    492.810    893.027    492.810    501.419    492.810
 98.670    893.000    860.089     32.911    492.598    850.768    492.598    501.953    492.598
 98.770    814.000    830.340    -16.340    492.386    820.109    492.386    502.643    492.386
 98.870    856.378    813.415     42.962    492.173    802.074    492.173    503.530    492.173
 98.970    811.000    810.079      0.921    491.961    797.384    491.961    504.662    491.961
 99.070    786.400    820.856    -34.456    491.747    806.508    491.747    506.092    491.747
 99.170    800.000    846.062    -46.062    491.534    829.703    491.534    507.882    491.534
 99.270    889.000    885.802      3.198    491.320    867.005    491.320    510.099    491.320
 99.370    954.396    939.930     14.466    491.107    918.198    491.107    512.816    491.107
 99.470    953.000   1007.975    -54.975    490.892    982.738    490.892    516.104    490.892
 99.570   1075.000   1089.044    -14.044    490.678   1059.663    490.678    520.033    490.678
 99.670   1222.000   1181.769     40.231    490.464   1147.546    490.464    524.664    490.464
 99.770   1254.676   1284.164    -29.487    490.249   1244.352    490.249    530.044    490.249
 99.870   1435.000   1393.572     41.428    490.034   1347.400    490.034    536.201    490.034
 99.970   1576.942   1506.668     70.275    489.819   1453.361    489.819    543.135    489.819
100.070   1707.000   1619.514     87.486    489.604   1558.333    489.604    550.814    489.604
100.170   1730.622   1727.761      2.861    489.389   1658.035    489.389    559.166    489.389
100.270   1762.445   1826.968    -64.523    489.174   1748.142    489.174    568.076    489.174
100.370   1951.000   1913.000     38.000    488.958   1824.686    488.958    577.376    488.958
100.470   2070.000   1982.376     87.624    488.743   1884.405    488.743    586.845    488.743
100.570   2038.000   2032.421      5.579    488.528   1924.903    488.528    596.200    488.528
100.670   2046.073   2061.251    -15.178    488.312   1944.641    488.312    605.100    488.312
100.770   2202.000   2067.735    134.265    488.097   1942.881    488.097    613.147    488.097
100.870   2012.460   2051.590    -39.130    487.882   1919.772    487.882    619.910    487.882
100.970   2025.000   2013.641     11.359    487.666   1876.566    487.666    624.959    487.666
101.070   2028.000   1956.070     71.930    487.451   1815.814    487.451    627.929    487.451
101.170   1867.000   1882.427    -15.427    487.236   1741.306    487.236    628.575    487.236
101.270   1766.000   1797.304    -31.304    487.021   1657.707    487.021    626.830    487.021
101.370   1645.946   1705.782    -59.836    486.806   1569.974    486.806    622.815    486.806
101.470   1645.204   1612.838     32.366    486.591   1482.801    486.591    616.815    486.591
101.570   1484.000   1522.876    -38.876    486.377   1400.201    486.377    609.222    486.377
101.670   1439.000   1439.423     -0.423    486.162   1325.267    486.162    600.471    486.162
101.770   1327.636   1364.978    -37.341    485.948   1260.075    485.948    590.988    485.948
101.870   1282.000   1300.968    -18.968    485.734   1205.669    485.734    581.155    485.734
101.970   1166.000   1247.784    -81.784    485.521   1162.115    485.521    571.298    485.521
102.070   1188.000   1204.870    -16.870    485.307   1128.595    485.307    561.680    485.307
102.170   1223.876   1170.859     53.017    485.094   1103.535    485.094    552.508    485.094
102.270   1090.865   1143.749    -52.884    484.881   1084.781    484.881    543.933    484.881
102.370   1148.000   1121.123     26.877    484.669   1069.816    484.669    536.057    484.669
102.470   1088.000   1100.423    -12.423    484.457   1056.020    484.457    528.939    484.457
102.570   1132.680   1079.256     53.424    484.245   1040.980    484.245    522.602    484.245
102.670    994.000   1055.711    -61.711    484.034   1022.789    484.034    517.037    484.034
102.770    976.000   1028.580    -52.580    483.823   1000.275    483.823    512.210    483.823
102.870   1007.850    997.442     10.408    483.612    973.067    483.612    508.069    483.612
102.970   1017.502    962.570     54.932    483.402    941.503    483.402    504.551    483.402
103.070    905.092    924.743    -19.651    483.193    906.431    483.193    501.583    483.193
103.170    867.000    885.020    -18.020    482.984    868.985    482.984    499.094    482.984
103.270    822.503    844.566    -22.064    482.775    830.398    482.775    497.014    482.775
103.370    800.000    804.515     -4.515    482.567    791.872    482.567    495.275    482.567
103.470    818.000    765.888     52.112    482.360    754.489    482.360    493.818    482.360
103.570    748.000    729.542     18.458    482.153    719.156    482.153    492.591    482.153
103.670    674.000    696.131    -22.131    481.947    686.574    481.947    491.549    481.947
103.770    647.900    666.100    -18.200    481.742    657.226    481.742    490.655    481.742
103.870    637.000    639.684     -2.684    481.537    631.375    481.537    489.878    481.537
103.970    614.000    616.927     -2.927    481.333    609.092    481.333    489.195    481.333
104.070    622.000    597.713     24.287    481.130    590.279    481.130    488.585    481.130
104.170    559.543    581.803    -22.261    480.927    574.713    480.927    488.034    480.927
104.270    582.860    568.879     13.981    480.725    562.086    480.725    487.531    480.725
104.370    556.254    558.574     -2.320    480.524    552.042    480.524    487.067    480.524
104.470    570.714    550.515     20.198    480.324    544.212    480.324    486.634    480.324
104.570    551.234    544.345      6.889    480.125    538.245    480.125    486.229    480.125
104.670    533.000    539.731     -6.731    479.926    533.813    479.926    485.847    479.926
104.770    570.000    536.407     33.593    479.729    530.651    479.729    485.485    479.729
104.870    534.175    534.144      0.032    479.532    528.534    479.532    485.141    479.532
104.970    549.000    532.768     16.232    479.336    527.289    479.336    484.813    479.336
105.070    554.000    532.161     21.839    479.142    526.798    479.142    484.500    479.142
105.170    577.000    532.252     44.748    478.948    526.994    478.948    484.200    478.948
105.270    514.222    533.015    -18.793    478.755    527.851    478.755    483.913    478.755
105.370    531.000    534.466     -3.466    478.563    529.384    478.563    483.637    478.563
105.470    560.000    536.652     23.348    478.373    531.642    478.373    483.373    478.373
105.570    503.000    539.647    -36.647    478.183    534.700    478.183    483.118    478.183
105.670    575.000    543.544     31.456    477.995    538.651    477.995    482.873    477.995
105.770    550.000    548.440      1.560    477.808    543.593    477.808    482.638    477.808
105.870    557.000    554.422      2.578    477.622    549.614    477.622    482.411    477.622
105.970    601.596    561.555     40.040    477.437    556.777    477.437    482.193    477.437
106.070    587.000    569.866     17.134    477.253    565.111    477.253    481.984    477.253
106.170    559.889    579.332    -19.443    477.071    574.593    477.071    481.782    477.071
106.270    575.000    589.872    -14.872    476.890    585.143    476.890    481.588    476.890
106.370    612.000    601.339     10.661    476.711    596.613    476.711    481.401    476.711
106.470    598.000    613.520    -15.520    476.532    608.792    476.532    481.222    476.532
106.570    603.526    626.138    -22.612    476.355    621.402    476.355    481.050    476.355
106.670    644.000    638.856      5.144    476.180    634.107    476.180    480.886    476.180
106.770    675.818    651.290     24.528    476.006    646.523    476.006    480.728    476.006
106.870    660.000    663.027     -3.027    475.833    658.237    475.833    480.578    475.833
106.970    665.000    673.646     -8.646    475.662    668.828    475.662    480.435    475.662
107.070    651.000    682.763    -31.763    475.493    677.913    475.493    480.299    475.493
107.170    672.000    690.073    -18.073    475.324    685.185    475.324    480.170    475.324
107.270    650.000    695.403    -45.403    475.158    690.474    475.158    480.048    475.158
107.370    681.000    698.753    -17.753    474.993    693.776    474.993    479.934    474.993
107.470    698.829    700.300     -1.472    474.830    695.272    474.830    479.827    474.830
107.570    739.516    700.375     39.141    474.669    695.288    474.669    479.727    474.669
107.670    665.771    699.402    -33.631    474.509    694.251    474.509    479.635    474.509
107.770    722.253    697.838     24.415    474.351    692.618    474.351    479.551    474.351
107.870    672.000    696.112    -24.112    474.194    690.816    474.194    479.475    474.194
107.970    710.000    694.580     15.420    474.040    689.201    474.040    479.408    474.040
108.070    703.719    693.497     10.222    473.887    688.029    473.887    479.349    473.887
108.170    662.000    692.999    -30.999    473.736    687.433    473.736    479.298    473.736
108.270    722.219    693.093     29.126    473.588    687.424    473.588    479.257    473.588
108.370    675.000    693.662    -18.662    473.441    687.881    473.441    479.225    473.441
108.470    710.341    694.470     15.871    473.295    688.570    473.295    479.203    473.295
108.570    662.000    695.185    -33.185    473.152    689.157    473.152    479.191    473.152
108.670    649.729    695.406    -45.677    473.011    689.242    473.011    479.190    473.011
108.770    640.603    694.712    -54.108    472.872    688.401    472.872    479.199    472.872
108.870    661.000    692.715    -31.715    472.736    686.249    472.736    479.221    472.736
108.970    695.000    689.123      5.877    472.601    682.490    472.601    479.254    472.601
109.070    675.638    683.780     -8.142    472.468    676.970    472.468    479.301    472.468
109.170    698.116    676.692     21.424    472.338    669.692    472.338    479.360    472.338
109.270    686.000    668.013     17.987    472.209    660.811    472.209    479.435    472.209
109.370    644.422    658.010    -13.587    472.083    650.593    472.083    479.524    472.083
109.470    624.000    647.020    -23.020    471.960    639.373    471.960    479.629    471.960
109.570    655.000    635.410     19.590    471.838    627.518    471.838    479.752    471.838
109.670    600.000    623.545    -23.545    471.719    615.391    471.719    479.893    471.719
109.770    623.690    611.765     11.925    471.603    603.332    471.603    480.054    471.603
109.870    575.000    600.375    -25.375    471.488    591.643    471.488    480.236    471.488
109.970    577.335    589.631    -12.296    471.377    580.580    471.377    480.442    471.377
110.070    609.000    579.739     29.261    471.267    570.344    471.267    480.674    471.267
110.170    559.493    570.845    -11.352    471.161    561.082    471.161    480.934    471.161
110.270    613.000    563.025     49.975    471.056    552.863    471.056    481.226    471.056
110.370    521.000    556.354    -35.354    470.955    545.761    470.955    481.554    470.955
110.470    534.180    550.856    -16.676    470.856    539.792    470.856    481.924    470.856
110.570    577.000    546.477     30.523    470.760    534.898    470.760    482.341    470.760
110.670    546.000    543.156      2.844    470.666    531.009    470.666    482.814    470.666
110.770    536.000    540.814     -4.814    470.575    528.037    470.575    483.351    470.575
110.870    540.073    539.360      0.713    470.487    525.883    470.487    483.962    470.487
110.970    493.729    538.713    -44.984    470.402    524.443    470.402    484.669    470.402
111.070    544.000    538.785      5.215    470.319    523.614    470.319    485.486    470.319
111.170    539.000    539.498     -0.498    470.240    523.296    470.240    486.437    470.240
111.270    505.080    540.788    -35.708    470.163    523.399    470.163    487.546    470.163
111.370    495.177    542.607    -47.430    470.090    523.844    470.090    488.845    470.090
111.470    523.000    544.922    -21.922    470.019    524.561    470.019    490.372    470.019
111.570    519.000    547.719    -28.719    469.951    525.491    469.951    492.171    469.951
111.670    554.470    550.999      3.472    469.887    526.586    469.887    494.290    469.887
111.770    555.000    554.782      0.218    469.825    527.811    469.825    496.787    469.825
111.870    598.000    559.108     38.892    469.767    529.140    469.767    499.725    469.767
111.970    547.518    564.030    -16.512    469.712    530.559    469.712    503.173    469.712
112.070    582.000    569.619     12.381    469.660    532.065    469.660    507.204    469.660
112.170    574.000    575.953     -1.953    469.611    533.664    469.611    511.890    469.611
112.270    579.255    583.144     -3.889    469.566    535.373    469.566    517.327    469.566
112.370    633.000    591.291     41.709    469.524    537.216    469.524    523.588    469.524
112.470    608.299    600.501      7.798    469.486    539.226    469.486    530.749    469.486
112.570    566.000    610.886    -44.886    469.450    541.444    469.450    538.881    469.450
112.670    582.000    622.558    -40.558    469.419    543.921    469.419    548.043    469.419
112.770    635.664    635.625      0.039    469.390    546.722    469.390    558.281    469.390
112.870    672.000    650.198     21.802    469.366    549.930    469.366    569.620    469.366
112.970    692.000    666.384     25.616    469.345    553.650    469.345    582.065    469.345
113.070    684.000    684.299     -0.299    469.327    558.022    469.327    595.589    469.327
113.170    660.000    704.069    -44.069    469.314    563.228    469.314    610.138    469.314
113.270    740.000    725.840     14.160    469.303    569.507    469.303    625.618    469.303
113.370    781.205    749.795     31.411    469.297    577.172    469.297    641.899    469.297
113.470    736.000    776.166    -40.166    469.295    586.631    469.295    658.806    469.295
113.570    783.000    805.258    -22.258    469.296    598.408    469.296    676.119    469.296
113.670    813.490    837.468    -23.978    469.301    613.169    469.301    693.569    469.301
113.770    869.000    873.314     -4.314    469.310    631.750    469.310    710.837    469.310
113.870    878.000    913.459    -35.459    469.323    655.185    469.323    727.553    469.323
113.970    979.000    958.743     20.257    469.340    684.730    469.340    743.300    469.340
114.070   1052.387   1010.210     42.177    469.361    721.884    469.361    757.623    469.361
114.170   1066.881   1069.143     -2.263    469.386    768.401    469.386    770.050    469.386
114.270   1186.134   1137.091     49.043    469.416    826.293    469.416    780.117    469.416
114.370   1189.000   1215.887    -26.887    469.449    897.811    469.449    787.408    469.449
114.470   1242.609   1307.661    -65.052    469.487    985.409    469.487    791.596    469.487
114.570   1441.000   1414.812     26.188    469.529   1091.683    469.529    792.485    469.529
114.670   1563.362   1539.949     23.413    469.575   1219.283    469.575    790.032    469.575
114.770   1665.194   1685.777    -20.583    469.626   1370.796    469.626    784.359    469.626
114.870   1941.217   1854.940     86.277    469.681   1548.598    469.681    775.730    469.681
114.970   2214.000   2049.814    164.186    469.740   1754.693    469.740    764.521    469.740
115.070   2360.000   2272.284     87.716    469.804   1990.519    469.804    751.177    469.804
115.170   2599.000   2523.505     75.495    469.873   2256.760    469.873    736.171    469.873
115.270   2785.000   2803.682    -18.682    469.946   2553.155    469.946    719.970    469.946
115.370   3001.882   3111.871   -109.989    470.023   2878.325    470.023    703.013    470.023
115.470   3452.000   3445.825      6.175    470.105   3229.629    470.105    685.693    470.105
115.570   3727.138   3801.888    -74.750    470.192   3603.068    470.192    668.356    470.192
115.670   4154.031   4174.946    -20.916    470.284   3993.237    470.284    651.297    470.284
115.770   4520.000   4558.446    -38.446    470.381   4393.341    470.381    634.759    470.381
115.870   4885.985   4944.473    -58.487    470.482   4795.269    470.482    618.941    470.482
115.970   5264.639   5323.901    -59.263    470.588   5189.745    470.588    603.995    470.588
116.070   5617.000   5686.620    -69.620    470.700   5566.550    470.700    590.032    470.700
116.170   6157.962   6021.843    136.119    470.816   5914.822    470.816    577.126    470.816
116.270   6225.000   6318.528    -93.528    470.937   6223.483    470.937    565.318    470.937
116.370   6539.522   6565.930    -26.408    471.064   6481.774    471.064    554.619    471.064
116.470   6815.998   6754.287     61.711    471.195   6679.949    471.195    545.012    471.195
116.570   6981.000   6875.610    105.390    471.332   6810.053    471.332    536.463    471.332
116.670   7031.000   6924.456    106.544    471.474   6866.691    471.474    528.918    471.474
116.770   6931.552   6898.527     33.025    471.621   6847.626    471.621    522.311    471.621
116.870   6785.000   6798.934    -13.934    471.773   6754.038    471.773    516.569    471.773
116.970   6548.000   6630.044    -82.044    471.931   6590.368    471.931    511.613    471.931
117.070   6342.000   6398.965    -56.965    472.094   6363.800    472.094    507.363    472.094
117.170   6149.000   6114.806     34.194    472.263   6083.519    472.263    503.738    472.263
117.270   5899.928   5787.877    112.052    472.438   5759.909    472.438    500.662    472.438
117.370   5262.000   5428.989   -166.989    472.617   5403.855    472.617    498.064    472.617
117.470   4989.644   5048.908    -59.264    472.803   5026.185    472.803    495.877    472.803
117.570   4583.000   4657.804    -74.804    472.994   4637.133    472.994    494.042    472.994
117.670   4297.000   4265.003     31.997    473.191   4246.076    473.191    492.505    473.191
117.770   3925.203   3878.726     46.478    473.394   3861.286    473.394    491.219    473.394
117.870   3529.000   3505.934     23.066    473.602   3489.765    473.602    490.145    473.602
117.970   3061.483   3152.242    -90.759    473.816   3137.165    473.816    489.248    473.816
118.070   2897.789   2821.902     75.887    474.037   2807.767    474.037    488.499    474.037
118.170   2491.000   2517.849    -26.849    474.263   2504.533    474.263    487.874    474.263
118.270   2227.000   2241.797    -14.797    474.495   2229.201    474.495    487.353    474.495
118.370   1998.000   1994.377      3.623    474.734   1982.418    474.734    486.921    474.734
118.470   1735.108   1775.295    -40.187    474.978   1763.904    474.978    486.562    474.978
118.570   1503.140   1583.503    -80.362    475.229   1572.624    475.229    486.268    475.229
118.670   1403.000   1417.376    -14.376    475.486   1406.964    475.486    486.029    475.486
118.770   1264.368   1274.884    -10.516    475.749   1264.899    475.749    485.839    475.749
118.870   1148.000   1153.748     -5.748    476.019   1144.158    476.019    485.691    476.019
118.970    980.000   1051.582    -71.582    476.295   1042.357    476.295    485.582    476.295
119.070    960.000    966.004     -6.004    476.577    957.119    476.577    485.508    476.577
119.170    901.000    894.732      6.268    476.866    886.165    476.866    485.466    476.866
119.270    865.104    835.646     29.458    477.161    827.376    477.161    485.455    477.161
119.370    807.000    786.828     20.172    477.464    778.836    477.464    485.471    477.464
119.470    733.055    746.586    -13.532    477.772    738.854    477.772    485.515    477.772
119.570    706.000    713.456     -7.456    478.088    705.966    478.088    485.584    478.088
119.670    730.452    686.191     44.261    478.410    678.927    478.410    485.678    478.410
119.770    673.344    663.751      9.593    478.739    656.696    478.739    485.797    478.739
119.870    626.000    645.276    -19.276    479.075    638.413    479.075    485.940    479.075
119.970    635.186    630.066      5.120    479.418    623.378    479.418    486.108    479.418
120.070    600.000    617.554    -17.554    479.768    611.025    479.768    486.299    479.768
120.170    670.000    607.290     62.710    480.125    600.902    480.125    486.514    480.125
120.270    633.249    598.913     34.336    480.489    592.650    480.489    486.754    480.489
120.370    572.000    592.141    -20.141    480.861    585.985    480.861    487.018    480.861
120.470    575.000    586.751    -11.751    481.239    580.685    481.239    487.308    481.239
120.570    613.367    582.569     30.798    481.625    576.574    481.625    487.623    481.625
120.670    561.000    579.459    -18.459    482.018    573.517    482.018    487.964    482.018
120.770    590.000    577.316     12.684    482.419    571.407    482.419    488.332    482.419
120.870    549.000    576.053    -27.053    482.827    570.159    482.827    488.726    482.827
120.970    532.000    575.605    -43.605    483.242    569.705    483.242    489.149    483.242
121.070    572.000    575.915     -3.915    483.665    569.989    483.665    489.599    483.665
121.170    573.000    576.932     -3.932    484.096    570.960    484.096    490.077    484.096
121.270    558.000    578.610    -20.610    484.535    572.572    484.535    490.582    484.535
121.370    552.000    580.901    -28.901    484.981    574.777    484.981    491.116    484.981
121.470    574.000    583.756     -9.756    485.435    577.527    485.435    491.677    485.435
121.570    561.000    587.119    -26.119    485.897    580.767    485.897    492.264    485.897
121.670    562.890    590.928    -28.039    486.366    584.435    486.366    492.877    486.366
121.770    619.000    595.113     23.887    486.844    588.463    486.844    493.514    486.844
121.870    635.538    599.595     35.943    487.330    592.774    487.330    494.173    487.330
121.970    608.000    604.286      3.714    487.824    597.283    487.824    494.852    487.824
122.070    636.000    609.090     26.910    488.326    601.894    488.326    495.549    488.326
122.170    618.000    613.902      4.098    488.836    606.508    488.836    496.261    488.836
122.270    614.000    618.614     -4.614    489.355    611.019    489.355    496.983    489.355
122.370    648.343    623.112     25.232    489.882    615.317    489.882    497.713    489.882
122.470    620.000    627.280     -7.280    490.417    619.291    490.417    498.445    490.417
122.570    650.000    631.009     18.991    490.961    622.836    490.961    499.175    490.961
122.670    629.000    634.197     -5.197    491.514    625.855    491.514    499.898    491.514
122.770    636.000    636.756     -0.756    492.075    628.267    492.075    500.608    492.075
122.870    589.483    638.622    -49.138    492.644    630.011    492.644    501.300    492.644
122.970    683.333    639.751     43.582    493.223    631.052    493.223    501.968    493.223
123.070    619.416    640.131    -20.715    493.810    631.379    493.810    502.608    493.810
123.170    629.167    639.774    -10.607    494.406    631.008    494.406    503.217    494.406
123.270    666.000    638.717     27.283    495.011    629.980    495.011    503.793    495.011
123.370    671.000    637.016     33.984    495.625    628.352    495.625    504.333    495.625
123.470    651.000    634.743     16.257    496.248    626.194    496.248    504.839    496.248
123.570    659.000    631.979     27.021    496.880    623.586    496.880    505.313    496.880
123.670    683.000    628.809     54.191    497.521    620.609    497.521    505.759    497.521
123.770    623.988    625.320     -1.332    498.171    617.347    498.171    506.180    498.171
123.870    589.475    621.597    -32.122    498.831    613.878    498.831    506.582    498.831
123.970    624.000    617.718      6.282    499.500    610.277    499.500    506.971    499.500
124.070    601.000    613.756    -12.756    500.179    606.610    500.179    507.351    500.179
124.170    596.000    609.773    -13.773    500.867    602.935    500.867    507.728    500.867
124.270    599.000    605.821     -6.821    501.565    599.300    501.565    508.107    501.565
124.370    597.764    601.942     -4.178    502.272    595.741    502.272    508.491    502.272
124.470    657.000    598.167     58.833    502.989    592.285    502.989    508.886    502.989
124.570    568.047    594.515    -26.469    503.715    588.950    503.715    509.294    503.715
124.670    565.000    590.999    -25.999    504.452    585.743    504.452    509.719    504.452
124.770    598.667    587.622     11.045    505.198    582.667    505.198    510.163    505.198
124.870    583.000    584.383     -1.383    505.955    579.718    505.955    510.628    505.955
124.970    545.520    581.279    -35.759    506.721    576.890    506.721    511.116    506.721
