neutron_powder_diffraction_0061
R_wp: 4.107
Temperature (K): 702.330
Counts: 83221.00
Wavelength (Ã…): 2.52098
COMMENTS
Test file for demonstrating the .xyy file format in Reel1.0
END OF HEADER
   tth       Y_obs     Y_calc      Y_res    Background    Phase_1_Nuc    Phase_1_Mag    Phase_2_Nuc    Phase_2_Mag
  9.970    691.000    645.432     45.568    644.335    645.161    644.606    644.335    644.335
 10.070    650.000    645.308      4.692    644.143    645.034    644.416    644.143    644.143
 10.170    673.477    645.188     28.290    643.946    644.911    644.223    643.946    643.946
 10.270    702.000    645.074     56.926    643.745    644.794    644.025    643.745    643.745
 10.370    649.000    644.970      4.030    643.540    644.687    643.822    643.540    643.540
 10.470    742.000    644.878     97.122    643.331    644.591    643.616    643.331    643.331
 10.570    697.000    644.801     52.199    643.117    644.511    643.406    643.117    643.117
 10.670    648.000    644.744      3.256    642.900    644.452    643.192    642.900    642.900
 10.770    657.000    644.715     12.285    642.678    644.419    642.974    642.678    642.678
 10.870    663.000    644.721     18.279    642.453    644.422    642.751    642.453    642.453
 10.970    665.160    644.775     20.385    642.224    644.472    642.526    642.224    642.224
 11.070    695.000    644.893     50.107    641.991    644.586    642.296    641.991    641.991
 11.170    670.000    645.098     24.902    641.754    644.788    642.062    641.754    641.754
 11.270    641.000    645.426     -4.426    641.513    645.111    641.825    641.513    641.513
 11.370    687.000    645.931     41.069    641.268    645.613    641.584    641.268    641.268
 11.470    677.986    646.717     31.269    641.020    646.394    641.340    641.020    641.020
 11.570    735.000    648.021     86.979    640.769    647.694    641.092    640.769    640.769
 11.670    643.267    650.493     -7.226    640.513    650.161    640.840    640.513    640.513
 11.770    674.432    655.774     18.658    640.255    655.435    640.585    640.255    640.255
 11.870    638.746    667.170    -28.425    639.992    666.821    640.327    639.992    639.992
 11.970    737.000    688.594     48.406    639.727    688.228    640.065    639.727    639.727
 12.070    676.876    721.793    -44.917    639.457    721.405    639.800    639.457    639.457
 12.170    773.000    760.033     12.967    639.185    759.619    639.532    639.185    639.185
 12.270    817.889    784.261     33.628    638.909    783.829    639.261    638.909    638.909
 12.370    780.000    776.474      3.526    638.630    776.042    638.986    638.630    638.630
 12.470    693.000    743.200    -50.200    638.348    742.781    638.708    638.348    638.348
 12.570    747.727    705.293     42.433    638.063    704.892    638.427    638.063    638.063
 12.670    638.000    676.450    -38.450    637.774    676.060    638.143    637.774    637.774
 12.770    673.000    659.180     13.820    637.483    658.794    637.856    637.483    637.483
 12.870    633.000    650.276    -17.276    637.188    649.891    637.566    637.188    637.188
 12.970    628.000    645.849    -17.849    636.890    645.461    637.273    636.890    636.890
 13.070    638.316    643.409     -5.094    636.590    643.018    636.978    636.590    636.590
 13.170    609.177    641.811    -32.634    636.286    641.415    636.679    636.286    636.286
 13.270    616.000    640.616    -24.616    635.980    640.216    636.378    635.980    635.980
 13.370    612.000    639.655    -27.655    635.671    639.250    636.074    635.671    635.671
 13.470    621.348    638.843    -17.495    635.359    638.433    635.767    635.359    635.359
 13.570    667.662    638.140     29.523    635.044    637.725    635.458    635.044    635.044
 13.670    588.439    637.514    -49.075    634.727    637.094    635.146    634.727    634.727
 13.770    582.000    636.947    -54.947    634.407    636.521    634.832    634.407    634.407
 13.870    590.000    636.423    -46.423    634.084    635.991    634.515    634.084    634.084
 13.970    653.000    635.932     17.068    633.759    635.494    634.195    633.759    633.759
 14.070    661.000    635.467     25.533    633.431    635.023    633.874    633.431    633.431
 14.170    680.870    635.022     45.848    633.101    634.572    633.549    633.101    633.101
 14.270    605.000    634.592    -29.592    632.768    634.137    633.223    632.768    632.768
 14.370    602.000    634.175    -32.175    632.433    633.714    632.894    632.433    632.433
 14.470    593.208    633.768    -40.560    632.096    633.300    632.563    632.096    632.096
 14.570    604.814    633.370    -28.556    631.756    632.896    632.230    631.756    631.756
 14.670    637.000    632.988      4.012    631.414    632.507    631.895    631.414    631.414
 14.770    613.185    632.619    -19.433    631.069    632.130    631.557    631.069    631.069
 14.870    596.000    632.237    -36.237    630.723    631.742    631.218    630.723    630.723
 14.970    623.000    631.857     -8.857    630.374    631.354    630.876    630.374    630.374
 15.070    625.000    631.479     -6.479    630.023    630.969    630.533    630.023    630.023
 15.170    644.000    631.103     12.897    629.670    630.586    630.187    629.670    629.670
 15.270    622.000    630.729     -8.729    629.315    630.204    629.840    629.315    629.315
 15.370    653.240    630.356     22.884    628.958    629.823    629.491    628.958    628.958
 15.470    685.142    629.984     55.159    628.599    629.443    629.140    628.599    628.599
 15.570    645.000    629.612     15.388    628.238    629.063    628.787    628.238    628.238
 15.670    589.000    629.240    -40.240    627.875    628.683    628.432    627.875    627.875
 15.770    586.000    628.869    -42.869    627.510    628.303    628.076    627.510    627.510
 15.870    604.027    628.498    -24.472    627.143    627.923    627.719    627.143    627.143
 15.970    611.000    628.127    -17.127    626.775    627.542    627.359    626.775    626.775
 16.070    645.000    627.756     17.244    626.405    627.162    626.998    626.405    626.405
 16.170    626.000    627.386     -1.386    626.033    626.783    626.636    626.033    626.033
 16.270    672.347    627.014     45.333    625.659    626.401    626.272    625.659    625.659
 16.370    636.132    626.641      9.491    625.284    626.019    625.906    625.284    625.284
 16.470    623.000    626.273     -3.273    624.907    625.640    625.540    624.907    624.907
 16.570    585.811    625.900    -40.089    624.529    625.257    625.172    624.529    624.529
 16.670    647.983    625.527     22.456    624.149    624.873    624.802    624.149    624.149
 16.770    627.367    625.167      2.201    623.767    624.500    624.434    623.767    623.767
 16.870    579.000    624.858    -45.858    623.384    624.172    624.069    623.384    623.384
 16.970    581.000    624.556    -43.556    622.999    623.858    623.697    622.999    622.999
 17.070    587.827    624.200    -36.372    622.614    623.490    623.323    622.614    622.614
 17.170    635.400    623.825     11.575    622.226    623.104    622.948    622.226    622.226
 17.270    587.000    623.449    -36.449    621.838    622.715    622.572    621.838    621.838
 17.370    605.000    623.073    -18.073    621.448    622.325    622.195    621.448    621.448
 17.470    610.361    622.696    -12.335    621.057    621.935    621.817    621.057    621.057
 17.570    616.000    622.318     -6.318    620.664    621.544    621.438    620.664    620.664
 17.670    632.000    621.940     10.060    620.270    621.153    621.058    620.270    620.270
 17.770    590.991    621.562    -30.571    619.876    620.760    620.678    619.876    619.876
 17.870    609.000    621.184    -12.184    619.480    620.367    620.296    619.480    619.480
 17.970    641.000    620.805     20.195    619.082    619.973    619.914    619.082    619.082
 18.070    565.000    620.426    -55.426    618.684    619.579    619.532    618.684    618.684
 18.170    593.000    620.049    -27.049    618.285    619.185    619.148    618.285    618.285
 18.270    550.000    619.689    -69.689    617.885    618.809    618.764    617.885    617.885
 18.370    596.993    619.319    -22.326    617.484    618.423    618.380    617.484    617.484
 18.470    601.000    618.946    -17.946    617.081    618.032    617.995    617.081    617.081
 18.570    604.000    618.575    -14.575    616.678    617.643    617.610    616.678    616.678
 18.670    601.000    618.197    -17.197    616.274    617.246    617.225    616.274    616.274
 18.770    605.000    617.817    -12.817    615.869    616.848    616.839    615.869    615.869
 18.870    598.805    617.438    -18.633    615.464    616.449    616.453    615.464    615.464
 18.970    630.000    617.060     12.940    615.057    616.050    616.066    615.057    615.057
 19.070    592.000    616.685    -24.685    614.650    615.655    615.680    614.650    614.650
 19.170    662.935    616.316     46.619    614.242    615.264    615.293    614.242    614.242
 19.270    584.877    615.943    -31.066    613.833    614.869    614.907    613.833    613.833
 19.370    607.000    615.612     -8.612    613.424    614.514    614.521    613.424    613.424
 19.470    585.000    615.254    -30.254    613.013    614.132    614.135    613.013    613.013
 19.570    566.454    614.880    -48.427    612.603    613.734    613.749    612.603    612.603
 19.670    584.000    614.515    -30.515    612.191    613.343    613.363    612.191    612.191
 19.770    595.000    614.148    -19.148    611.780    612.949    612.978    611.780    611.780
 19.870    653.532    613.782     39.750    611.367    612.553    612.596    611.367    611.367
 19.970    578.000    613.410    -35.410    610.954    612.154    612.211    610.954    610.954
 20.070    587.449    613.039    -25.590    610.541    611.753    611.827    610.541    610.541
 20.170    613.039    612.669      0.370    610.127    611.353    611.443    610.127    610.127
 20.270    588.992    612.301    -23.309    609.713    610.954    611.060    609.713    609.713
 20.370    549.000    611.945    -62.945    609.298    610.564    610.678    609.298    609.298
 20.470    615.000    611.638      3.362    608.883    610.223    610.298    608.883    608.883
 20.570    613.286    611.288      1.998    608.468    609.838    609.917    608.468    608.468
 20.670    645.470    610.942     34.529    608.052    609.456    609.537    608.052    608.052
 20.770    579.000    610.617    -31.617    607.636    609.094    609.159    607.636    607.636
 20.870    657.096    610.263     46.833    607.220    608.702    608.781    607.220    607.220
 20.970    642.507    609.909     32.598    606.803    608.307    608.405    606.803    606.803
 21.070    622.000    609.570     12.430    606.386    607.926    608.030    606.386    606.386
 21.170    612.000    609.256      2.744    605.970    607.568    607.658    605.970    605.970
 21.270    585.618    608.913    -23.295    605.552    607.180    607.286    605.552    605.552
 21.370    617.000    608.570      8.430    605.135    606.790    606.916    605.135    605.135
 21.470    577.000    608.230    -31.230    604.718    606.400    606.548    604.718    604.718
 21.570    577.292    607.893    -30.602    604.301    606.012    606.182    604.301    604.301
 21.670    622.814    607.564     15.250    603.883    605.629    605.818    603.883    603.883
 21.770    621.508    607.242     14.266    603.466    605.250    605.458    603.466    603.466
 21.870    611.583    606.920      4.663    603.048    604.870    605.099    603.048    603.048
 21.970    581.000    606.602    -25.602    602.631    604.491    604.742    602.631    602.631
 22.070    595.000    606.295    -11.295    602.213    604.120    604.388    602.213    602.213
 22.170    599.021    605.991     -6.970    601.796    603.749    604.038    601.796    601.796
 22.270    600.000    605.691     -5.691    601.379    603.379    603.690    601.379    601.379
 22.370    617.000    605.398     11.602    600.962    603.013    603.347    600.962    600.962
 22.470    601.000    605.113     -4.113    600.545    602.651    603.006    600.545    600.545
 22.570    607.758    604.837      2.921    600.128    602.295    602.670    600.128    600.128
 22.670    653.386    604.572     48.815    599.711    601.945    602.338    599.711    599.711
 22.770    613.000    604.318      8.682    599.295    601.602    602.011    599.295    599.295
 22.870    593.000    604.079    -11.079    598.878    601.270    601.688    598.878    598.878
 22.970    644.000    603.854     40.146    598.462    600.945    601.371    598.462    598.462
 23.070    650.000    603.645     46.355    598.047    600.632    601.060    598.047    598.047
 23.170    584.729    603.456    -18.726    597.631    600.333    600.754    597.631    597.631
 23.270    586.000    603.290    -17.290    597.216    600.051    600.455    597.216    597.216
 23.370    599.000    603.153     -4.153    596.801    599.791    600.164    596.801    596.801
 23.470    580.000    603.049    -23.049    596.387    599.557    599.880    596.387    596.387
 23.570    612.000    602.987      9.013    595.973    599.357    599.604    595.973    595.973
 23.670    633.000    602.976     30.024    595.559    599.200    599.336    595.559    595.559
 23.770    630.000    603.033     26.967    595.146    599.101    599.079    595.146    595.146
 23.870    637.000    603.176     33.824    594.733    599.079    598.832    594.733    594.733
 23.970    615.000    603.436     11.564    594.321    599.163    598.596    594.321    594.321
 24.070    638.000    603.866     34.134    593.909    599.406    598.372    593.909    593.909
 24.170    647.000    604.580     42.420    593.498    599.919    598.162    593.498    593.498
 24.270    575.543    605.857    -30.313    593.087    600.982    597.966    593.087    593.087
 24.370    632.000    608.394     23.606    592.677    603.291    597.786    592.677    592.677
 24.470    663.000    613.662     49.338    592.268    608.315    597.624    592.268    592.268
 24.570    644.139    623.940     20.199    591.859    618.335    597.481    591.859    591.859
 24.670    640.144    641.241     -1.097    591.450    635.362    597.359    591.450    591.450
 24.770    697.000    664.694     32.306    591.042    658.522    597.260    591.042    591.042
 24.870    736.000    687.359     48.641    590.635    680.869    597.188    590.635    590.635
 24.970    644.546    696.352    -51.805    590.229    689.504    597.146    590.229    590.229
 25.070    723.000    684.388     38.612    589.823    677.137    597.135    589.823    589.823
 25.170    674.001    660.728     13.274    589.418    653.030    597.159    589.418    589.418
 25.270    656.000    638.043     17.957    589.014    629.860    597.223    589.014    589.014
 25.370    617.744    622.131     -4.387    588.610    613.423    597.333    588.610    588.610
 25.470    661.000    613.107     47.893    588.207    603.829    597.494    588.207    588.207
 25.570    585.661    608.736    -23.075    587.805    598.834    597.713    587.805    587.805
 25.670    631.000    606.830     24.170    587.404    596.238    597.999    587.404    587.404
 25.770    663.000    606.075     56.925    587.003    594.719    598.361    587.003    587.003
 25.870    591.416    605.888    -14.473    586.604    593.685    598.809    586.604    586.604
 25.970    643.000    606.058     36.942    586.205    592.907    599.357    586.205    586.205
 26.070    613.000    606.510      6.490    585.807    592.295    600.023    585.807    585.807
 26.170    634.000    607.222     26.778    585.410    591.807    600.826    585.410    585.410
 26.270    595.000    608.197    -13.197    585.014    591.420    601.791    585.014    585.014
 26.370    634.891    609.452     25.439    584.619    591.122    602.949    584.619    584.619
 26.470    640.220    611.019     29.201    584.225    590.906    604.337    584.225    584.225
 26.570    667.000    612.947     54.053    583.831    590.773    606.004    583.831    583.831
 26.670    626.000    615.300     10.700    583.439    590.727    608.011    583.439    583.439
 26.770    668.000    618.169     49.831    583.048    590.778    610.438    583.048    583.048
 26.870    635.000    621.671     13.329    582.657    590.939    613.388    582.657    582.657
 26.970    656.000    625.969     30.031    582.268    591.234    617.001    582.268    582.268
 27.070    688.629    631.281     57.348    581.880    591.693    621.465    581.880    581.880
 27.170    676.000    637.913     38.087    581.492    592.362    627.041    581.492    581.492
 27.270    643.000    646.300     -3.300    581.106    593.302    634.100    581.106    581.106
 27.370    753.000    657.089     95.911    580.721    594.612    643.194    580.721    580.721
 27.470    686.983    671.354     15.629    580.337    596.448    655.237    580.337    580.337
 27.570    630.935    691.261    -60.326    579.954    599.130    672.077    579.954    579.954
 27.670    735.851    722.128     13.723    579.572    603.436    698.252    579.572    579.572
 27.770    845.000    777.419     67.581    579.192    611.333    745.256    579.192    579.192
 27.870    839.380    886.680    -47.300    578.812    627.131    838.320    578.812    578.812
 27.970   1127.434   1099.212     28.222    578.434    658.021   1019.546    578.434    578.434
 28.070   1321.000   1466.745   -145.745    578.057    711.555   1333.110    578.057    578.057
 28.170   1985.573   1992.912     -7.340    577.681    788.302   1782.091    577.681    577.681
 28.270   2574.000   2561.958     12.042    577.306    871.491   2267.542    577.306    577.306
 28.370   2947.624   2909.605     38.019    576.933    922.838   2563.517    576.933    576.933
 28.470   2927.000   2817.126    109.874    576.560    910.925   2482.699    576.560    576.560
 28.570   2352.958   2400.122    -47.164    576.189    853.411   2122.930    576.189    576.189
 28.670   1885.000   1961.718    -76.718    575.819    795.671   1741.920    575.819    575.819
 28.770   1482.000   1713.966   -231.966    575.451    769.730   1519.726    575.451    575.451
 28.870   1645.000   1701.468    -56.468    575.084    781.915   1494.654    575.084    575.084
 28.970   1889.000   1831.017     57.983    574.718    815.523   1590.230    574.718    574.718
 29.070   1866.890   1921.991    -55.101    574.353    837.434   1658.963    574.353    574.353
 29.170   1823.000   1827.053     -4.053    573.990    820.392   1580.751    573.990    573.990
 29.270   1541.000   1568.345    -27.345    573.628    769.886   1372.206    573.628    573.628
 29.370   1311.000   1269.576     41.424    573.267    711.009   1131.936    573.267    573.267
 29.470   1028.000   1023.018      4.982    572.908    662.323    933.674    572.908    572.908
 29.570    929.000    856.732     72.268    572.550    629.501    799.824    572.550    572.550
 29.670    729.897    758.788    -28.891    572.194    610.214    720.792    572.194    572.194
 29.770    757.997    704.875     53.121    571.839    599.654    677.073    571.839    571.839
 29.870    627.875    674.623    -46.748    571.485    593.788    652.327    571.485    571.485
 29.970    605.643    655.987    -50.344    571.133    590.243    636.881    571.133    571.133
 30.070    683.314    643.230     40.084    570.782    587.901    626.113    570.782    570.782
 30.170    731.000    633.914     97.086    570.432    586.316    618.032    570.432    570.432
 30.270    718.000    627.036     90.964    570.084    585.356    611.764    570.084    570.084
 30.370    660.000    622.285     37.715    569.738    585.111    606.910    569.738    569.738
 30.470    662.000    619.917     42.083    569.393    585.947    603.359    569.393    569.393
 30.570    640.012    620.831     19.181    569.049    588.617    601.256    569.049    569.049
 30.670    636.337    626.481      9.856    568.707    594.220    600.954    568.707    568.707
 30.770    608.351    638.204    -29.853    568.367    603.751    602.796    568.367    568.367
 30.870    712.000    655.781     56.219    568.028    617.112    606.661    568.028    568.028
 30.970    654.811    675.410    -20.599    567.690    631.718    611.336    567.690    567.690
 31.070    717.000    688.537     28.463    567.354    641.690    614.149    567.354    567.354
 31.170    737.566    686.397     51.169    567.020    640.998    612.371    567.020    567.020
 31.270    749.000    669.174     79.826    566.687    629.787    606.037    566.687    566.687
 31.370    657.995    645.693     12.303    566.356    614.169    597.853    566.356    566.356
 31.470    683.000    624.263     58.737    566.026    599.901    590.372    566.026    566.026
 31.570    672.000    608.436     63.564    565.698    589.447    584.677    565.698    565.698
 31.670    641.000    598.234     42.766    565.371    582.832    580.767    565.371    565.371
 31.770    606.000    592.148     13.852    565.046    579.022    578.168    565.046    565.046
 31.870    585.000    588.542     -3.542    564.723    576.894    576.367    564.723    564.723
 31.970    616.000    586.270     29.730    564.401    575.664    575.004    564.401    564.401
 32.070    626.000    584.710     41.290    564.081    574.907    573.881    564.081    564.081
 32.170    589.000    583.576      5.424    563.762    574.432    572.904    563.762    563.762
 32.270    581.000    582.745     -1.745    563.445    574.159    572.029    563.445    563.445
 32.370    598.000    582.166     15.834    563.130    574.061    571.233    563.130    563.130
 32.470    606.000    581.820     24.180    562.816    574.130    570.504    562.816    562.816
 32.570    602.550    581.704     20.846    562.504    574.374    569.833    562.504    562.504
 32.670    559.463    581.831    -22.369    562.194    574.810    569.214    562.194    562.194
 32.770    556.000    582.230    -26.230    561.885    575.471    568.644    561.885    561.885
 32.870    616.139    582.948     33.191    561.579    576.404    568.121    561.579    561.579
 32.970    624.000    584.054     39.946    561.273    577.678    567.647    561.273    561.273
 33.070    562.526    585.656    -23.130    560.970    579.397    567.226    560.970    560.970
 33.170    578.000    587.926     -9.926    560.668    581.725    566.866    560.668    560.668
 33.270    590.000    591.177     -1.177    560.368    584.958    566.584    560.368    560.368
 33.370    604.554    596.061      8.494    560.069    589.707    566.419    560.069    560.069
 33.470    605.000    604.001      0.999    559.773    597.312    566.456    559.773    559.773
 33.570    634.000    617.938     16.062    559.478    610.533    566.875    559.478    559.478
 33.670    646.000    643.101      2.899    559.184    634.276    567.996    559.184    559.184
 33.770    674.000    686.860    -12.860    558.893    675.460    570.271    558.893    558.893
 33.870    794.592    756.259     38.334    558.603    740.698    574.131    558.603    558.603
 33.970    907.731    852.445     55.286    558.315    831.070    579.647    558.315    558.315
 34.070   1009.000    962.634     46.366    558.029    934.581    586.032    558.029    558.029
 34.170   1096.900   1053.200     43.700    557.744   1019.677    591.222    557.744    557.744
 34.270   1144.000   1078.762     65.238    557.461   1043.765    592.430    557.461    557.461
 34.370   1062.000   1021.994     40.006    557.180    990.572    588.590    557.180    557.180
 34.470    857.000    916.514    -59.514    556.901    891.646    581.765    556.901    556.901
 34.570    835.134    807.702     27.432    556.624    789.583    574.743    556.624    556.624
 34.670    724.113    720.713      3.400    556.348    707.993    569.069    556.348    556.348
 34.770    634.000    661.496    -27.496    556.074    652.464    565.107    556.074    556.074
 34.870    594.667    625.525    -30.858    555.802    618.747    562.580    555.802    555.802
 34.970    612.000    605.015      6.985    555.532    599.537    561.009    555.532    555.532
 35.070    580.000    593.256    -13.256    555.264    588.537    559.982    555.264    555.264
 35.170    579.000    585.997     -6.997    554.997    581.755    559.238    554.997    554.997
 35.270    583.000    581.028      1.972    554.732    577.118    558.641    554.732    554.732
 35.370    566.000    577.327    -11.327    554.469    573.666    558.129    554.469    554.469
 35.470    541.703    574.422    -32.720    554.208    570.956    557.673    554.208    554.208
 35.570    590.604    572.072     18.532    553.948    568.761    557.259    553.948    553.948
 35.670    577.000    570.129      6.871    553.691    566.943    556.876    553.691    553.691
 35.770    587.000    568.503     18.497    553.435    565.416    556.521    553.435    553.435
 35.870    527.000    567.125    -40.125    553.181    564.116    556.190    553.181    553.181
 35.970    541.000    565.946    -24.946    552.929    562.995    555.879    552.929    552.929
 36.070    558.284    564.927     -6.643    552.679    562.018    555.588    552.679    552.679
 36.170    561.000    564.043     -3.043    552.431    561.157    555.316    552.431    552.431
 36.270    569.000    563.273      5.727    552.184    560.393    555.064    552.184    552.184
 36.370    591.303    562.603     28.699    551.939    559.711    554.831    551.939    551.939
 36.470    563.180    562.024      1.156    551.696    559.100    554.620    551.696    551.696
 36.570    588.000    561.529     26.471    551.455    558.551    554.434    551.455    551.455
 36.670    589.000    561.116     27.884    551.216    558.058    554.275    551.216    551.216
 36.770    556.000    560.788     -4.788    550.979    557.618    554.149    550.979    550.979
 36.870    536.000    560.551    -24.551    550.744    557.231    554.063    550.744    550.744
 36.970    512.327    560.421    -48.094    550.510    556.904    554.028    550.510    550.510
 37.070    553.000    560.435     -7.435    550.278    556.656    554.058    550.278    550.278
 37.170    523.876    560.668    -36.792    550.049    556.537    554.179    550.049    550.049
 37.270    557.000    561.275     -4.275    549.821    556.656    554.441    549.821    549.821
 37.370    558.000    562.552     -4.552    549.594    557.203    554.943    549.594    549.594
 37.470    594.085    564.974     29.111    549.370    558.444    555.900    549.370    549.370
 37.570    609.000    569.181     39.819    549.148    560.614    557.715    549.148    549.148
 37.670    587.000    575.830     11.170    548.927    563.716    561.042    548.927    548.927
 37.770    556.000    585.266    -29.266    548.709    567.266    566.709    548.709    548.709
 37.870    594.000    597.047     -3.047    548.492    570.141    575.399    548.492    548.492
 37.970    554.000    609.732    -55.732    548.277    570.963    587.049    548.277    548.277
 38.070    607.557    621.243    -13.686    548.064    569.242    600.069    548.064    548.064
 38.170    615.000    628.752    -13.752    547.853    565.900    610.711    547.853    547.853
 38.270    637.000    628.519      8.481    547.644    562.175    613.995    547.644    547.644
 38.370    591.000    619.180    -28.180    547.436    558.836    607.789    547.436    547.436
 38.470    577.404    604.429    -27.024    547.231    556.228    595.439    547.231    547.231
 38.570    631.417    589.345     42.072    547.027    554.385    581.994    547.027    547.027
 38.670    552.000    576.929    -24.929    546.826    553.147    570.611    546.826    546.826
 38.770    596.889    568.041     28.848    546.626    552.318    562.352    546.626    546.626
 38.870    577.000    562.291     14.709    546.428    551.740    556.981    546.428    546.428
 38.970    569.000    558.792     10.208    546.232    551.311    553.714    546.232    546.232
 39.070    563.112    556.675      6.437    546.037    550.968    551.745    546.037    546.037
 39.170    518.218    555.322    -37.104    545.845    550.679    550.489    545.845    545.845
 39.270    582.782    554.373     28.409    545.655    550.423    549.605    545.655    545.655
 39.370    556.000    553.646      2.354    545.466    550.191    548.922    545.466    545.466
 39.470    590.000    553.056     36.944    545.279    549.978    548.357    545.279    545.279
 39.570    596.000    552.559     43.441    545.094    549.781    547.873    545.094    545.094
 39.670    532.000    552.133    -20.133    544.912    549.599    547.446    544.912    544.912
 39.770    566.000    551.762     14.238    544.730    549.429    547.064    544.730    544.730
 39.870    580.768    551.436     29.332    544.551    549.270    546.717    544.551    544.551
 39.970    502.000    551.148    -49.148    544.374    549.124    546.398    544.374    544.374
 40.070    567.000    550.892     16.108    544.198    548.989    546.102    544.198    544.198
 40.170    572.621    550.665     21.957    544.025    548.866    545.824    544.025    544.025
 40.270    568.000    550.463     17.537    543.853    548.754    545.562    543.853    543.853
 40.370    577.000    550.286     26.714    543.683    548.656    545.314    543.683    543.683
 40.470    516.000    550.132    -34.132    543.515    548.571    545.077    543.515    543.515
 40.570    544.000    550.001     -6.001    543.349    548.500    544.850    543.349    543.349
 40.670    533.000    549.893    -16.893    543.185    548.446    544.633    543.185    543.185
 40.770    523.000    549.810    -26.810    543.022    548.409    544.423    543.022    543.022
 40.870    584.000    549.753     34.247    542.861    548.394    544.221    542.861    542.861
 40.970    508.000    549.724    -41.724    542.703    548.401    544.026    542.703    542.703
 41.070    559.000    549.727      9.273    542.546    548.437    543.837    542.546    542.546
 41.170    517.458    549.768    -32.310    542.391    548.505    543.654    542.391    542.391
 41.270    540.000    549.851     -9.851    542.238    548.613    543.477    542.238    542.238
 41.370    538.000    549.987    -11.987    542.086    548.768    543.306    542.086    542.086
 41.470    512.000    550.186    -38.186    541.937    548.983    543.141    541.937    541.937
 41.570    549.000    550.465     -1.465    541.789    549.273    542.982    541.789    541.789
 41.670    473.000    550.847    -77.847    541.643    549.662    542.830    541.643    541.643
 41.770    550.000    551.372     -1.372    541.499    550.188    542.685    541.499    541.499
 41.870    534.000    552.112    -18.112    541.357    550.922    542.550    541.357    541.357
 41.970    566.292    553.214     13.078    541.216    552.004    542.429    541.216    541.216
 42.070    578.116    554.971     23.145    541.078    553.722    542.330    541.078    541.078
 42.170    564.000    557.932      6.068    540.941    556.608    542.271    540.941    540.941
 42.270    564.000    562.991      1.009    540.806    561.528    542.277    540.806    540.806
 42.370    539.000    571.352    -32.352    540.673    569.653    542.384    540.673    540.673
 42.470    601.385    584.220     17.166    540.542    582.150    542.628    540.542    540.542
 42.570    608.737    602.144      6.593    540.412    599.555    543.026    540.412    540.412
 42.670    575.156    624.092    -48.936    540.285    620.865    543.547    540.285    540.285
 42.770    655.000    646.436      8.564    540.159    642.560    544.083    540.159    540.159
 42.870    613.000    662.621    -49.621    540.035    658.278    544.437    540.035    540.035
 42.970    622.000    665.708    -43.708    539.912    661.282    544.402    539.912    539.912
 43.070    673.000    654.008     18.992    539.792    649.931    543.928    539.792    539.792
 43.170    605.000    632.983    -27.983    539.673    629.528    543.177    539.673    539.673
 43.270    639.992    610.052     29.941    539.556    607.272    542.372    539.556    539.556
 43.370    608.332    590.110     18.222    539.441    587.918    541.659    539.441    539.441
 43.470    556.000    575.097    -19.097    539.327    573.347    541.095    539.327    539.327
 43.570    566.000    564.958      1.042    539.216    563.505    540.679    539.216    539.216
 43.670    574.000    558.639     15.361    539.106    557.372    540.380    539.106    539.106
 43.770    541.288    554.870    -13.582    538.998    553.714    540.159    538.998    538.998
 43.870    541.015    552.612    -11.597    538.891    551.522    539.985    538.891    538.891
 43.970    516.000    551.186    -35.186    538.787    550.137    539.839    538.787    538.787
 44.070    533.769    550.213    -16.444    538.684    549.191    539.708    538.684    538.684
 44.170    530.051    549.499    -19.449    538.582    548.496    539.587    538.582    538.582
 44.270    584.000    548.953     35.047    538.483    547.964    539.474    538.483    538.483
 44.370    539.000    548.525     -9.525    538.385    547.545    539.366    538.385    538.385
 44.470    515.000    548.186    -33.186    538.289    547.213    539.264    538.289    538.289
 44.570    583.000    547.920     35.080    538.195    546.950    539.166    538.195    538.195
 44.670    556.988    547.712      9.277    538.102    546.743    539.072    538.102    538.102
 44.770    523.545    547.553    -24.008    538.011    546.584    538.981    538.011    538.011
 44.870    548.164    547.437      0.727    537.922    546.465    538.895    537.922    537.922
 44.970    576.000    547.359     28.641    537.835    546.382    538.812    537.835    537.835
 45.070    560.008    547.313     12.694    537.749    546.330    538.732    537.749    537.749
 45.170    565.000    547.299     17.701    537.665    546.308    538.656    537.665    537.665
 45.270    535.000    547.313    -12.313    537.582    546.312    538.583    537.582    537.582
 45.370    519.000    547.354    -28.354    537.501    546.342    538.514    537.501    537.501
 45.470    557.000    547.422      9.578    537.422    546.397    538.448    537.422    537.422
 45.570    598.145    547.517     50.628    537.345    546.476    538.385    537.345    537.345
 45.670    595.000    547.639     47.361    537.269    546.581    538.326    537.269    537.269
 45.770    499.029    547.788    -48.759    537.195    546.711    538.271    537.195    537.195
 45.870    532.000    547.966    -15.966    537.122    546.868    538.220    537.122    537.122
 45.970    540.000    548.175     -8.175    537.051    547.053    538.173    537.051    537.051
 46.070    488.000    548.418    -60.418    536.982    547.269    538.130    536.982    536.982
 46.170    535.614    548.696    -13.083    536.914    547.518    538.092    536.914    536.914
 46.270    508.118    549.015    -40.897    536.848    547.804    538.058    536.848    536.848
 46.370    570.666    549.378     21.288    536.783    548.131    538.030    536.783    536.783
 46.470    572.000    549.793     22.207    536.721    548.505    538.008    536.721    536.721
 46.570    536.066    550.267    -14.201    536.659    548.933    537.992    536.659    536.659
 46.670    592.412    550.810     41.602    536.600    549.425    537.983    536.600    536.600
 46.770    521.000    551.436    -30.436    536.541    549.994    537.982    536.541    536.541
 46.870    555.000    552.167      2.833    536.485    550.659    537.991    536.485    536.485
 46.970    586.000    553.037     32.963    536.430    551.453    538.012    536.430    536.430
 47.070    596.279    554.112     42.167    536.376    552.436    538.050    536.376    536.376
 47.170    560.000    555.516      4.484    536.325    553.726    538.112    536.325    536.325
 47.270    562.000    557.480      4.520    536.274    555.537    538.212    536.274    536.274
 47.370    561.000    560.393      0.607    536.225    558.235    538.377    536.225    536.225
 47.470    536.446    564.831    -28.385    536.178    562.359    538.641    536.178    536.178
 47.570    603.494    571.498     31.997    536.132    568.567    539.049    536.132    536.132
 47.670    559.000    581.023    -22.023    536.088    577.449    539.642    536.088    536.088
 47.770    559.432    593.614    -34.182    536.045    589.198    540.432    536.045    536.045
 47.870    605.000    608.617     -3.617    536.004    603.203    541.380    536.004    536.004
 47.970    655.000    624.073     30.927    535.964    617.625    542.365    535.964    535.964
 48.070    672.000    636.499     35.501    535.926    629.201    543.170    535.926    535.926
 48.170    603.000    641.838    -38.838    535.889    634.127    543.544    535.889    535.889
 48.270    686.238    638.317     47.921    535.854    630.742    543.378    535.854    535.854
 48.370    630.000    628.266      1.734    535.820    621.224    542.820    535.820    535.820
 48.470    605.000    615.910    -10.910    535.788    609.529    542.136    535.788    535.788
 48.570    594.369    604.619    -10.250    535.757    598.815    541.538    535.757    535.757
 48.670    584.000    596.218    -12.218    535.727    590.784    541.145    535.727    535.727
 48.770    556.000    591.298    -35.298    535.699    585.986    540.999    535.699    535.699
 48.870    577.280    589.683    -12.403    535.672    584.251    541.096    535.672    535.672
 48.970    619.000    590.876     28.124    535.647    585.102    541.415    535.647    535.647
 49.070    545.164    594.409    -49.245    535.623    588.087    541.939    535.623    535.623
 49.170    629.785    600.088     29.697    535.600    593.005    542.679    535.600    535.600
 49.270    610.000    608.192      1.808    535.579    600.076    543.690    535.579    535.579
 49.370    611.000    619.808     -8.808    535.559    610.242    545.119    535.559    535.559
 49.470    669.427    637.546     31.881    535.541    625.782    547.295    535.541    535.541
 49.570    656.559    666.814    -10.255    535.524    651.429    550.890    535.524    535.524
 49.670    747.603    717.498     30.105    535.508    695.846    557.129    535.508    535.508
 49.770    865.608    805.067     60.541    535.494    772.585    567.924    535.494    535.494
 49.870    885.000    949.265    -64.265    535.481    898.947    585.718    535.481    535.481
 49.970   1241.041   1168.275     72.766    535.469   1090.873    612.761    535.469    535.469
 50.070   1425.000   1467.970    -42.970    535.459   1353.515    649.781    535.459    535.459
 50.170   1823.000   1828.783     -5.783    535.450   1669.744    694.356    535.450    535.450
 50.270   2253.467   2194.797     58.670    535.442   1990.575    739.570    535.442    535.442
 50.370   2560.766   2472.785     87.981    535.435   2234.325    773.886    535.435    535.435
 50.470   2596.000   2561.353     34.647    535.430   2312.129    784.748    535.430    535.430
 50.570   2416.000   2420.854     -4.854    535.426   2189.228    767.223    535.426    535.426
 50.670   2157.249   2112.415     44.834    535.423   1919.204    728.831    535.423    535.423
 50.770   1697.000   1742.793    -45.793    535.422   1595.672    682.726    535.422    535.422
 50.870   1329.763   1398.294    -68.531    535.422   1294.341    639.524    535.422    535.422
 50.970   1089.342   1125.445    -36.103    535.423   1056.048    604.931    535.423    535.423
 51.070    840.000    936.159    -96.159    535.425    891.242    580.422    535.425    535.425
 51.170    795.000    819.505    -24.505    535.428    790.263    564.730    535.428    535.428
 51.270    733.833    754.403    -20.570    535.433    734.432    555.452    535.433    535.433
 51.370    771.888    719.319     52.569    535.439    704.545    550.256    535.439    535.439
 51.470    707.449    697.573      9.876    535.446    685.613    547.445    535.446    535.446
 51.570    664.000    679.519    -15.519    535.454    668.993    546.015    535.454    535.454
 51.670    648.000    662.096    -14.096    535.464    652.136    545.452    535.464    535.464
 51.770    638.000    645.838     -7.838    535.474    635.831    545.503    535.474    535.474
 51.870    612.000    631.988    -19.988    535.486    621.501    545.988    535.486    535.486
 51.970    643.000    621.251     21.749    535.499    610.071    546.689    535.499    535.499
 52.070    576.000    613.568    -37.568    535.512    601.792    547.295    535.512    535.512
 52.170    617.000    608.314      8.686    535.528    596.402    547.443    535.528    535.528
 52.270    655.000    604.748     50.252    535.544    593.391    546.903    535.544    535.544
 52.370    597.000    602.442     -5.442    535.561    592.255    545.750    535.561    535.561
 52.470    583.000    601.369    -18.369    535.579    592.667    544.283    535.579    535.579
 52.570    637.000    601.793     35.207    535.599    594.581    542.813    535.599    535.599
 52.670    627.000    604.255     22.745    535.619    598.325    541.551    535.619    535.619
 52.770    602.515    609.725     -7.210    535.641    604.764    540.603    535.641    535.641
 52.870    575.409    619.874    -44.464    535.663    615.542    539.996    535.663    535.663
 52.970    680.436    637.365     43.070    535.687    633.329    539.723    535.687    535.687
 53.070    634.000    665.954    -31.954    535.711    661.890    539.773    535.711    535.711
 53.170    649.171    710.099    -60.928    535.737    705.686    540.146    535.737    535.737
 53.270    786.010    773.801     12.209    535.764    768.753    540.807    535.764    535.764
 53.370    925.000    858.949     66.051    535.791    852.893    541.841    535.791    535.791
 53.470    964.882    962.715      2.166    535.820    955.349    543.181    535.820    535.820
 53.570   1131.000   1075.302     55.698    535.850   1066.486    544.663    535.850    535.850
 53.670   1203.000   1178.280     24.720    535.880   1168.139    546.026    535.880    535.880
 53.770   1248.000   1246.321      1.679    535.912   1235.331    546.917    535.912    535.912
 53.870   1258.000   1257.181      0.819    535.944   1246.124    547.027    535.944    535.944
 53.970   1222.000   1206.773     15.227    535.977   1196.486    546.297    535.977    535.977
 54.070   1114.000   1112.769      1.231    536.012   1103.844    544.971    536.012    536.012
 54.170   1012.620   1001.367     11.254    536.047    994.035    543.410    536.047    536.047
 54.270    817.000    893.890    -76.890    536.083    888.092    541.907    536.083    536.083
 54.370    810.110    802.805      7.305    536.120    798.310    540.635    536.120    536.120
 54.470    696.000    732.900    -36.900    536.158    729.413    539.659    536.158    536.158
 54.570    704.000    683.575     20.425    536.197    680.812    538.970    536.197    536.197
 54.670    694.441    651.222     43.218    536.236    648.947    538.518    536.236    536.236
 54.770    630.000    631.278     -1.278    536.277    629.321    538.239    536.277    536.277
 54.870    637.000    619.612     17.388    536.318    617.858    538.075    536.318    536.318
 54.970    637.000    613.141     23.859    536.360    611.521    537.983    536.360    536.360
 55.070    642.415    609.877     32.538    536.403    608.347    537.935    536.403    536.403
 55.170    611.000    608.678      2.322    536.447    607.212    537.914    536.447    536.447
 55.270    663.000    608.960     54.040    536.491    607.541    537.911    536.491    536.491
 55.370    567.232    610.467    -43.235    536.536    609.082    537.922    536.536    536.536
 55.470    629.000    613.132     15.868    536.582    611.771    537.944    536.582    536.582
 55.570    621.000    617.007      3.993    536.629    615.664    537.973    536.629    536.629
 55.670    630.000    622.241      7.759    536.677    620.935    537.983    536.677    536.677
 55.770    665.000    629.251     35.749    536.725    627.957    538.019    536.725    536.725
 55.870    658.000    638.734     19.266    536.774    637.429    538.079    536.774    536.774
 55.970    670.510    652.020     18.490    536.824    650.691    538.152    536.824    536.824
 56.070    650.386    671.614    -21.227    536.874    670.244    538.242    536.874    536.874
 56.170    690.000    701.900    -11.900    536.925    700.464    538.357    536.925    536.925
 56.270    783.000    749.890     33.110    536.977    748.349    538.509    536.977    536.977
 56.370    834.000    825.557      8.443    537.029    823.855    538.717    537.029    537.029
 56.470    964.653    941.076     23.576    537.083    939.132    539.003    537.083    537.083
 56.570   1068.000   1108.298    -40.298    537.136   1106.010    539.389    537.136    537.136
 56.670   1334.444   1334.313      0.130    537.191   1331.572    539.889    537.191    537.191
 56.770   1693.177   1615.769     77.408    537.246   1612.471    540.496    537.246    537.246
 56.870   1990.000   1933.064     56.936    537.301   1929.148    541.177    537.301    537.301
 56.970   2320.000   2245.484     74.516    537.358   2240.965    541.860    537.358    537.358
 57.070   2457.075   2490.645    -33.570    537.414   2485.656    542.433    537.414    537.414
 57.170   2672.000   2599.773     72.227    537.472   2594.565    542.775    537.472    537.472
 57.270   2547.273   2536.009     11.265    537.530   2530.878    542.822    537.530    537.530
 57.370   2246.400   2322.782    -76.382    537.588   2317.958    542.619    537.588    537.588
 57.470   2039.000   2024.483     14.517    537.647   2020.060    542.288    537.647    537.647
 57.570   1759.946   1706.998     52.949    537.707   1702.947    541.958    537.707    537.707
 57.670   1442.782   1416.937     25.845    537.767   1413.142    541.730    537.767    537.767
 57.770   1211.659   1179.262     32.397    537.828   1175.538    541.681    537.828    537.828
 57.870    973.486   1001.440    -27.954    537.889    997.535    541.887    537.889    537.889
 57.970    877.464    879.214     -1.750    537.950    874.772    542.455    537.950    537.950
 58.070    801.217    802.588     -1.371    538.012    797.082    543.557    538.012    538.012
 58.170    715.000    760.816    -45.816    538.075    753.451    545.461    538.075    538.075
 58.270    765.000    745.483     19.517    538.138    735.107    548.520    538.138    538.138
 58.370    763.000    751.514     11.486    538.201    736.592    553.118    538.201    538.201
 58.470    760.650    776.619    -15.970    538.265    755.339    559.530    538.265    538.265
 58.570    770.000    819.863    -49.863    538.329    790.420    567.748    538.329    538.329
 58.670    879.000    879.951     -0.951    538.394    841.023    577.290    538.394    538.394
 58.770    964.000    953.584     10.416    538.459    904.947    587.060    538.459    538.459
 58.870   1028.203   1034.254     -6.051    538.524    977.407    595.336    538.524    538.524
 58.970   1085.000   1112.614    -27.614    538.590   1051.057    600.120    538.590    538.590
 59.070   1154.266   1179.557    -25.290    538.656   1118.149    600.051    538.656    538.656
 59.170   1243.000   1229.432     13.568    538.723   1172.865    595.293    538.723    538.723
 59.270   1273.000   1259.159     13.841    538.790   1210.602    587.365    538.790    538.790
 59.370   1319.000   1265.948     53.052    538.857   1226.671    578.165    538.857    538.857
 59.470   1273.000   1249.767     23.233    538.924   1219.499    569.230    538.924    538.924
 59.570   1271.000   1217.765     53.235    538.992   1195.259    561.530    538.992    538.992
 59.670   1223.000   1182.838     40.162    539.060   1166.410    555.502    539.060    539.060
 59.770   1215.438   1157.674     57.765    539.129   1145.630    551.156    539.129    539.129
 59.870   1196.000   1151.037     44.963    539.197   1141.947    548.233    539.197    539.197
 59.970   1191.000   1168.101     22.899    539.266   1160.893    546.377    539.266    539.266
 60.070   1148.284   1211.673    -63.389    539.335   1205.610    545.255    539.335    539.335
 60.170   1285.000   1281.032      3.968    539.405   1275.635    544.611    539.405    539.405
 60.270   1416.000   1368.785     47.215    539.474   1363.760    544.269    539.474    539.474
 60.370   1514.000   1458.474     55.526    539.544   1453.655    544.103    539.544    539.544
 60.470   1636.000   1525.175    110.825    539.614   1520.504    544.019    539.614    539.614
 60.570   1502.454   1542.412    -39.958    539.684   1537.902    543.948    539.684    539.684
 60.670   1629.000   1496.333    132.667    539.754   1492.036    543.850    539.754    539.754
 60.770   1445.000   1395.258     49.742    539.825   1391.207    543.727    539.825    539.825
 60.870   1365.000   1262.655    102.345    539.895   1258.843    543.607    539.895    539.895
 60.970   1185.000   1123.302     61.698    539.966   1119.682    543.524    539.966    539.966
 61.070    923.606    995.671    -72.065    540.037    992.161    543.510    540.037    540.037
 61.170    929.000    890.623     38.377    540.108    887.114    543.595    540.108    540.108
 61.270    838.000    812.596     25.404    540.179    808.940    543.818    540.179    540.179
 61.370    792.183    761.631     30.552    540.250    757.629    544.235    540.250    540.250
 61.470    801.000    735.725     65.275    540.321    731.089    544.934    540.321    540.321
 61.570    698.082    732.907    -34.825    540.393    727.223    546.045    540.393    540.393
 61.670    743.000    752.512     -9.512    540.464    745.194    547.736    540.464    540.464
 61.770    772.000    795.316    -23.316    540.535    785.591    550.197    540.535    540.535
 61.870    912.000    862.582     49.418    540.607    849.516    553.586    540.607    540.607
 61.970    958.000    954.324      3.676    540.678    936.920    557.970    540.678    540.678
 62.070   1084.000   1067.268     16.732    540.750   1044.638    563.241    540.750    540.750
 62.170   1216.000   1192.977     23.023    540.821   1164.591    569.045    540.821    540.821
 62.270   1284.000   1316.519    -32.519    540.893   1282.501    574.734    540.893    540.893
 62.370   1466.000   1416.632     49.368    540.964   1378.047    579.374    540.964    540.964
 62.470   1480.606   1470.038     10.568    541.035   1428.979    581.939    541.035    541.035
 62.570   1465.356   1461.544      3.812    541.107   1420.771    581.759    541.107    541.107
 62.670   1417.524   1393.341     24.184    541.178   1355.502    578.935    541.178    541.178
 62.770   1292.000   1283.382      8.618    541.249   1250.320    574.262    541.249    541.249
 62.870   1112.000   1154.947    -42.947    541.320   1127.469    568.774    541.320    541.320
 62.970   1037.683   1027.819      9.865    541.391   1005.852    563.349    541.391    541.391
 63.070    861.000    915.118    -54.118    541.462    898.008    558.571    541.462    541.462
 63.170    803.000    823.475    -20.475    541.533    810.274    554.735    541.533    541.533
 63.270    737.000    754.321    -17.321    541.603    744.015    551.910    541.603    541.603
 63.370    731.107    705.577     25.530    541.674    697.243    550.007    541.674    541.674
 63.470    654.000    673.409    -19.409    541.744    666.286    548.863    541.744    541.744
 63.570    675.000    653.696     21.304    541.814    647.198    548.306    541.814    541.814
 63.670    715.000    643.015     71.985    541.884    636.690    548.200    541.884    541.884
 63.770    635.000    639.112     -4.112    541.954    632.579    548.475    541.954    541.954
 63.870    631.000    641.020    -10.020    542.024    633.885    549.142    542.024    542.024
 63.970    657.000    648.981      8.019    542.093    640.745    550.308    542.093    542.093
 64.070    715.000    664.150     50.850    542.162    654.108    552.176    542.162    542.162
 64.170    707.000    688.319     18.681    542.231    675.455    555.056    542.231    542.231
 64.270    738.221    723.427     14.794    542.300    706.334    559.340    542.300    542.300
 64.370    811.000    770.929     40.071    542.368    747.775    565.452    542.368    542.368
 64.470    840.583    831.017      9.566    542.436    799.620    573.744    542.436    542.436
 64.570    864.158    901.800    -37.642    542.504    859.836    584.360    542.504    542.504
 64.670   1054.000    978.545     75.455    542.571    923.917    597.075    542.571    542.571
 64.770    982.604   1053.246    -70.642    542.639    984.600    611.149    542.639    542.639
 64.870   1145.000   1115.237     29.763    542.706   1032.571    625.234    542.706    542.706
 64.970   1126.499   1153.713    -27.215    542.772   1058.974    637.383    542.772    542.772
 65.070   1187.317   1161.660     25.657    542.838   1059.074    645.315    542.838    542.838
 65.170   1174.000   1138.595     35.405    542.904   1034.287    647.127    542.904    542.904
 65.270   1080.000   1090.455    -10.455    542.970    991.083    642.284    542.970    542.970
 65.370   1089.000   1027.194     61.806    543.035    938.184    632.011    543.035    543.035
 65.470   1041.000    959.224     81.776    543.100    883.737    618.574    543.100    543.100
 65.570    864.000    894.506    -30.506    543.164    833.441    604.232    543.164    543.164
 65.670    890.732    837.495     53.238    543.228    790.051    590.687    543.228    543.228
 65.770    808.780    789.586     19.194    543.292    753.923    578.977    543.292    543.292
 65.870    756.494    750.321      6.173    543.355    724.138    569.562    543.355    543.355
 65.970    753.492    718.611     34.881    543.417    699.596    562.456    543.417    543.417
 66.070    687.000    693.394     -6.394    543.480    679.517    557.378    543.480    543.480
 66.170    605.000    673.748    -68.748    543.541    663.395    553.910    543.541    543.541
 66.270    616.000    658.852    -42.852    543.603    650.846    551.619    543.603    543.603
 66.370    691.331    647.997     43.333    543.663    641.537    550.130    543.663    543.663
 66.470    628.000    640.608    -12.608    543.724    635.176    549.159    543.724    543.724
 66.570    615.000    636.236    -21.236    543.783    631.510    548.511    543.783    543.783
 66.670    631.700    634.548     -2.848    543.843    630.328    548.064    543.843    543.843
 66.770    623.000    635.349    -12.349    543.901    631.507    547.744    543.901    543.901
 66.870    590.000    638.643    -48.643    543.960    635.090    547.513    543.960    543.960
 66.970    668.422    644.769     23.653    544.017    641.437    547.350    544.017    544.017
 67.070    647.000    654.589     -7.589    544.074    651.416    547.249    544.074    544.074
 67.170    685.732    669.733     15.998    544.131    666.654    547.212    544.131    544.131
 67.270    656.065    692.895    -36.829    544.187    689.831    547.251    544.187    544.187
 67.370    675.206    728.075    -52.870    544.242    724.928    547.390    544.242    544.242
 67.470    803.000    780.663     22.337    544.297    777.299    547.659    544.297    544.297
 67.570    817.000    857.137    -40.137    544.351    853.386    548.099    544.351    544.351
 67.670    943.000    964.218    -21.218    544.404    959.867    548.751    544.404    544.404
 67.770   1120.000   1107.388     12.612    544.457   1102.191    549.650    544.457    544.457
 67.870   1260.000   1288.895    -28.895    544.509   1282.596    550.809    544.509    544.509
 67.970   1466.000   1505.569    -39.569    544.561   1497.935    552.206    544.561    544.561
 68.070   1663.681   1746.808    -83.127    544.612   1737.680    553.770    544.612    544.612
 68.170   1944.054   1993.026    -48.972    544.662   1982.375    555.373    544.662    544.662
 68.270   2110.901   2215.051   -104.150    544.712   2203.042    556.823    544.712    544.712
 68.370   2365.000   2376.585    -11.585    544.760   2363.617    557.881    544.760    544.760
 68.470   2365.000   2443.580    -78.580    544.808   2430.273    558.325    544.808    544.808
 68.570   2428.236   2399.769     28.467    544.856   2386.837    558.047    544.856    544.856
 68.670   2285.000   2256.196     28.804    544.902   2244.269    557.119    544.902    544.902
 68.770   2041.000   2044.405     -3.405    544.948   2033.900    555.747    544.948    544.948
 68.870   1777.000   1801.068    -24.068    544.993   1792.168    554.170    544.993    544.993
 68.970   1596.944   1557.157     39.787    545.038   1549.847    552.592    545.038    545.038
 69.070   1322.562   1334.310    -11.747    545.081   1328.442    551.153    545.081    545.081
 69.170   1094.000   1144.959    -50.959    545.124   1140.310    549.936    545.124    545.124
 69.270    997.000    993.726      3.274    545.166    990.048    548.969    545.166    545.166
 69.370    815.000    879.354    -64.354    545.207    876.409    548.244    545.207    545.207
 69.470    827.000    796.883     30.117    545.248    794.466    547.730    545.248    545.248
 69.570    690.183    739.714    -49.531    545.287    737.666    547.382    545.287    545.287
 69.670    719.313    701.215     18.097    545.326    699.418    547.155    545.326    545.326
 69.770    695.730    675.696     20.034    545.364    674.066    547.016    545.364    545.364
 69.870    673.010    658.793     14.217    545.401    657.274    546.935    545.401    545.401
 69.970    626.093    647.453    -21.361    545.437    646.010    546.891    545.437    545.437
 70.070    642.000    639.697      2.303    545.473    638.305    546.872    545.473    545.473
 70.170    638.000    634.317      3.683    545.507    632.961    546.869    545.507    545.507
 70.270    673.538    630.619     42.919    545.541    629.286    546.878    545.541    545.541
 70.370    610.627    628.226    -17.600    545.573    626.905    546.896    545.573    545.573
 70.470    600.000    626.958    -26.958    545.605    625.640    546.924    545.605    545.605
 70.570    629.000    626.768      2.232    545.636    625.443    546.959    545.636    545.636
 70.670    630.000    627.734      2.266    545.666    626.393    547.005    545.666    545.666
 70.770    638.000    630.083      7.917    545.695    628.711    547.062    545.695    545.695
 70.870    665.125    634.256     30.869    545.723    632.836    547.136    545.723    545.723
 70.970    677.859    641.017     36.842    545.750    639.524    547.233    545.750    545.750
 71.070    638.000    651.594    -13.594    545.776    649.989    547.366    545.776    545.776
 71.170    639.000    667.823    -28.823    545.801    666.052    547.552    545.801    545.801
 71.270    673.000    692.269    -19.269    545.825    690.251    547.814    545.825    545.825
 71.370    712.467    728.231    -15.764    545.848    725.853    548.185    545.848    545.848
 71.470    834.887    779.550     55.337    545.870    776.662    548.701    545.870    545.870
 71.570    863.922    850.143     13.779    545.891    846.558    549.398    545.891    545.891
 71.670    951.000    943.233      7.767    545.911    938.734    550.308    545.911    545.911
 71.770   1014.343   1060.334    -45.991    545.930   1054.690    551.444    545.930    545.930
 71.870   1204.000   1200.133      3.867    545.948   1193.125    552.797    545.948    545.948
 71.970   1334.914   1357.441    -22.528    545.965   1348.904    554.316    545.965    545.965
 72.070   1518.691   1522.369     -3.678    545.981   1512.232    555.910    545.981    545.981
 72.170   1724.000   1679.877     44.123    545.996   1668.216    557.437    545.996    545.996
 72.270   1750.000   1810.338    -60.338    546.010   1797.415    558.715    546.010    546.010
 72.370   1858.000   1892.541    -34.541    546.022   1878.819    559.545    546.022    546.022
 72.470   1990.689   1910.193     80.495    546.034   1896.286    559.773    546.034    546.034
 72.570   1921.000   1859.320     61.680    546.045   1845.870    559.363    546.045    546.045
 72.670   1727.000   1750.465    -23.465    546.054   1738.009    558.415    546.054    546.054
 72.770   1571.000   1603.373    -32.373    546.062   1592.259    557.111    546.062    546.062
 72.870   1482.090   1439.201     42.889    546.069   1429.578    555.651    546.069    546.069
 72.970   1308.000   1275.564     32.436    546.075   1267.421    554.195    546.075    546.075
 73.070   1228.000   1124.961    103.039    546.080   1118.173    552.856    546.080    546.080
 73.170    949.977    994.868    -44.891    546.084    989.249    551.697    546.084    546.084
 73.270    901.135    888.437     12.698    546.086    883.775    550.746    546.086    546.086
 73.370    808.000    805.450      2.550    546.088    801.538    549.998    546.088    546.088
 73.470    725.440    743.427    -17.987    546.088    740.079    549.435    546.088    546.088
 73.570    648.056    698.719    -50.662    546.087    695.770    549.034    546.087    546.087
 73.670    722.000    667.402     54.598    546.085    664.718    548.768    546.085    546.085
 73.770    701.000    645.909     55.091    546.081    643.371    548.618    546.081    546.081
 73.870    685.000    631.343     53.657    546.077    628.848    548.571    546.077    546.077
 73.970    639.000    621.566     17.434    546.071    619.014    548.624    546.071    546.071
 74.070    645.816    615.120     30.696    546.064    612.410    548.776    546.064    546.064
 74.170    637.701    611.073     26.629    546.056    608.098    549.036    546.056    546.056
 74.270    651.346    608.851     42.495    546.046    605.499    549.407    546.046    546.046
 74.370    548.243    608.089    -59.846    546.035    604.247    549.890    546.035    546.035
 74.470    613.000    608.514      4.486    546.023    604.078    550.477    546.023    546.023
 74.570    665.790    609.862     55.928    546.010    604.747    551.148    546.010    546.010
 74.670    569.715    611.820    -42.104    545.996    605.979    551.865    545.996    545.996
 74.770    669.634    613.996     55.638    545.980    607.436    552.574    545.980    545.980
 74.870    631.000    615.916     15.084    545.963    608.712    553.206    545.963    545.963
 74.970    697.000    617.063     79.937    545.944    609.370    553.681    545.944    545.944
 75.070    638.000    617.008     20.992    545.925    609.043    553.935    545.925    545.925
 75.170    680.000    615.580     64.420    545.904    607.583    553.945    545.904    545.904
 75.270    628.319    612.966     15.353    545.882    605.142    553.747    545.882    545.882
 75.370    557.550    609.644    -52.093    545.858    602.113    553.426    545.858    545.858
 75.470    658.000    606.233     51.767    545.833    599.004    553.092    545.833    545.833
 75.570    655.000    603.374     51.626    545.807    596.342    552.862    545.807    545.807
 75.670    625.000    601.692     23.308    545.779    594.636    552.853    545.779    545.779
 75.770    664.000    601.801     62.199    545.750    594.379    553.183    545.750    545.750
 75.870    644.601    604.299     40.302    545.720    596.049    553.973    545.720    545.720
 75.970    620.000    609.766     10.234    545.688    600.106    555.345    545.688    545.688
 76.070    627.000    618.718      8.282    545.655    606.956    557.406    545.655    545.655
 76.170    592.722    631.535    -38.813    545.621    616.895    560.241    545.621    545.621
 76.270    663.000    648.366     14.634    545.585    630.038    563.885    545.585    545.585
 76.370    687.000    669.010     17.990    545.548    646.219    568.303    545.548    545.548
 76.470    712.000    692.805     19.195    545.510    664.910    573.359    545.510    545.510
 76.570    759.000    718.534     40.466    545.470    685.146    578.804    545.470    545.470
 76.670    759.980    744.347     15.633    545.429    705.458    584.256    545.429    545.429
 76.770    704.913    767.771    -62.858    545.386    723.888    589.201    545.386    545.386
 76.870    771.218    785.899    -14.681    545.342    738.134    593.037    545.342    545.342
 76.970    815.000    795.922     19.078    545.296    745.971    595.179    545.296    545.296
 77.070    775.000    796.009    -21.009    545.249    745.948    595.247    545.249    545.249
 77.170    843.000    786.067     56.933    545.201    737.990    593.222    545.201    545.201
 77.270    735.000    767.780    -32.780    545.151    723.429    589.454    545.151    545.151
 77.370    762.070    743.893     18.177    545.100    704.437    584.517    545.100    545.100
 77.470    664.000    717.307    -53.307    545.047    683.309    579.014    545.047    545.047
 77.570    633.188    690.508    -57.320    544.993    662.013    573.464    544.993    544.993
 77.670    645.000    665.347    -20.347    544.938    642.013    568.254    544.938    544.938
 77.770    576.000    643.029    -67.029    544.881    624.264    563.633    544.881    544.881
 77.870    554.000    624.178    -70.178    544.822    609.258    559.733    544.822    544.822
 77.970    635.886    608.937     26.949    544.762    597.108    556.584    544.762    544.762
 78.070    573.416    597.090    -23.674    544.701    587.643    554.142    544.701    544.701
 78.170    597.000    588.198      8.802    544.638    580.516    552.316    544.638    544.638
 78.270    583.000    581.721      1.279    544.574    575.299    550.993    544.574    544.574
 78.370    550.000    577.116    -27.116    544.508    571.560    550.061    544.508    544.508
 78.470    573.869    573.896     -0.027    544.441    568.915    549.419    544.441    544.441
 78.570    583.893    571.667     12.225    544.372    567.050    548.987    544.372    544.372
 78.670    548.000    570.133    -22.133    544.301    565.730    548.702    544.301    544.301
 78.770    519.115    569.084    -49.969    544.230    564.789    548.523    544.230    544.230
 78.870    542.076    568.382    -26.306    544.156    564.116    548.421    544.156    544.156
 78.970    554.000    567.944    -13.944    544.081    563.644    548.380    544.081    544.081
 79.070    592.539    567.726     24.813    544.005    563.337    548.392    544.005    544.005
 79.170    552.000    567.711    -15.711    543.927    563.181    548.456    543.927    543.927
 79.270    584.000    567.906     16.094    543.848    563.177    548.576    543.848    543.848
 79.370    588.693    568.333     20.361    543.767    563.337    548.761    543.767    543.767
 79.470    545.000    569.030    -24.030    543.684    563.685    549.028    543.684    543.684
 79.570    609.356    570.058     39.298    543.600    564.252    549.403    543.600    543.600
 79.670    599.184    571.495     27.688    543.515    565.079    549.928    543.515    543.515
 79.770    579.000    573.456      5.544    543.428    566.215    550.665    543.428    543.428
 79.870    604.000    576.093     27.907    543.339    567.724    551.704    543.339    543.339
 79.970    553.000    579.619    -26.619    543.249    569.688    553.176    543.249    543.249
 80.070    622.434    584.317     38.117    543.157    572.210    555.258    543.157    543.157
 80.170    575.757    590.551    -14.794    543.064    575.427    558.181    543.064    543.064
 80.270    579.000    598.766    -19.766    542.969    579.506    562.221    542.969    542.969
 80.370    646.318    609.475     36.843    542.873    584.647    567.691    542.873    542.873
 80.470    632.000    623.222      8.778    542.775    591.080    574.906    542.775    542.775
 80.570    715.000    640.533     74.467    542.675    599.060    584.136    542.675    542.675
 80.670    659.054    661.845     -2.792    542.574    608.854    595.554    542.574    542.574
 80.770    665.620    687.407    -21.787    542.471    620.706    609.161    542.471    542.471
 80.870    717.079    717.140     -0.062    542.367    634.777    624.723    542.367    542.367
 80.970    711.000    750.498    -39.498    542.261    651.052    641.702    542.261    542.261
 81.070    801.000    786.340     14.660    542.154    669.268    659.227    542.154    542.154
 81.170    772.511    822.887    -50.376    542.045    688.853    676.087    542.045    542.045
 81.270    917.532    857.809     59.723    541.935    708.938    690.823    541.935    541.935
 81.370    853.000    888.531    -35.531    541.823    728.440    701.941    541.823    541.823
 81.470    853.062    912.709    -59.647    541.709    746.223    708.234    541.709    541.709
 81.570    909.000    928.679    -19.679    541.594    761.263    709.061    541.594    541.594
 81.670    991.000    935.642     55.358    541.477    772.746    704.435    541.477    541.477
 81.770    932.000    933.633     -1.633    541.358    780.124    694.938    541.358    541.358
 81.870    952.904    923.442     29.462    541.238    783.172    681.585    541.238    541.238
 81.970    902.000    906.457     -4.457    541.117    781.973    665.683    541.117    541.117
 82.070    914.000    884.339     29.661    540.994    776.794    648.623    540.994    540.994
 82.170    818.884    858.706    -39.822    540.869    767.991    631.668    540.869    540.869
 82.270    821.000    831.016    -10.016    540.742    756.045    615.796    540.742    540.742
 82.370    814.000    802.597     11.403    540.614    741.641    601.650    540.614    540.614
 82.470    740.000    774.623    -34.623    540.485    725.627    589.556    540.485    540.485
 82.570    770.000    747.986     22.014    540.354    708.838    579.572    540.354    540.354
 82.670    693.169    723.208    -30.039    540.221    691.932    571.562    540.221    540.221
 82.770    657.000    700.486    -43.486    540.087    675.361    565.271    540.087    540.087
 82.870    624.000    679.857    -55.857    539.951    659.466    560.395    539.951    539.951
 82.970    679.000    661.356     17.644    539.813    644.577    556.640    539.813    539.813
 83.070    628.000    645.081    -17.081    539.674    631.044    553.751    539.674    539.674
 83.170    631.725    631.157      0.568    539.533    619.196    551.526    539.533    539.533
 83.270    604.493    619.687    -15.195    539.391    609.289    549.813    539.391    539.391
 83.370    600.000    610.723    -10.723    539.247    601.484    548.503    539.247    539.247
 83.470    595.263    604.253     -8.990    539.101    595.844    547.519    539.101    539.101
 83.570    570.000    600.196    -30.196    538.954    592.342    546.810    538.954    538.954
 83.670    584.000    598.398    -14.398    538.806    590.860    546.337    538.806    538.806
 83.770    549.431    598.622    -49.192    538.655    591.197    546.066    538.655    538.655
 83.870    585.000    600.541    -15.541    538.503    593.060    545.963    538.503    538.503
 83.970    535.000    603.734    -68.734    538.350    596.069    545.986    538.350    538.350
 84.070    586.000    607.677    -21.677    538.195    599.750    546.087    538.195    538.195
 84.170    560.167    611.744    -51.577    538.038    603.534    546.208    538.038    538.038
 84.270    649.000    615.380     33.620    537.880    606.914    546.301    537.880    537.880
 84.370    575.000    617.887    -42.887    537.720    609.261    546.300    537.720    537.720
 84.470    573.000    618.715    -45.715    537.559    610.072    546.154    537.559    537.559
 84.570    600.000    617.560    -17.560    537.396    609.075    545.836    537.396    537.396
 84.670    599.000    614.444    -15.444    537.231    606.286    545.347    537.231    537.231
 84.770    593.000    609.687    -16.687    537.065    601.995    544.720    537.065    537.065
 84.870    643.481    603.785     39.697    536.897    596.647    544.002    536.897    536.897
 84.970    559.505    597.276    -37.770    536.728    590.727    543.248    536.728    536.728
 85.070    606.000    590.653     15.347    536.557    584.676    542.510    536.557    536.557
 85.170    604.000    584.321     19.679    536.384    578.850    541.836    536.384    536.384
 85.270    592.000    578.583     13.417    536.210    573.510    541.267    536.210    536.210
 85.370    598.000    573.643     24.357    536.035    568.824    540.840    536.035    536.035
 85.470    554.000    569.616    -15.616    535.857    564.875    540.588    535.857    535.857
 85.570    548.000    566.547    -18.547    535.679    561.677    540.539    535.679    535.679
 85.670    570.000    564.424      5.576    535.498    559.193    540.721    535.498    535.498
 85.770    590.251    563.200     27.051    535.316    557.354    541.154    535.316    535.316
 85.870    551.000    562.811    -11.811    535.133    556.081    541.855    535.133    535.133
 85.970    589.000    563.186     25.814    534.948    555.297    542.828    534.948    534.948
 86.070    538.000    564.258    -26.258    534.761    554.946    544.063    534.761    534.761
 86.170    514.000    565.964    -51.964    534.573    554.995    545.531    534.573    534.573
 86.270    570.000    568.252      1.748    534.384    555.443    547.179    534.384    534.384
 86.370    571.000    571.075     -0.075    534.193    556.324    548.927    534.193    534.193
 86.470    565.319    574.391     -9.072    534.000    557.703    550.669    534.000    534.000
 86.570    571.000    578.162     -7.162    533.806    559.678    552.267    533.806    533.806
 86.670    531.000    582.354    -51.354    533.610    562.368    553.569    533.610    533.610
 86.770    565.000    586.946    -21.946    533.413    565.909    554.418    533.413    533.413
 86.870    586.000    591.945     -5.945    533.214    570.435    554.688    533.214    533.214
 86.970    602.569    597.411      5.158    533.014    576.064    554.317    533.014    533.014
 87.070    585.000    603.443    -18.443    532.812    582.872    553.332    532.812    532.812
 87.170    617.000    610.150      6.850    532.609    590.865    551.833    532.609    532.609
 87.270    608.000    617.586     -9.586    532.404    599.958    549.962    532.404    532.404
 87.370    592.000    625.701    -33.701    532.198    609.949    547.868    532.198    532.198
 87.470    638.429    634.293      4.136    531.990    620.502    545.689    531.990    531.990
 87.570    646.000    642.995      3.005    531.780    631.136    543.537    531.780    531.780
 87.670    691.000    651.271     39.729    531.570    641.229    541.499    531.570    531.570
 87.770    710.000    658.447     51.553    531.358    650.051    539.634    531.358    531.358
 87.870    738.000    663.791     74.209    531.144    656.833    537.979    531.144    531.144
 87.970    686.621    666.656     19.964    530.929    660.916    536.546    530.929    530.929
 88.070    635.176    666.657    -31.480    530.712    661.920    535.330    530.712    530.712
 88.170    705.000    663.788     41.212    530.494    659.857    534.314    530.494    530.494
 88.270    633.707    658.431    -24.725    530.275    655.130    533.475    530.275    530.275
 88.370    710.000    651.235     58.765    530.054    648.414    532.787    530.054    530.054
 88.470    651.000    642.967      8.033    529.831    640.502    532.223    529.831    529.831
 88.570    638.000    634.405      3.595    529.607    632.192    531.761    529.607    529.607
 88.670    588.935    626.264    -37.329    529.382    624.218    531.382    529.382    529.382
 88.770    620.000    619.156      0.844    529.156    617.207    531.072    529.156    529.156
 88.870    625.000    613.560     11.440    528.928    611.648    530.818    528.928    528.928
 88.970    651.349    609.795     41.554    528.698    607.869    530.614    528.698    528.698
 89.070    636.000    608.010     27.990    528.467    606.028    530.450    528.467    528.467
 89.170    633.000    608.181     24.819    528.235    606.106    530.320    528.235    528.235
 89.270    640.000    610.122     29.878    528.002    607.926    530.216    528.002    528.002
 89.370    585.000    613.493    -28.493    527.767    611.158    530.130    527.767    527.767
 89.470    621.000    617.825      3.175    527.530    615.341    530.050    527.530    527.530
 89.570    656.000    622.535     33.465    527.293    619.907    529.965    527.293    527.293
 89.670    656.000    626.964     29.036    527.054    624.210    529.859    527.054    527.054
 89.770    630.672    630.425      0.246    526.813    627.578    529.718    526.813    526.813
 89.870    606.000    632.297    -26.297    526.572    629.401    529.529    526.572    526.572
 89.970    649.622    632.137     17.485    526.329    629.248    529.282    526.329    526.329
 90.070    642.000    629.786     12.214    526.084    626.960    528.975    526.084    526.084
 90.170    652.144    625.392     26.752    525.839    622.682    528.612    525.839    525.839
 90.270    604.102    619.346    -15.243    525.592    616.793    528.205    525.592    525.592
 90.370    558.385    612.163    -53.778    525.344    609.795    527.767    525.344    525.344
 90.470    598.019    604.374     -6.356    525.094    602.206    527.312    525.094    525.094
 90.570    599.000    596.457      2.543    524.843    594.491    526.852    524.843    524.843
 90.670    560.000    588.803    -28.803    524.591    587.033    526.398    524.591    524.591
 90.770    603.000    581.712     21.288    524.338    580.123    525.957    524.338    524.338
 90.870    531.000    575.388    -44.388    524.084    573.961    525.535    524.084    524.084
 90.970    583.000    569.948     13.052    523.828    568.661    525.134    523.828    523.828
 91.070    558.333    565.435     -7.102    523.571    564.265    524.756    523.571    523.571
 91.170    546.000    561.832    -15.832    523.313    560.755    524.400    523.313    523.313
 91.270    547.706    559.082    -11.375    523.053    558.078    524.065    523.053    523.053
 91.370    590.977    557.105     33.873    522.793    556.154    523.748    522.793    522.793
 91.470    560.000    555.817      4.183    522.531    554.902    523.448    522.531    522.531
 91.570    572.000    555.144     16.856    522.268    554.251    523.162    522.268    522.268
 91.670    528.110    555.034    -26.924    522.004    554.148    522.890    522.004    522.004
 91.770    551.000    555.465     -4.465    521.739    554.573    522.629    521.739    521.739
 91.870    596.228    556.451     39.777    521.473    555.538    522.382    521.473    521.473
 91.970    539.197    558.041    -18.844    521.205    557.093    522.148    521.205    521.205
 92.070    564.868    560.323      4.545    520.937    559.323    521.930    520.937    520.937
 92.170    582.000    563.420     18.580    520.667    562.348    521.730    520.667    520.667
 92.270    527.000    567.481    -40.481    520.396    566.315    521.551    520.396    520.396
 92.370    614.516    572.676     41.840    520.124    571.389    521.396    520.124    520.124
 92.470    627.222    579.181     48.042    519.851    577.743    521.270    519.851    519.851
 92.570    579.000    587.163     -8.163    519.577    585.543    521.174    519.577    519.577
 92.670    638.222    596.764     41.458    519.302    594.928    521.109    519.302    519.302
 92.770    624.000    608.082     15.918    519.026    605.996    521.077    519.026    519.026
 92.870    590.000    621.149    -31.149    518.749    618.783    521.075    518.749    518.749
 92.970    605.000    635.913    -30.913    518.471    633.238    521.098    518.471    518.471
 93.070    634.143    652.235    -18.093    518.192    649.231    521.141    518.192    518.192
 93.170    668.000    669.893     -1.893    517.912    666.547    521.196    517.912    517.912
 93.270    668.607    688.511    -19.904    517.631    684.821    521.252    517.631    517.631
 93.370    654.000    707.615    -53.615    517.349    703.591    521.298    517.349    517.349
 93.470    712.000    726.657    -14.657    517.066    722.319    521.323    517.066    517.066
 93.570    741.000    745.077     -4.077    516.782    740.454    521.320    516.782    516.782
 93.670    788.456    762.421     26.035    516.497    757.543    521.288    516.497    516.497
 93.770    754.000    778.455    -24.455    516.212    773.343    521.235    516.212    516.212
 93.870    748.175    793.221    -45.046    515.925    787.876    521.182    515.925    515.925
 93.970    746.000    806.993    -60.993    515.638    801.385    521.158    515.638    515.638
 94.070    838.000    820.149     17.851    515.350    814.213    521.199    515.350    515.350
 94.170    852.000    833.033     18.967    515.061    826.666    521.342    515.061    515.061
 94.270    801.521    845.858    -44.336    514.771    838.924    521.621    514.771    514.771
 94.370    870.000    858.700     11.300    514.480    851.037    522.061    514.480    514.480
 94.470    866.281    871.551     -5.271    514.188    862.986    522.675    514.188    514.188
 94.570    844.000    884.399    -40.399    513.896    874.756    523.463    513.896    513.896
 94.670    875.000    897.242    -22.242    513.603    886.364    524.408    513.603    513.603
 94.770    867.751    910.026    -42.275    513.309    897.791    525.475    513.309    513.309
 94.870    987.119    922.522     64.596    513.014    908.860    526.612    513.014    513.014
 94.970    947.000    934.216     12.784    512.719    919.129    527.748    512.719    512.719
 95.070    917.000    944.259    -27.259    512.423    927.832    528.797    512.423    512.423
 95.170    958.000    951.513      6.487    512.126    933.927    529.666    512.126    512.126
 95.270    940.915    954.695    -13.780    511.829    936.229    530.258    511.829    511.829
 95.370    967.354    952.634     14.721    511.531    933.648    530.489    511.531    511.531
 95.470    961.000    944.576     16.424    511.232    925.485    530.305    511.232    511.232
 95.570    982.000    930.439     51.561    510.933    911.670    529.692    510.933    510.933
 95.670    896.000    910.895    -14.895    510.633    892.842    528.684    510.633    510.633
 95.770    905.000    887.240     17.760    510.333    870.227    527.349    510.333    510.333
 95.870    861.000    861.145     -0.145    510.032    845.406    525.777    510.032    510.032
 95.970    871.987    834.413     37.574    509.730    820.086    524.065    509.730    509.730
 96.070    785.000    808.810    -23.810    509.428    795.942    522.304    509.428    509.428
 96.170    732.057    785.979    -53.922    509.125    774.538    520.573    509.125    509.125
 96.270    783.000    767.406     15.594    508.822    757.294    518.937    508.822    508.822
 96.370    772.000    754.405     17.595    508.519    745.473    517.448    508.519    508.519
 96.470    728.930    748.112    -19.182    508.215    740.177    516.141    508.215    508.215
 96.570    749.000    749.488     -0.488    507.910    742.345    515.037    507.910    507.910
 96.670    733.262    759.309    -26.046    507.605    752.744    514.145    507.605    507.605
 96.770    805.000    778.151     26.849    507.300    771.952    513.464    507.300    507.300
 96.870    835.016    806.374     28.642    506.994    800.338    512.986    506.994    506.994
 96.970    854.000    844.082      9.918    506.688    838.017    512.697    506.688    506.688
 97.070    912.000    891.074     20.926    506.381    884.808    512.581    506.381    506.381
 97.170    900.000    946.790    -46.790    506.075    940.171    512.617    506.075    506.075
 97.270   1012.000   1010.243      1.757    505.768   1003.142    512.782    505.768    505.768
 97.370   1093.000   1079.957     13.043    505.460   1072.273    513.049    505.460    505.460
 97.470   1084.737   1153.879    -69.142    505.153   1145.544    513.386    505.153    505.153
 97.570   1183.879   1229.551    -45.672    504.845   1220.533    513.759    504.845    504.845
 97.670   1336.000   1303.816     32.184    504.537   1294.124    514.123    504.537    504.537
 97.770   1386.000   1373.045     12.955    504.228   1362.735    514.437    504.228    504.228
 97.870   1463.000   1433.291     29.709    503.920   1422.466    514.652    503.920    503.920
 97.970   1567.006   1480.612     86.394    503.611   1469.422    514.721    503.611    503.611
 98.070   1487.175   1511.601    -24.425    503.302   1500.235    514.605    503.302    503.302
 98.170   1507.308   1523.991    -16.683    502.993   1512.663    514.278    502.993    502.993
 98.270   1491.000   1517.129    -26.129    502.684   1506.056    513.734    502.684    502.684
 98.370   1514.000   1492.097     21.903    502.375   1481.480    512.988    502.375    502.375
 98.470   1453.700   1451.434      2.266    502.066   1441.441    512.071    502.066    502.066
 98.570   1341.383   1398.611    -57.229    501.756   1389.369    511.025    501.756    501.756
 98.670   1302.000   1337.500    -35.500    501.447   1329.089    509.895    501.447    501.447
 98.770   1264.000   1271.966     -7.966    501.138   1264.424    508.722    501.138    501.138
 98.870   1163.000   1205.614    -42.614    500.829   1198.944    507.543    500.829    500.829
 98.970   1135.824   1141.653     -5.829    500.519   1135.825    506.391    500.519    500.519
 99.070   1054.000   1082.836    -28.836    500.210   1077.798    505.289    500.210    500.210
 99.170   1020.000   1031.449    -11.449    499.901   1027.131    504.254    499.901    499.901
 99.270    955.000    989.366    -34.366    499.592    985.687    503.300    499.592    499.592
 99.370    915.000    958.053    -43.053    499.284    954.926    502.431    499.284    499.284
 99.470    943.000    938.615      4.385    498.975    935.955    501.648    498.975    498.975
 99.570    999.032    931.837     67.195    498.667    929.560    500.948    498.667    498.667
 99.670    974.000    938.200     35.800    498.358    936.231    500.325    498.358    498.358
 99.770    996.661    957.903     38.758    498.050    956.173    499.772    498.050    498.050
 99.870    983.914    990.865     -6.951    497.743    989.314    499.280    497.743    497.743
 99.970   1062.000   1036.719     25.281    497.435   1035.298    498.839    497.435    497.435
100.070   1114.000   1094.796     19.204    497.128   1093.465    498.441    497.128    497.128
100.170   1141.000   1164.086    -23.086    496.822   1162.813    498.078    496.822    496.822
100.270   1232.000   1243.198    -11.198    496.515   1241.959    497.741    496.515    496.515
100.370   1365.000   1330.308     34.692    496.209   1329.086    497.426    496.209    496.209
100.470   1416.571   1423.124     -6.553    495.904   1421.907    497.125    495.904    495.904
100.570   1475.031   1518.876    -43.845    495.598   1517.658    496.835    495.598    495.598
100.670   1637.000   1614.382     22.618    495.294   1613.160    496.551    495.294    495.294
100.770   1768.000   1706.218     61.782    494.990   1704.993    496.271    494.990    494.990
100.870   1744.013   1791.008    -46.995    494.686   1789.781    495.991    494.686    494.686
100.970   1966.633   1865.764    100.869    494.383   1864.537    495.711    494.383    494.383
101.070   1959.238   1928.164     31.074    494.080   1926.937    495.431    494.080    494.080
101.170   1951.000   1976.622    -25.622    493.778   1975.393    495.152    493.778    493.778
101.270   2022.000   2010.146     11.854    493.477   2008.911    494.876    493.477    493.477
101.370   2092.000   2028.101     63.899    493.176   2026.852    494.605    493.176    493.176
101.470   2049.417   2030.048     19.369    492.876   2028.776    494.341    492.876    492.876
101.570   1992.000   2015.810    -23.810    492.577   2014.502    494.087    492.577    492.577
101.670   1973.000   1985.729    -12.729    492.279   1984.373    493.844    492.279    492.279
101.770   1938.000   1940.987     -2.987    491.981   1939.568    493.612    491.981    491.981
101.870   1897.000   1883.755     13.245    491.684   1882.258    493.392    491.684    491.684
101.970   1811.000   1817.167     -6.167    491.388   1815.582    493.181    491.388    491.388
102.070   1719.000   1744.833    -25.833    491.092   1743.148    492.978    491.092    491.092
102.170   1633.000   1670.436    -37.436    490.798   1668.645    492.778    490.798    490.798
102.270   1494.000   1597.318   -103.318    490.504   1595.421    492.580    490.504    490.504
102.370   1465.000   1528.200    -63.200    490.212   1526.201    492.376    490.212    490.212
102.470   1407.000   1465.050    -58.050    489.920   1462.958    492.164    489.920    489.920
102.570   1487.548   1409.048     78.500    489.629   1406.879    491.939    489.629    489.629
102.670   1416.737   1360.613     56.124    489.340   1358.385    491.698    489.340    489.340
102.770   1320.249   1319.459      0.791    489.051   1317.191    491.438    489.051    489.051
102.870   1213.000   1284.662    -71.662    488.763   1282.378    491.160    488.763    488.763
102.970   1231.162   1254.787    -23.625    488.477   1252.508    490.862    488.477    488.477
103.070   1274.884   1228.023     46.861    488.192   1225.773    490.544    488.192    488.192
103.170   1194.370   1202.398     -8.028    487.908   1200.198    490.207    487.908    487.908
103.270   1152.000   1176.044    -24.044    487.625   1173.917    489.851    487.625    487.625
103.370   1120.000   1147.468    -27.468    487.343   1145.433    489.476    487.343    487.343
103.470   1069.000   1115.752    -46.752    487.063   1113.827    489.085    487.063    487.063
103.570   1001.000   1080.624    -79.624    486.784   1078.822    488.681    486.784    486.784
103.670   1030.349   1042.390    -12.041    486.506   1040.720    488.269    486.506    486.506
103.770    948.000   1001.760    -53.760    486.230   1000.227    487.852    486.230    486.230
103.870   1010.000    959.667     50.333    485.955    958.272    487.435    485.955    485.955
103.970    978.000    917.106     60.894    485.681    915.846    487.021    485.681    485.681
104.070    853.636    875.035    -21.399    485.409    873.903    486.614    485.409    485.409
104.170    865.722    834.311     31.411    485.138    833.300    486.217    485.138    485.138
104.270    831.000    795.660     35.340    484.869    794.759    485.830    484.869    484.869
104.370    814.000    759.660     54.340    484.602    758.859    485.456    484.602    484.602
104.470    776.000    726.731     49.269    484.336    726.019    485.095    484.336    484.336
104.570    752.619    697.139     55.480    484.071    696.504    484.747    484.071    484.071
104.670    662.189    670.997     -8.808    483.809    670.428    484.412    483.809    483.809
104.770    620.127    648.290    -28.164    483.548    647.777    484.090    483.548    483.548
104.870    654.000    628.891     25.109    483.289    628.425    483.780    483.289    483.289
104.970    612.000    612.590     -0.590    483.031    612.160    483.480    483.031    483.031
105.070    648.025    599.119     48.906    482.775    598.719    483.191    482.775    482.775
105.170    606.000    588.183     17.817    482.522    587.806    482.911    482.522    482.522
105.270    613.000    579.479     33.521    482.270    579.118    482.640    482.270    482.270
105.370    628.488    572.717     55.771    482.020    572.366    482.377    482.020    482.020
105.470    619.000    567.637     51.363    481.771    567.291    482.121    481.771    481.771
105.570    563.000    564.011     -1.011    481.525    563.665    481.873    481.525    481.525
105.670    614.028    561.643     52.385    481.281    561.294    481.630    481.281    481.281
105.770    565.654    560.420      5.234    481.039    560.062    481.395    481.039    481.039
105.870    554.694    560.253     -5.559    480.799    559.880    481.168    480.799    480.799
105.970    614.000    561.078     52.922    480.561    560.684    480.948    480.561    480.561
106.070    599.000    562.869     36.131    480.325    562.449    480.737    480.325    480.325
106.170    598.000    565.634     32.366    480.092    565.181    480.534    480.092    480.092
106.270    599.000    569.397     29.603    479.860    568.903    480.341    479.860    479.860
106.370    523.474    574.194    -50.720    479.631    573.651    480.158    479.631    479.631
106.470    604.888    580.065     24.823    479.404    579.465    479.986    479.404    479.404
106.570    636.000    587.043     48.957    479.180    586.377    479.824    479.180    479.180
106.670    650.000    595.143     54.857    478.958    594.402    479.674    478.958    478.958
106.770    648.000    604.351     43.649    478.738    603.527    479.534    478.738    478.738
106.870    641.000    614.616     26.384    478.521    613.700    479.405    478.521    478.521
106.970    619.579    625.839     -6.259    478.306    624.824    479.286    478.306    478.306
107.070    609.712    637.870    -28.158    478.094    636.751    479.174    478.094    478.094
107.170    662.000    650.505     11.495    477.885    649.278    479.069    477.885    477.885
107.270    656.000    663.484     -7.484    477.678    662.149    478.967    477.678    477.678
107.370    663.000    676.493    -13.493    477.473    675.052    478.866    477.473    477.473
107.470    646.049    689.174    -43.125    477.272    687.632    478.762    477.272    477.272
107.570    696.000    701.129     -5.129    477.073    699.498    478.652    477.073    477.073
107.670    709.764    711.950     -2.186    476.877    710.243    478.531    476.877    476.877
107.770    691.699    721.248    -29.548    476.683    719.483    478.397    476.683    476.683
107.870    678.000    728.703    -50.703    476.493    726.902    478.244    476.493    476.493
107.970    768.301    734.115     34.186    476.305    732.301    478.072    476.305    476.305
108.070    716.543    737.447    -20.903    476.121    735.644    477.879    476.121    476.121
108.170    716.000    738.836    -22.836    475.939    737.068    477.667    475.939    475.939
108.270    713.000    738.581    -25.581    475.761    736.869    477.437    475.761    475.761
108.370    699.173    737.088    -37.916    475.585    735.450    477.192    475.585    475.585
108.470    681.000    734.816    -53.816    475.412    733.266    476.937    475.412    475.412
108.570    711.453    732.217    -20.764    475.243    730.764    476.674    475.243    475.243
108.670    734.000    729.690      4.310    475.077    728.340    476.409    475.077    475.077
108.770    725.000    727.558     -2.558    474.914    726.314    476.145    474.914    474.914
108.870    678.000    726.044    -48.044    474.754    724.905    475.885    474.754    474.754
108.970    715.000    725.267    -10.267    474.598    724.230    475.631    474.598    474.598
109.070    744.000    725.239     18.761    474.445    724.298    475.385    474.445    474.445
109.170    690.000    725.860    -35.860    474.296    725.009    475.149    474.296    474.296
109.270    733.000    726.931      6.069    474.149    726.163    474.923    474.149    474.149
109.370    708.000    728.164    -20.164    474.007    727.471    474.709    474.007    474.007
109.470    747.000    729.199     17.801    473.868    728.573    474.506    473.868    473.868
109.570    742.000    729.637     12.363    473.732    729.070    474.314    473.732    473.732
109.670    743.000    729.082     13.918    473.600    728.567    474.133    473.600    473.600
109.770    737.000    727.187      9.813    473.472    726.718    473.961    473.472    473.472
109.870    776.050    723.703     52.347    473.348    723.273    473.799    473.348    473.348
109.970    719.000    718.513      0.487    473.227    718.118    473.645    473.227    473.227
110.070    690.000    711.642    -21.642    473.110    711.278    473.498    473.110    473.110
110.170    682.659    703.246    -20.587    472.997    702.907    473.359    472.997    472.997
110.270    686.000    693.574     -7.574    472.888    693.259    473.227    472.888    472.888
110.370    699.892    682.937     16.955    472.782    682.642    473.101    472.782    472.782
110.470    681.000    671.661      9.339    472.681    671.384    472.981    472.681    472.681
110.570    654.000    660.072     -6.072    472.584    659.813    472.864    472.584    472.584
110.670    592.370    648.484    -56.113    472.491    648.238    472.756    472.491    472.491
110.770    665.000    637.157     27.843    472.402    636.923    472.653    472.402    472.402
110.870    651.000    626.323     24.677    472.317    626.099    472.556    472.317    472.317
110.970    603.563    616.184    -12.622    472.236    615.969    472.465    472.236    472.236
111.070    604.370    606.884     -2.515    472.160    606.676    472.380    472.160    472.160
111.170    556.049    598.529    -42.480    472.088    598.327    472.299    472.088    472.088
111.270    616.000    591.186     24.814    472.020    590.988    472.225    472.020    472.020
111.370    578.000    584.885     -6.885    471.957    584.692    472.156    471.957    471.957
111.470    593.000    579.626     13.374    471.899    579.435    472.092    471.899    471.899
111.570    606.895    575.379     31.516    471.844    575.191    472.034    471.844    471.844
111.670    617.000    572.094     44.906    471.795    571.907    471.982    471.795    471.795
111.770    592.000    569.704     22.296    471.750    569.518    471.935    471.750    471.750
111.870    585.287    568.133     17.154    471.709    567.946    471.893    471.709    471.709
111.970    591.000    567.296     23.704    471.674    567.109    471.856    471.674    471.674
112.070    575.000    567.112      7.888    471.643    566.924    471.825    471.643    471.643
112.170    525.861    567.500    -41.639    471.617    567.311    471.799    471.617    471.617
112.270    593.000    568.383     24.617    471.596    568.192    471.778    471.596    471.596
112.370    548.000    569.694    -21.694    471.579    569.502    471.763    471.579    471.579
112.470    580.543    571.375      9.168    471.568    571.181    471.753    471.568    471.568
112.570    548.000    573.379    -25.379    471.562    573.184    471.747    471.562    471.562
112.670    599.000    575.672     23.328    471.561    575.475    471.747    471.561    471.561
112.770    544.000    578.232    -34.232    471.565    578.034    471.753    471.565    471.565
112.870    632.000    581.054     50.946    471.574    580.854    471.763    471.574    471.574
112.970    624.994    584.143     40.851    471.588    583.942    471.779    471.588    471.588
113.070    536.000    587.523    -51.523    471.608    587.319    471.801    471.608    471.608
113.170    601.000    591.227      9.773    471.633    591.020    471.828    471.633    471.633
113.270    640.000    595.306     44.694    471.663    595.096    471.861    471.663    471.663
113.370    618.721    599.828     18.893    471.699    599.614    471.901    471.699    471.699
113.470    610.000    604.879      5.121    471.741    604.661    471.947    471.741    471.741
113.570    577.000    610.573    -33.573    471.788    610.348    471.999    471.788    471.788
113.670    613.000    617.052     -4.052    471.840    616.819    472.059    471.840    471.840
113.770    587.879    624.501    -36.621    471.898    624.258    472.126    471.898    471.898
113.870    623.000    633.153    -10.153    471.962    632.898    472.200    471.962    471.962
113.970    670.237    643.308     26.930    472.032    643.038    472.283    472.032    472.032
114.070    617.000    655.340    -38.340    472.107    655.051    472.374    472.107    472.107
114.170    710.882    669.720     41.162    472.189    669.410    472.474    472.189    472.189
114.270    695.000    687.033      7.967    472.276    686.696    472.584    472.276    472.276
114.370    702.000    707.994     -5.994    472.370    707.627    472.703    472.370    472.370
114.470    701.624    733.473    -31.849    472.469    733.070    472.832    472.469    472.469
114.570    726.304    764.507    -38.203    472.575    764.061    472.972    472.575    472.575
114.670    749.308    802.317    -53.009    472.686    801.822    473.123    472.686    472.686
114.770    838.272    848.318    -10.046    472.804    847.767    473.284    472.804    472.804
114.870    871.404    904.122    -32.718    472.928    903.508    473.457    472.928    472.928
114.970    955.323    971.525    -16.202    473.059    970.839    473.641    473.059    473.059
115.070   1116.962   1052.490     64.472    473.196   1051.725    473.837    473.196    473.196
115.170   1208.508   1149.108     59.400    473.339   1148.255    474.044    473.339    473.339
115.270   1240.000   1263.546    -23.546    473.489   1262.598    474.261    473.489    473.489
115.370   1479.391   1397.974     81.417    473.646   1396.924    474.490    473.646    473.646
115.470   1611.022   1554.475     56.547    473.809   1553.315    474.728    473.809    473.809
115.570   1800.922   1734.938     65.983    473.979   1733.663    474.975    473.979    473.979
115.670   2010.372   1940.936     69.436    474.155   1939.541    475.231    474.155    474.155
115.770   2258.000   2173.592     84.408    474.339   2172.074    475.495    474.339    474.339
115.870   2425.366   2433.448     -8.082    474.529   2431.805    475.766    474.529    474.529
115.970   2667.925   2720.325    -52.400    474.726   2718.560    476.042    474.726    474.726
116.070   3030.000   3033.207     -3.207    474.931   3031.321    476.323    474.931    474.931
116.170   3447.000   3370.126     76.874    475.142   3368.126    476.608    475.142    475.142
116.270   3734.351   3728.089      6.263    475.360   3725.982    476.896    475.360    475.360
116.370   3996.000   4103.014   -107.014    475.586   4100.811    477.188    475.586    475.586
116.470   4549.000   4489.708     59.292    475.819   4487.420    477.482    475.819    475.819
116.570   4911.000   4881.837     29.163    476.059   4879.478    477.779    476.059    476.059
116.670   5241.002   5272.150    -31.148    476.306   5269.734    478.081    476.306    476.306
116.770   5717.768   5652.298     65.470    476.561   5649.840    478.388    476.561    476.561
116.870   6021.342   6013.127      8.215    476.824   6010.641    478.702    476.824    476.824
116.970   6276.000   6344.888    -68.888    477.094   6342.388    479.024    477.094    477.094
117.070   6737.000   6637.571     99.429    477.371   6635.073    479.354    477.371    477.371
117.170   7058.000   6881.402    176.598    477.656   6878.919    479.693    477.656    477.656
117.270   7046.000   7067.486    -21.486    477.949   7065.031    480.042    477.949    477.949
117.370   7346.194   7188.565    157.629    478.250   7186.147    480.400    478.250    478.250
117.470   7167.000   7239.761    -72.761    478.559   7237.388    480.767    478.559    478.559
117.570   7226.000   7219.143      6.857    478.876   7216.818    481.142    478.876    478.876
117.670   7186.776   7127.962     58.814    479.200   7125.686    481.524    479.200    479.200
117.770   6880.000   6970.488    -90.488    479.533   6968.257    481.910    479.533    479.533
117.870   6723.000   6753.491    -30.491    479.874   6751.301    482.298    479.874    479.874
117.970   6390.000   6485.517    -95.517    480.223   6483.364    482.687    480.223    480.223
118.070   6101.000   6176.126    -75.126    480.580   6174.004    483.073    480.580    480.580
118.170   5721.000   5835.209   -114.209    480.946   5833.117    483.455    480.946    480.946
118.270   5267.000   5472.471   -205.471    481.320   5470.408    483.831    481.320    481.320
118.370   4947.000   5097.056   -150.056    481.702   5095.025    484.200    481.702    481.702
118.470   4691.000   4717.303    -26.303    482.093   4715.307    484.560    482.093    482.093
118.570   4359.348   4340.589     18.759    482.493   4338.633    484.913    482.493    482.493
118.670   4003.000   3973.240     29.760    482.901   3971.329    485.259    482.901    482.901
118.770   3763.000   3620.484    142.516    483.318   3618.623    485.601    483.318    483.318
118.870   3326.000   3286.445     39.555    483.744   3284.641    485.941    483.744    483.744
118.970   3044.055   2974.180     69.875    484.179   2972.435    486.281    484.179    484.179
119.070   2739.000   2685.735     53.265    484.622   2684.054    486.624    484.622    484.622
119.170   2408.000   2422.249    -14.249    485.075   2420.632    486.973    485.075    485.075
119.270   2120.000   2184.056    -64.056    485.537   2182.504    487.331    485.537    485.537
119.370   1986.000   1970.817     15.183    486.007   1969.331    487.700    486.007    486.007
119.470   1700.000   1781.647    -81.647    486.487   1780.225    488.082    486.487    486.487
119.570   1687.387   1615.238     72.148    486.977   1613.876    488.479    486.977    486.977
119.670   1520.000   1469.979     50.021    487.476   1468.673    488.894    487.476    487.476
119.770   1330.000   1344.061    -14.061    487.984   1342.805    489.327    487.984    487.984
119.870   1228.000   1235.576     -7.576    488.501   1234.364    489.780    488.501    488.501
119.970   1160.234   1142.597     17.637    489.029   1141.421    490.254    489.029    489.029
120.070   1128.000   1063.246     64.754    489.565   1062.097    490.749    489.565    489.565
120.170    977.000    995.746    -18.746    490.112    994.614    491.267    490.112    490.112
120.270    981.000    938.457     42.543    490.668    937.332    491.807    490.668    490.668
120.370    933.000    889.898     43.102    491.235    888.771    492.369    491.235    491.235
120.470    815.000    848.760    -33.760    491.811    847.619    492.955    491.811    491.811
120.570    827.000    813.904     13.096    492.397    812.738    493.564    492.397    492.397
120.670    756.200    784.356    -28.156    492.993    783.153    494.195    492.993    492.993
120.770    787.000    759.291     27.709    493.599    758.039    494.849    493.599    493.599
120.870    707.000    738.022    -31.022    494.216    736.709    495.526    494.216    494.216
120.970    751.724    719.979     31.745    494.843    718.594    496.226    494.843    494.843
121.070    738.025    704.696     33.329    495.480    703.226    496.949    495.480    495.480
121.170    693.268    691.790      1.478    496.128    690.223    497.695    496.128    496.128
121.270    645.986    680.952    -34.967    496.786    679.275    498.465    496.786    496.786
121.370    675.000    671.929      3.071    497.455    670.129    499.258    497.455    497.455
121.470    701.890    664.515     37.375    498.135    662.579    500.075    498.135    498.135
121.570    635.000    658.541    -23.541    498.825    656.454    500.917    498.825    498.825
121.670    674.000    653.866     20.134    499.526    651.614    501.784    499.526    499.526
121.770    634.000    650.371    -16.371    500.238    647.940    502.678    500.238    500.238
121.870    673.001    647.956     25.045    500.961    645.329    503.598    500.961    500.961
121.970    604.000    646.531    -42.531    501.695    643.691    504.546    501.695    501.695
122.070    651.000    646.013      4.987    502.440    642.944    505.522    502.440    502.440
122.170    683.000    646.327     36.673    503.196    643.011    506.527    503.196    503.196
122.270    621.000    647.397    -26.397    503.964    643.816    507.561    503.964    503.964
122.370    578.000    649.149    -71.149    504.743    645.286    508.625    504.743    504.743
122.470    620.000    651.506    -31.506    505.534    647.343    509.717    505.534    505.534
122.570    666.000    654.385     11.615    506.336    649.907    510.836    506.336    506.336
122.670    698.045    657.701     40.344    507.149    652.895    511.981    507.149    507.149
122.770    672.000    661.362     10.638    507.974    656.216    513.148    507.974    507.974
122.870    674.509    665.269      9.240    508.811    659.776    514.335    508.811    508.811
122.970    660.000    669.316     -9.316    509.660    663.473    515.537    509.660    509.660
123.070    657.493    673.392    -15.899    510.521    667.199    516.750    510.521    510.521
123.170    667.000    677.379    -10.379    511.394    670.844    517.969    511.394    511.394
123.270    671.624    681.156     -9.532    512.279    674.291    519.187    512.279    512.279
123.370    720.000    684.601     35.399    513.176    677.424    520.398    513.176    513.176
123.470    658.834    687.596    -28.762    514.085    680.133    521.597    514.085    514.085
123.570    659.000    690.030    -31.030    515.007    682.312    522.775    515.007    515.007
123.670    687.000    691.806     -4.806    515.941    683.870    523.929    515.941    515.941
123.770    730.000    692.837     37.163    516.887    684.726    525.053    516.887    516.887
123.870    729.637    693.066     36.571    517.846    684.826    526.142    517.846    517.846
123.970    692.000    692.521     -0.521    518.818    684.201    527.195    518.818    518.818
124.070    745.000    691.181     53.819    519.803    682.831    528.210    519.803    519.803
124.170    728.772    689.075     39.697    520.800    680.745    529.186    520.800    520.800
124.270    730.930    686.256     44.674    521.810    677.997    530.125    521.810    521.810
124.370    680.450    682.794     -2.344    522.833    674.653    531.029    522.833    522.833
124.470    732.264    678.770     53.494    523.870    670.792    531.901    523.870    523.870
124.570    662.000    674.270    -12.270    524.919    666.498    532.743    524.919    524.919
124.670    695.000    669.385     25.615    525.982    661.857    533.559    525.982    525.982
124.770    681.129    664.203     16.925    527.058    656.954    534.354    527.058    527.058
124.870    642.000    658.815    -16.815    528.147    651.874    535.133    528.147    528.147
124.970    695.000    653.304     41.696    529.250    646.696    535.900    529.250    529.250
