neutron_powder_diffraction_0231
R_wp: 3.947
Temperature (K): 1056.227
Counts: 83885.00
Wavelength (Ã…): 2.52098
COMMENTS
Test file for demonstrating the .xyy file format in Reel1.0
END OF HEADER
   tth       Y_obs     Y_calc      Y_res    Background    Phase_1_Nuc    Phase_1_Mag    Phase_2_Nuc    Phase_2_Mag
  9.970    617.000    570.699     46.301    570.119    570.670    570.119    570.148    570.119
 10.070    579.000    570.794      8.206    570.164    570.764    570.164    570.193    570.164
 10.170    603.169    570.890     32.280    570.204    570.860    570.204    570.234    570.204
 10.270    593.000    570.990     22.010    570.240    570.960    570.240    570.269    570.240
 10.370    541.980    571.095    -29.115    570.269    571.065    570.269    570.299    570.269
 10.470    576.000    571.210      4.790    570.294    571.179    570.294    570.324    570.294
 10.570    614.649    571.349     43.300    570.314    571.319    570.314    570.344    570.314
 10.670    584.000    571.492     12.508    570.329    571.462    570.329    570.359    570.329
 10.770    532.000    571.653    -39.653    570.339    571.622    570.339    570.369    570.339
 10.870    586.000    571.843     14.157    570.344    571.810    570.344    570.375    570.344
 10.970    571.000    572.071     -1.071    570.344    572.038    570.344    570.376    570.344
 11.070    537.233    572.353    -35.120    570.339    572.319    570.339    570.372    570.339
 11.170    562.000    572.712    -10.712    570.329    572.678    570.329    570.362    570.329
 11.270    597.000    573.182     23.818    570.315    573.147    570.315    570.348    570.315
 11.370    529.052    573.820    -44.769    570.296    573.785    570.296    570.330    570.296
 11.470    597.000    574.750     22.250    570.273    574.714    570.273    570.306    570.273
 11.570    557.351    576.322    -18.970    570.244    576.284    570.244    570.279    570.244
 11.670    632.000    579.598     52.402    570.212    579.556    570.212    570.248    570.212
 11.770    656.000    587.256     68.744    570.175    587.200    570.175    570.221    570.175
 11.870    659.000    603.959     55.041    570.133    603.891    570.133    570.183    570.133
 11.970    625.721    633.850     -8.130    570.087    633.765    570.087    570.137    570.087
 12.070    646.000    673.619    -27.619    570.037    673.511    570.037    570.087    570.037
 12.170    702.000    705.891     -3.891    569.982    705.764    569.982    570.033    569.982
 12.270    660.000    707.876    -47.876    569.923    707.748    569.923    569.974    569.923
 12.370    721.451    677.698     43.753    569.860    677.587    569.860    569.911    569.860
 12.470    583.000    637.382    -54.382    569.793    637.293    569.793    569.844    569.793
 12.570    637.000    605.920     31.080    569.722    605.848    569.722    569.774    569.722
 12.670    567.885    587.883    -19.998    569.646    587.816    569.646    569.704    569.646
 12.770    568.000    579.465    -11.465    569.567    579.401    569.567    569.626    569.567
 12.870    580.719    575.812      4.906    569.483    575.750    569.483    569.543    569.483
 12.970    588.000    574.031     13.969    569.396    573.969    569.396    569.455    569.396
 13.070    537.000    572.949    -35.949    569.305    572.887    569.305    569.364    569.305
 13.170    517.000    572.178    -55.178    569.210    572.116    569.210    569.270    569.210
 13.270    545.525    571.583    -26.058    569.111    571.521    569.111    569.171    569.111
 13.370    562.000    571.105     -9.105    569.008    571.043    569.008    569.069    569.008
 13.470    548.000    570.707    -22.707    568.901    570.645    568.901    568.962    568.901
 13.570    555.000    570.367    -15.367    568.791    570.305    568.791    568.853    568.791
 13.670    554.000    570.068    -16.068    568.677    570.006    568.677    568.739    568.677
 13.770    612.416    569.800     42.616    568.560    569.737    568.560    568.622    568.560
 13.870    607.000    569.555     37.445    568.439    569.492    568.439    568.501    568.439
 13.970    569.000    569.326     -0.326    568.315    569.263    568.315    568.377    568.315
 14.070    552.000    569.111    -17.111    568.187    569.048    568.187    568.250    568.187
 14.170    600.000    568.906     31.094    568.055    568.842    568.055    568.119    568.055
 14.270    583.000    568.707     14.293    567.921    568.643    567.921    567.984    567.921
 14.370    605.027    568.515     36.512    567.782    568.450    567.782    567.847    567.782
 14.470    532.000    568.326    -36.326    567.641    568.261    567.641    567.706    567.641
 14.570    575.589    568.140      7.449    567.496    568.075    567.496    567.561    567.496
 14.670    535.000    567.956    -32.956    567.348    567.891    567.348    567.414    567.348
 14.770    583.175    567.774     15.401    567.197    567.708    567.197    567.263    567.197
 14.870    553.000    567.595    -14.595    567.043    567.525    567.043    567.112    567.043
 14.970    550.000    567.413    -17.413    566.886    567.343    566.886    566.956    566.886
 15.070    561.294    567.232     -5.938    566.725    567.160    566.725    566.797    566.725
 15.170    538.000    567.049    -29.049    566.562    566.977    566.562    566.634    566.562
 15.270    539.068    566.868    -27.800    566.395    566.795    566.395    566.468    566.395
 15.370    561.699    566.685     -4.987    566.226    566.611    566.226    566.299    566.226
 15.470    536.000    566.499    -30.499    566.054    566.425    566.054    566.128    566.054
 15.570    560.000    566.312     -6.312    565.878    566.237    565.878    565.953    565.878
 15.670    544.000    566.122    -22.122    565.700    566.047    565.700    565.775    565.700
 15.770    555.000    565.932    -10.932    565.519    565.856    565.519    565.595    565.519
 15.870    607.000    565.739     41.261    565.336    565.663    565.336    565.412    565.336
 15.970    533.000    565.545    -32.545    565.149    565.468    565.149    565.226    565.149
 16.070    539.000    565.349    -26.349    564.960    565.272    564.960    565.037    564.960
 16.170    559.000    565.153     -6.153    564.769    565.076    564.769    564.846    564.769
 16.270    580.000    564.954     15.046    564.574    564.876    564.574    564.652    564.574
 16.370    568.000    564.752      3.248    564.378    564.673    564.378    564.456    564.378
 16.470    580.407    564.548     15.859    564.178    564.469    564.178    564.257    564.178
 16.570    608.564    564.342     44.222    563.976    564.263    563.976    564.056    563.976
 16.670    604.000    564.135     39.865    563.772    564.055    563.772    563.852    563.772
 16.770    573.000    563.925      9.075    563.565    563.845    563.565    563.645    563.565
 16.870    538.000    563.713    -25.713    563.356    563.632    563.356    563.437    563.356
 16.970    536.767    563.500    -26.733    563.144    563.418    563.144    563.226    563.144
 17.070    598.914    563.284     35.630    562.931    563.202    562.931    563.012    562.931
 17.170    580.531    563.067     17.464    562.714    562.984    562.714    562.797    562.714
 17.270    563.000    562.849      0.151    562.496    562.765    562.496    562.581    562.496
 17.370    524.463    562.628    -38.166    562.275    562.543    562.275    562.361    562.275
 17.470    525.575    562.405    -36.830    562.053    562.319    562.053    562.139    562.053
 17.570    539.186    562.180    -22.995    561.828    562.094    561.828    561.914    561.828
 17.670    555.000    561.954     -6.954    561.601    561.867    561.601    561.688    561.601
 17.770    578.000    561.725     16.275    561.371    561.637    561.371    561.459    561.371
 17.870    553.000    561.495     -8.495    561.140    561.407    561.140    561.229    561.140
 17.970    586.000    561.265     24.735    560.907    561.176    560.907    560.996    560.907
 18.070    539.000    561.032    -22.032    560.672    560.942    560.672    560.761    560.672
 18.170    544.097    560.797    -16.699    560.435    560.706    560.435    560.525    560.435
 18.270    560.000    560.560     -0.560    560.196    560.469    560.196    560.287    560.196
 18.370    556.000    560.321     -4.321    559.955    560.229    559.955    560.046    559.955
 18.470    542.000    560.081    -18.081    559.712    559.988    559.712    559.804    559.712
 18.570    545.986    559.839    -13.853    559.467    559.746    559.467    559.560    559.467
 18.670    550.911    559.596     -8.685    559.221    559.502    559.221    559.315    559.221
 18.770    599.482    559.351     40.131    558.973    559.257    558.973    559.067    558.973
 18.870    528.000    559.105    -31.105    558.723    559.010    558.723    558.818    558.723
 18.970    556.657    558.857     -2.200    558.472    558.761    558.472    558.568    558.472
 19.070    576.989    558.608     18.381    558.218    558.511    558.218    558.315    558.218
 19.170    591.980    558.358     33.622    557.964    558.260    557.964    558.062    557.964
 19.270    538.000    558.111    -20.111    557.707    558.008    557.707    557.810    557.707
 19.370    545.000    557.860    -12.860    557.449    557.754    557.449    557.556    557.449
 19.470    592.963    557.607     35.356    557.190    557.500    557.190    557.298    557.190
 19.570    574.000    557.353     16.647    556.929    557.244    556.929    557.038    556.929
 19.670    557.883    557.097      0.786    556.667    556.987    556.667    556.776    556.667
 19.770    549.000    556.839     -7.839    556.403    556.729    556.403    556.513    556.403
 19.870    563.712    556.580      7.132    556.138    556.469    556.138    556.249    556.138
 19.970    586.723    556.321     30.402    555.871    556.209    555.871    555.983    555.871
 20.070    557.174    556.061      1.113    555.603    555.948    555.603    555.716    555.603
 20.170    586.851    555.800     31.051    555.334    555.686    555.334    555.448    555.334
 20.270    546.000    555.538     -9.538    555.063    555.422    555.063    555.179    555.063
 20.370    589.787    555.275     34.512    554.791    555.159    554.791    554.908    554.791
 20.470    593.527    555.023     38.505    554.518    554.905    554.518    554.636    554.518
 20.570    546.000    554.770     -8.770    554.244    554.651    554.244    554.363    554.244
 20.670    593.670    554.506     39.164    553.969    554.386    553.969    554.088    553.969
 20.770    579.000    554.240     24.760    553.692    554.119    553.692    553.813    553.692
 20.870    545.000    553.975     -8.975    553.414    553.852    553.414    553.537    553.414
 20.970    520.815    553.708    -32.894    553.136    553.585    553.136    553.259    553.136
 21.070    531.000    553.442    -22.442    552.856    553.317    552.856    552.981    552.856
 21.170    554.000    553.175      0.825    552.575    553.049    552.575    552.701    552.575
 21.270    570.000    552.908     17.092    552.293    552.781    552.293    552.421    552.293
 21.370    547.849    552.642     -4.792    552.010    552.513    552.010    552.139    552.010
 21.470    560.466    552.375      8.091    551.727    552.245    551.727    551.857    551.727
 21.570    587.000    552.109     34.891    551.442    551.977    551.442    551.574    551.442
 21.670    531.000    551.843    -20.843    551.157    551.710    551.157    551.290    551.157
 21.770    529.560    551.578    -22.018    550.870    551.443    550.870    551.005    550.870
 21.870    530.945    551.314    -20.369    550.583    551.177    550.583    550.719    550.583
 21.970    487.000    551.050    -64.050    550.295    550.912    550.295    550.433    550.295
 22.070    514.147    550.788    -36.641    550.006    550.649    550.006    550.146    550.006
 22.170    549.452    550.528     -1.076    549.716    550.387    549.716    549.858    549.716
 22.270    522.000    550.270    -28.270    549.426    550.127    549.426    549.570    549.426
 22.370    527.360    550.016    -22.656    549.135    549.871    549.135    549.280    549.135
 22.470    523.000    549.782    -26.782    548.843    549.634    548.843    548.991    548.843
 22.570    545.967    549.568     -3.602    548.551    549.419    548.551    548.700    548.551
 22.670    552.000    549.390      2.610    548.258    549.238    548.258    548.409    548.258
 22.770    589.833    549.189     40.644    547.964    549.036    547.964    548.118    547.964
 22.870    545.816    548.961     -3.145    547.670    548.806    547.670    547.826    547.670
 22.970    552.000    548.741      3.259    547.376    548.583    547.376    547.534    547.376
 23.070    543.000    548.527     -5.527    547.080    548.366    547.080    547.241    547.080
 23.170    548.000    548.330     -0.330    546.785    548.165    546.785    546.950    546.785
 23.270    537.000    548.183    -11.183    546.488    548.015    546.488    546.658    546.488
 23.370    569.748    548.038     21.710    546.192    547.866    546.192    546.364    546.192
 23.470    569.000    547.898     21.102    545.894    547.724    545.894    546.070    545.894
 23.570    518.000    547.790    -29.790    545.597    547.613    545.597    545.775    545.597
 23.670    569.318    547.727     21.591    545.299    547.547    545.299    545.480    545.299
 23.770    592.000    547.727     44.273    545.001    547.543    545.001    545.185    545.001
 23.870    539.000    547.817     -8.817    544.702    547.631    544.702    544.890    544.702
 23.970    512.000    548.041    -36.041    544.403    547.852    544.403    544.595    544.403
 24.070    539.000    548.513     -9.513    544.104    548.320    544.104    544.299    544.104
 24.170    568.000    549.557     18.443    543.804    549.361    543.804    544.004    543.804
 24.270    586.000    552.085     33.915    543.505    551.887    543.505    543.708    543.505
 24.370    542.000    558.117    -16.117    543.205    557.919    543.205    543.412    543.205
 24.470    575.658    570.632      5.026    542.905    570.438    542.905    543.117    542.905
 24.570    579.256    591.383    -12.127    542.604    591.200    542.604    542.821    542.604
 24.670    584.031    616.608    -32.578    542.304    616.439    542.304    542.526    542.304
 24.770    646.393    634.145     12.249    542.003    633.983    542.003    542.231    542.003
 24.870    583.000    631.260    -48.260    541.702    631.090    541.702    541.936    541.702
 24.970    597.000    610.257    -13.257    541.402    610.067    541.402    541.641    541.402
 25.070    641.000    584.915     56.085    541.101    584.700    541.101    541.346    541.101
 25.170    571.900    565.480      6.420    540.800    565.244    540.800    541.052    540.800
 25.270    553.000    554.117     -1.117    540.499    553.866    540.499    540.758    540.499
 25.370    565.630    548.545     17.085    540.198    548.282    540.198    540.465    540.198
 25.470    550.000    545.939      4.061    539.897    545.666    539.897    540.172    539.897
 25.570    536.000    544.565     -8.565    539.596    544.283    539.596    539.880    539.596
 25.670    555.000    543.693     11.307    539.295    543.401    539.295    539.588    539.295
 25.770    559.706    543.047     16.659    538.994    542.744    538.994    539.298    538.994
 25.870    603.000    542.537     60.463    538.693    542.224    538.693    539.008    538.693
 25.970    550.000    542.109      7.891    538.393    541.784    538.393    538.719    538.393
 26.070    613.000    541.742     71.258    538.092    541.404    538.092    538.431    538.092
 26.170    568.000    541.433     26.567    537.792    541.082    537.792    538.144    537.792
 26.270    553.186    541.177     12.010    537.492    540.810    537.492    537.859    537.492
 26.370    508.009    540.969    -32.961    537.192    540.587    537.192    537.575    537.192
 26.470    579.168    540.809     38.359    536.892    540.409    536.892    537.293    536.892
 26.570    583.000    540.696     42.304    536.593    540.277    536.593    537.012    536.593
 26.670    545.451    540.634      4.817    536.293    540.193    536.293    536.734    536.293
 26.770    577.000    540.632     36.368    535.994    540.169    535.994    536.458    535.994
 26.870    506.618    540.704    -34.086    535.696    540.215    535.696    536.185    535.696
 26.970    561.000    540.867     20.133    535.397    540.349    535.397    535.915    535.397
 27.070    541.907    541.144      0.763    535.099    540.594    535.099    535.648    535.099
 27.170    539.000    541.573     -2.573    534.802    540.988    534.802    535.385    534.802
 27.270    573.000    542.225     30.775    534.504    541.601    534.504    535.127    534.504
 27.370    586.000    543.167     42.833    534.207    542.498    534.207    534.875    534.207
 27.470    501.946    544.516    -42.570    533.911    543.796    533.911    534.628    533.911
 27.570    536.642    546.679    -10.036    533.614    545.902    533.614    534.389    533.614
 27.670    590.000    550.936     39.064    533.319    550.092    533.319    534.159    533.319
 27.770    561.000    561.794     -0.794    533.023    560.871    533.023    533.940    533.023
 27.870    588.000    590.822     -2.822    532.729    589.802    532.729    533.732    532.729
 27.970    641.000    656.425    -15.425    532.434    655.282    532.434    533.541    532.434
 28.070    736.000    767.538    -31.538    532.140    766.243    532.140    533.368    532.140
 28.170    933.058    893.735     39.323    531.847    892.270    531.847    533.219    531.847
 28.270    995.309    958.429     36.879    531.554    956.793    531.554    533.100    531.554
 28.370    904.940    908.851     -3.912    531.262    907.040    531.262    533.020    531.262
 28.470    793.000    796.207     -3.207    530.970    794.169    530.970    532.991    530.970
 28.570    672.000    706.773    -34.773    530.679    704.417    530.679    533.032    530.679
 28.670    715.000    686.889     28.111    530.389    684.094    530.389    533.177    530.389
 28.770    697.529    733.493    -35.964    530.099    730.090    530.099    533.486    530.099
 28.870    804.566    806.304     -1.739    529.809    802.025    529.809    534.069    529.809
 28.970    765.000    842.875    -77.875    529.521    837.272    529.521    535.113    529.521
 29.070    784.000    804.550    -20.550    529.233    796.892    529.233    536.898    529.233
 29.170    699.000    722.647    -23.647    528.945    711.834    528.945    539.775    528.945
 29.270    640.000    647.663     -7.663    528.659    632.271    528.659    544.067    528.659
 29.370    612.000    602.690      9.310    528.373    581.209    528.373    549.863    528.373
 29.470    629.852    584.571     45.281    528.088    555.992    528.088    556.670    528.088
 29.570    640.000    580.386     59.614    527.803    545.312    527.803    562.877    527.803
 29.670    606.000    578.919     27.081    527.519    540.662    527.519    565.775    527.519
 29.770    599.000    574.511     24.489    527.236    538.185    527.236    563.561    527.236
 29.870    571.000    567.024      3.976    526.954    536.560    526.954    557.417    526.954
 29.970    547.000    558.772    -11.772    526.673    535.410    526.673    550.034    526.673
 30.070    540.759    551.553    -10.794    526.392    534.608    526.392    543.335    526.392
 30.170    530.000    546.087    -16.087    526.112    534.128    526.112    538.069    526.112
 30.270    571.570    542.498     29.071    525.833    534.061    525.833    534.268    525.833
 30.370    517.959    540.912    -22.953    525.555    534.811    525.555    531.653    525.555
 30.470    569.000    542.105     26.895    525.278    537.507    525.278    529.870    525.278
 30.570    570.000    548.004     21.996    525.002    544.379    525.002    528.616    525.002
 30.670    597.000    561.041     35.959    524.726    558.066    524.726    527.679    524.726
 30.770    554.993    581.350    -26.358    524.451    578.833    524.451    526.932    524.451
 30.870    591.000    602.992    -11.992    524.178    600.816    524.178    526.303    524.178
 30.970    645.017    613.442     31.576    523.905    611.540    523.905    525.752    523.905
 31.070    617.000    604.017     12.983    523.633    602.348    523.633    525.257    523.633
 31.170    565.000    581.915    -16.915    523.362    580.444    523.362    524.804    523.362
 31.270    572.000    559.744     12.256    523.092    558.437    523.092    524.384    523.092
 31.370    570.155    544.241     25.914    522.823    543.067    522.823    523.989    522.823
 31.470    535.000    535.736     -0.736    522.555    534.672    522.555    523.615    522.555
 31.570    549.000    531.726     17.274    522.288    530.753    522.288    523.258    522.288
 31.670    532.000    529.859      2.141    522.022    528.964    522.022    522.915    522.022
 31.770    541.000    528.854     12.146    521.757    528.025    521.757    522.584    521.757
 31.870    508.000    528.202    -20.202    521.493    527.432    521.493    522.262    521.493
 31.970    540.000    527.737     12.263    521.230    527.017    521.230    521.949    521.230
 32.070    559.000    527.403     31.597    520.969    526.727    520.969    521.643    520.969
 32.170    539.249    527.176     12.074    520.708    526.539    520.708    521.343    520.708
 32.270    545.000    527.049     17.951    520.448    526.447    520.448    521.049    520.448
 32.370    549.741    527.021     22.720    520.189    526.450    520.189    520.760    520.189
 32.470    533.000    527.101      5.899    519.932    526.557    519.932    520.475    519.932
 32.570    528.000    527.302      0.698    519.675    526.782    519.675    520.194    519.675
 32.670    520.000    527.646     -7.646    519.420    527.149    519.420    519.917    519.420
 32.770    595.000    528.170     66.830    519.166    527.692    519.166    519.643    519.166
 32.870    548.103    528.922     19.182    518.913    528.462    518.913    519.372    518.913
 32.970    568.766    529.971     38.795    518.661    529.527    518.661    519.104    518.661
 33.070    551.000    531.432     19.568    518.410    531.002    518.410    518.838    518.410
 33.170    494.262    533.502    -39.240    518.160    533.085    518.160    518.575    518.160
 33.270    580.000    536.635     43.365    517.912    536.231    517.912    518.315    517.912
 33.370    577.000    542.097     34.903    517.665    541.702    517.665    518.057    517.665
 33.470    538.661    553.380    -14.719    517.419    552.993    517.419    517.800    517.419
 33.570    586.652    578.534      8.118    517.174    578.152    517.174    517.546    517.174
 33.670    635.000    631.152      3.848    516.930    630.769    516.930    517.294    516.930
 33.770    780.000    724.762     55.238    516.688    724.372    516.688    517.044    516.688
 33.870    842.000    857.541    -15.541    516.447    857.141    516.447    516.796    516.447
 33.970   1061.000    994.227     66.773    516.207    993.824    516.207    516.550    516.207
 34.070   1042.729   1065.241    -22.512    515.968   1064.854    515.968    516.305    515.968
 34.170    995.000   1020.705    -25.705    515.730   1020.350    515.730    516.062    515.730
 34.270    841.303    894.076    -52.772    515.494    893.749    515.494    515.821    515.494
 34.370    776.000    755.730     20.270    515.259    755.418    515.259    515.582    515.259
 34.470    615.224    650.490    -35.266    515.026    650.182    515.026    515.344    515.026
 34.570    552.026    587.492    -35.466    514.793    587.184    514.793    515.108    514.793
 34.670    538.503    555.746    -17.243    514.562    555.438    514.562    514.873    514.562
 34.770    546.000    541.022      4.978    514.332    540.715    514.332    514.640    514.332
 34.870    553.000    533.828     19.172    514.104    533.523    514.104    514.409    514.104
 34.970    563.013    529.668     33.345    513.877    529.365    513.877    514.179    513.877
 35.070    563.000    526.823     36.177    513.651    526.522    513.651    513.951    513.651
 35.170    513.000    524.680    -11.680    513.427    524.382    513.427    513.725    513.427
 35.270    512.000    522.988    -10.988    513.203    522.691    513.203    513.500    513.203
 35.370    549.000    521.615     27.385    512.982    521.320    512.982    513.276    512.982
 35.470    520.000    520.476     -0.476    512.761    520.182    512.761    513.054    512.761
 35.570    522.000    519.514      2.486    512.542    519.222    512.542    512.834    512.542
 35.670    560.000    518.690     41.310    512.324    518.399    512.324    512.615    512.324
 35.770    514.000    517.972     -3.972    512.108    517.682    512.108    512.398    512.108
 35.870    495.601    517.341    -21.740    511.893    517.052    511.893    512.182    511.893
 35.970    496.000    516.779    -20.779    511.680    516.491    511.680    511.968    511.680
 36.070    511.000    516.275     -5.275    511.467    515.987    511.467    511.755    511.467
 36.170    536.995    515.820     21.175    511.257    515.533    511.257    511.544    511.257
 36.270    506.000    515.407     -9.407    511.047    515.120    511.047    511.335    511.047
 36.370    509.000    515.032     -6.032    510.839    514.745    510.839    511.127    510.839
 36.470    483.000    514.691    -31.691    510.633    514.404    510.633    510.920    510.633
 36.570    514.993    514.384      0.609    510.428    514.096    510.428    510.715    510.428
 36.670    536.000    514.110     21.890    510.224    513.822    510.224    510.512    510.224
 36.770    534.000    513.876     20.124    510.022    513.588    510.022    510.310    510.022
 36.870    502.499    513.698    -11.199    509.821    513.409    509.821    510.110    509.821
 36.970    528.000    513.622     14.378    509.621    513.333    509.621    509.911    509.621
 37.070    534.457    513.763     20.694    509.424    513.473    509.424    509.714    509.424
 37.170    493.300    514.351    -21.051    509.227    514.061    509.227    509.518    509.227
 37.270    539.000    515.728     23.272    509.032    515.437    509.032    509.324    509.032
 37.370    536.441    518.202     18.240    508.839    517.910    508.839    509.131    508.839
 37.470    516.000    521.722     -5.722    508.646    521.430    508.646    508.940    508.646
 37.570    503.000    525.520    -22.520    508.456    525.227    508.456    508.751    508.456
 37.670    564.000    528.049     35.951    508.267    527.757    508.267    508.563    508.267
 37.770    520.000    527.925     -7.925    508.079    527.634    508.079    508.377    508.079
 37.870    529.547    525.326      4.221    507.893    525.035    507.893    508.192    507.893
 37.970    507.000    521.657    -14.657    507.708    521.367    507.708    508.009    507.708
 38.070    500.000    518.121    -18.121    507.525    517.830    507.525    507.827    507.525
 38.170    500.000    515.227    -15.227    507.343    514.932    507.343    507.647    507.343
 38.270    507.000    513.097     -6.097    507.163    512.798    507.163    507.469    507.163
 38.370    497.000    511.649    -14.649    506.984    511.345    506.984    507.292    506.984
 38.470    468.926    510.706    -41.779    506.807    510.398    506.807    507.117    506.807
 38.570    519.000    510.093      8.907    506.632    509.783    506.632    506.944    506.632
 38.670    497.000    509.677    -12.677    506.457    509.363    506.457    506.772    506.457
 38.770    480.000    509.367    -29.367    506.285    509.051    506.285    506.601    506.285
 38.870    525.000    509.112     15.888    506.114    508.794    506.114    506.432    506.114
 38.970    481.000    508.888    -27.888    505.944    508.567    505.944    506.265    505.944
 39.070    509.000    508.683      0.317    505.776    508.359    505.776    506.100    505.776
 39.170    513.000    508.492      4.508    505.609    508.166    505.609    505.936    505.609
 39.270    478.000    508.312    -30.312    505.444    507.983    505.444    505.774    505.444
 39.370    451.000    508.142    -57.142    505.281    507.811    505.281    505.613    505.281
 39.470    497.000    507.981    -10.981    505.119    507.647    505.119    505.454    505.119
 39.570    519.000    507.828     11.172    504.959    507.491    504.959    505.297    504.959
 39.670    524.000    507.683     16.317    504.800    507.342    504.800    505.141    504.800
 39.770    509.699    507.545      2.154    504.643    507.201    504.643    504.987    504.643
 39.870    515.000    507.414      7.586    504.487    507.066    504.487    504.835    504.487
 39.970    509.000    507.290      1.710    504.333    506.939    504.333    504.684    504.333
 40.070    508.000    507.174      0.826    504.180    506.820    504.180    504.535    504.180
 40.170    485.281    507.066    -21.784    504.029    506.708    504.029    504.387    504.029
 40.270    538.000    506.966     31.034    503.879    506.604    503.879    504.242    503.879
 40.370    504.000    506.875     -2.875    503.731    506.509    503.731    504.098    503.731
 40.470    473.317    506.794    -33.477    503.585    506.424    503.585    503.955    503.585
 40.570    498.000    506.724     -8.724    503.440    506.350    503.440    503.815    503.440
 40.670    499.060    506.667     -7.607    503.297    506.289    503.297    503.676    503.297
 40.770    467.000    506.624    -39.624    503.155    506.242    503.155    503.538    503.155
 40.870    498.590    506.599     -8.009    503.015    506.211    503.015    503.403    503.015
 40.970    473.071    506.593    -33.522    502.876    506.201    502.876    503.269    502.876
 41.070    477.000    506.611    -29.611    502.739    506.214    502.739    503.137    502.739
 41.170    520.000    506.659     13.341    502.604    506.257    502.604    503.006    502.604
 41.270    528.000    506.744     21.256    502.470    506.336    502.470    502.878    502.470
 41.370    459.000    506.875    -47.875    502.337    506.462    502.337    502.751    502.337
 41.470    465.000    507.066    -42.066    502.206    506.648    502.206    502.626    502.206
 41.570    507.000    507.339     -0.339    502.077    506.915    502.077    502.502    502.077
 41.670    473.000    507.732    -34.732    501.950    507.302    501.950    502.381    501.950
 41.770    499.000    508.328     -9.328    501.823    507.893    501.823    502.261    501.823
 41.870    458.000    509.337    -51.337    501.699    508.895    501.699    502.143    501.699
 41.970    535.791    511.256     24.535    501.576    510.809    501.576    502.026    501.576
 42.070    526.000    515.131     10.869    501.455    514.678    501.455    501.912    501.455
 42.170    513.899    522.711     -8.812    501.335    522.255    501.335    501.799    501.335
 42.270    560.000    536.135     23.865    501.217    535.678    501.217    501.688    501.217
 42.370    517.000    556.717    -39.717    501.100    556.263    501.100    501.579    501.100
 42.470    582.000    583.019     -1.019    500.985    582.570    500.985    501.472    500.985
 42.570    601.041    609.113     -8.072    500.871    608.671    500.871    501.367    500.871
 42.670    628.738    624.989      3.749    500.759    624.550    500.759    501.263    500.759
 42.770    623.000    622.459      0.541    500.649    622.013    500.649    501.162    500.649
 42.870    584.000    603.001    -19.001    500.540    602.537    500.540    501.062    500.540
 42.970    513.000    576.012    -63.012    500.433    575.525    500.433    500.964    500.433
 43.070    566.644    550.677     15.967    500.327    550.165    500.327    500.869    500.327
 43.170    512.264    531.725    -19.461    500.223    531.192    500.223    500.775    500.223
 43.270    485.965    519.750    -33.785    500.120    519.198    500.120    500.683    500.120
 43.370    476.746    513.099    -36.352    500.019    512.531    500.019    500.593    500.019
 43.470    497.000    509.672    -12.672    499.920    509.090    499.920    500.505    499.920
 43.570    547.304    507.895     39.409    499.822    507.300    499.822    500.420    499.822
 43.670    525.857    506.879     18.979    499.726    506.270    499.726    500.336    499.726
 43.770    544.724    506.212     38.512    499.631    505.590    499.631    500.255    499.631
 43.870    526.000    505.725     20.275    499.538    505.089    499.538    500.175    499.538
 43.970    483.110    505.349    -22.240    499.446    504.698    499.446    500.098    499.446
 44.070    496.000    505.051     -9.051    499.356    504.385    499.356    500.023    499.356
 44.170    515.000    504.812     10.188    499.267    504.129    499.267    499.951    499.267
 44.270    521.000    504.620     16.380    499.180    503.920    499.180    499.881    499.180
 44.370    463.292    504.465    -41.173    499.095    503.748    499.095    499.813    499.095
 44.470    480.000    504.342    -24.342    499.011    503.605    499.011    499.747    499.011
 44.570    511.225    504.245      6.980    498.928    503.489    498.928    499.685    498.928
 44.670    500.000    504.171     -4.171    498.847    503.395    498.847    499.624    498.847
 44.770    505.000    504.118      0.882    498.768    503.320    498.768    499.567    498.768
 44.870    514.000    504.083      9.917    498.690    503.262    498.690    499.512    498.690
 44.970    466.513    504.066    -37.553    498.614    503.221    498.614    499.460    498.614
 45.070    511.370    504.066      7.305    498.539    503.194    498.539    499.411    498.539
 45.170    487.915    504.081    -16.167    498.466    503.182    498.466    499.365    498.466
 45.270    518.792    504.113     14.679    498.395    503.185    498.395    499.323    498.395
 45.370    555.000    504.160     50.840    498.324    503.201    498.324    499.283    498.324
 45.470    523.000    504.224     18.776    498.256    503.232    498.256    499.248    498.256
 45.570    482.000    504.305    -22.305    498.189    503.278    498.189    499.216    498.189
 45.670    498.000    504.404     -6.404    498.123    503.339    498.123    499.188    498.123
 45.770    479.963    504.523    -24.560    498.059    503.417    498.059    499.164    498.059
 45.870    500.000    504.662     -4.662    497.996    503.513    497.996    499.145    497.996
 45.970    472.000    504.825    -32.825    497.935    503.629    497.935    499.131    497.935
 46.070    519.000    505.013     13.987    497.876    503.767    497.876    499.121    497.876
 46.170    502.357    505.230     -2.873    497.818    503.930    497.818    499.118    497.818
 46.270    494.000    505.480    -11.480    497.761    504.121    497.761    499.120    497.761
 46.370    507.791    505.770      2.021    497.706    504.346    497.706    499.129    497.706
 46.470    476.441    506.104    -29.663    497.652    504.611    497.652    499.145    497.652
 46.570    486.000    506.494    -20.494    497.600    504.924    497.600    499.169    497.600
 46.670    490.000    506.950    -16.950    497.550    505.297    497.550    499.202    497.550
 46.770    524.000    507.500     16.500    497.500    505.754    497.500    499.245    497.500
 46.870    481.000    508.191    -27.191    497.453    506.344    497.453    499.298    497.453
 46.970    495.385    509.131    -13.746    497.406    507.171    497.406    499.365    497.406
 47.070    497.000    510.562    -13.562    497.362    508.476    497.362    499.445    497.362
 47.170    527.000    512.968     14.032    497.318    510.741    497.318    499.541    497.318
 47.270    527.000    517.160      9.840    497.276    514.773    497.276    499.655    497.276
 47.370    498.000    524.206    -26.206    497.236    521.639    497.236    499.791    497.236
 47.470    570.143    535.035     35.108    497.197    532.260    497.197    499.952    497.197
 47.570    575.000    549.692     25.308    497.160    546.679    497.160    500.141    497.160
 47.670    584.000    566.510     17.490    497.124    563.225    497.124    500.366    497.124
 47.770    567.000    581.665    -14.665    497.089    578.069    497.089    500.632    497.089
 47.870    580.000    589.888     -9.888    497.056    585.938    497.056    500.949    497.056
 47.970    583.000    587.781     -4.781    497.024    583.425    497.024    501.328    497.024
 48.070    558.667    577.014    -18.348    496.994    572.181    496.994    501.784    496.994
 48.170    543.950    562.592    -18.641    496.965    557.183    496.965    502.343    496.965
 48.270    574.000    549.163     24.837    496.937    543.041    496.937    503.039    496.937
 48.370    498.000    539.370    -41.370    496.911    532.332    496.911    503.937    496.911
 48.470    551.794    533.942     17.853    496.886    525.676    496.886    505.144    496.886
 48.570    552.000    532.465     19.535    496.863    522.475    496.863    506.848    496.863
 48.670    518.000    534.242    -16.242    496.841    521.726    496.841    509.354    496.841
 48.770    515.000    538.877    -23.877    496.820    522.579    496.820    513.116    496.820
 48.870    504.346    546.471    -42.125    496.801    524.531    496.801    518.738    496.801
 48.970    536.729    557.536    -20.807    496.784    527.415    496.784    526.900    496.784
 49.070    579.000    572.778      6.222    496.767    531.358    496.767    538.182    496.767
 49.170    549.000    592.949    -43.949    496.752    536.914    496.752    552.781    496.752
 49.270    649.000    619.041     29.959    496.738    545.626    496.738    570.145    496.738
 49.370    653.000    653.271     -0.271    496.726    561.487    496.726    588.497    496.726
 49.470    707.000    701.431      5.569    496.715    593.682    496.715    604.441    496.715
 49.570    829.912    776.853     53.059    496.705    660.064    496.705    613.452    496.705
 49.670    931.550    904.023     27.527    496.697    788.417    496.697    612.231    496.697
 49.770   1169.071   1114.721     54.350    496.690   1010.009    496.690    601.291    496.690
 49.870   1432.000   1429.300      2.700    496.684   1341.363    496.684    584.475    496.684
 49.970   1900.000   1827.997     72.003    496.680   1758.374    496.680    566.148    496.680
 50.070   2245.000   2230.841     14.159    496.677   2178.087    496.677    549.320    496.677
 50.170   2463.000   2508.038    -45.038    496.675   2469.248    496.675    535.457    496.675
 50.270   2526.000   2540.300    -14.300    496.675   2512.181    496.675    524.912    496.675
 50.370   2313.000   2307.197      5.803    496.676   2286.706    496.676    517.374    496.676
 50.470   1905.000   1907.251     -2.251    496.678   1891.935    496.678    512.225    496.678
 50.570   1501.215   1478.466     22.749    496.682   1466.559    496.682    508.791    496.682
 50.670   1050.000   1121.475    -71.475    496.686   1111.812    496.686    506.500    496.686
 50.770    865.000    876.294    -11.294    496.692    868.155    496.692    504.932    496.692
 50.870    700.000    734.282    -34.282    496.700    727.236    496.700    503.812    496.700
 50.970    614.000    663.565    -49.565    496.708    657.348    496.708    502.974    496.708
 51.070    655.000    630.890     24.110    496.718    625.329    496.718    502.320    496.718
 51.170    612.237    612.652     -0.415    496.729    607.621    496.729    501.796    496.729
 51.270    622.257    597.097     25.160    496.741    592.502    496.741    501.368    496.741
 51.370    608.000    581.345     26.655    496.755    577.111    496.755    501.014    496.755
 51.470    563.932    566.451     -2.519    496.770    562.520    496.770    500.719    496.770
 51.570    599.060    553.947     45.114    496.786    550.272    496.786    500.474    496.786
 51.670    585.945    544.603     41.342    496.803    541.146    496.803    500.269    496.803
 51.770    578.000    538.343     39.657    496.821    535.072    496.821    500.098    496.821
 51.870    501.763    534.574    -32.811    496.841    531.464    496.841    499.955    496.841
 51.970    542.000    532.586      9.414    496.861    529.613    496.861    499.838    496.861
 52.070    599.000    531.816     67.184    496.883    528.961    496.883    499.742    496.883
 52.170    520.681    531.949    -11.268    496.907    529.194    496.907    499.664    496.907
 52.270    576.920    532.910     44.010    496.931    530.240    496.931    499.603    496.931
 52.370    521.000    534.878    -13.878    496.956    532.280    496.956    499.556    496.956
 52.470    495.955    538.413    -42.459    496.983    535.875    496.983    499.523    496.983
 52.570    581.000    544.796     36.204    497.011    542.307    497.011    499.501    497.011
 52.670    514.577    556.568    -41.991    497.040    554.118    497.040    499.490    497.040
 52.770    592.000    578.106     13.894    497.070    575.687    497.070    499.489    497.070
 52.870    659.000    615.724     43.276    497.101    613.326    497.101    499.497    497.101
 52.970    707.944    676.522     31.422    497.133    674.139    497.133    499.513    497.133
 53.070    794.000    765.453     28.547    497.167    763.078    497.167    499.538    497.167
 53.170    979.000    880.965     98.035    497.201    878.594    497.201    499.570    497.201
 53.270   1087.000   1010.681     76.319    497.237   1008.311    497.237    499.609    497.237
 53.370   1121.000   1129.312     -8.312    497.274   1126.942    497.274    499.656    497.274
 53.470   1205.000   1202.730      2.270    497.311   1200.357    497.311    499.710    497.311
 53.570   1153.486   1203.796    -50.310    497.350   1201.415    497.350    499.770    497.350
 53.670   1128.878   1132.164     -3.286    497.390   1129.762    497.390    499.838    497.390
 53.770    986.000   1014.596    -28.596    497.431   1012.160    497.431    499.912    497.431
 53.870    872.803    885.311    -12.508    497.473    882.830    497.473    499.993    497.473
 53.970    709.000    769.862    -60.862    497.516    767.326    497.516    500.081    497.516
 54.070    666.000    680.876    -14.876    497.560    678.281    497.560    500.176    497.560
 54.170    586.000    620.093    -34.093    497.606    617.433    497.606    500.278    497.606
 54.270    555.570    582.640    -27.070    497.652    579.912    497.652    500.387    497.652
 54.370    584.000    561.419     22.581    497.699    558.618    497.699    500.505    497.699
 54.470    532.409    550.082    -17.673    497.747    547.202    497.747    500.631    497.747
 54.570    586.372    544.204     42.169    497.796    541.237    497.796    500.765    497.796
 54.670    502.775    541.206    -38.431    497.847    538.146    497.847    500.909    497.847
 54.770    497.898    539.780    -41.881    497.898    536.618    497.898    501.062    497.898
 54.870    543.000    539.330      3.670    497.950    536.057    497.950    501.225    497.950
 54.970    563.000    539.608     23.392    498.003    536.213    498.003    501.400    498.003
 55.070    512.000    540.523    -28.523    498.057    536.995    498.057    501.586    498.057
 55.170    514.000    542.060    -28.060    498.112    538.387    498.112    501.786    498.112
 55.270    505.763    544.250    -38.486    498.168    540.420    498.168    502.000    498.168
 55.370    586.000    547.173     38.827    498.225    543.170    498.225    502.229    498.225
 55.470    525.000    550.971    -25.971    498.283    546.780    498.283    502.475    498.283
 55.570    549.000    555.914     -6.914    498.342    551.518    498.342    502.739    498.342
 55.670    534.086    562.561    -28.475    498.401    557.939    498.401    503.025    498.401
 55.770    528.134    572.144    -44.009    498.462    567.273    498.462    503.333    498.462
 55.870    570.449    587.348    -16.900    498.523    582.204    498.523    503.667    498.523
 55.970    574.000    613.641    -39.641    498.585    608.193    498.585    504.030    498.585
 56.070    689.363    660.954     28.409    498.649    655.169    498.649    504.425    498.649
 56.170    732.092    744.867    -12.776    498.713    738.705    498.713    504.857    498.713
 56.270    876.000    885.512     -9.512    498.778    878.929    498.778    505.330    498.778
 56.370   1057.000   1102.214    -45.214    498.843   1095.161    498.843    505.851    498.843
 56.470   1361.000   1403.342    -42.342    498.910   1395.773    498.910    506.427    498.910
 56.570   1810.194   1773.928     36.265    498.977   1765.795    498.977    507.066    498.977
 56.670   2204.000   2166.157     37.843    499.046   2157.412    499.046    507.779    499.046
 56.770   2487.000   2498.830    -11.830    499.115   2489.419    499.115    508.577    499.115
 56.870   2596.000   2676.290    -80.290    499.184   2666.139    499.184    509.477    499.184
 56.970   2623.000   2636.498    -13.498    499.255   2625.486    499.255    510.496    499.255
 57.070   2443.000   2395.619     47.381    499.326   2383.568    499.326    511.660    499.326
 57.170   2047.000   2034.447     12.553    499.399   2021.133    499.399    513.000    499.399
 57.270   1719.000   1646.608     72.392    499.472   1631.774    499.472    514.558    499.472
 57.370   1299.000   1301.854     -2.854    499.545   1285.197    499.545    516.399    499.545
 57.470   1007.326   1035.543    -28.217    499.620   1016.679    499.620    518.623    499.620
 57.570    866.858    853.155     13.703    499.695    831.545    499.695    521.395    499.695
 57.670    756.443    741.598     14.845    499.771    716.430    499.771    524.992    499.771
 57.770    702.000    681.480     20.520    499.848    651.487    499.848    529.868    499.848
 57.870    663.961    655.792      8.169    499.925    618.990    499.925    536.740    499.925
 57.970    619.496    653.895    -34.400    500.003    607.248    500.003    546.652    500.003
 58.070    650.423    671.745    -21.322    500.082    610.810    500.082    561.009    500.082
 58.170    712.000    710.142      1.858    500.161    628.808    500.161    581.478    500.161
 58.270    725.847    772.218    -46.372    500.241    662.686    500.241    609.746    500.241
 58.370    823.000    860.728    -37.728    500.322    713.925    500.322    647.086    500.322
 58.470    993.956    975.486     18.470    500.404    782.061    500.404    693.781    500.404
 58.570   1123.787   1111.266     12.521    500.486    863.259    500.486    748.442    500.486
 58.670   1292.000   1256.647     35.353    500.569    949.928    500.569    807.241    500.569
 58.770   1407.000   1394.875     12.125    500.652   1032.371    500.652    863.121    500.652
 58.870   1545.000   1507.069     37.931    500.736   1102.030    500.736    905.757    500.736
 58.970   1503.088   1575.850    -72.761    500.821   1152.450    500.821    924.225    500.821
 59.070   1640.791   1589.210     51.581    500.906   1177.260    500.906    912.882    500.906
 59.170   1584.000   1546.072     37.928    500.992   1171.701    500.992    875.406    500.992
 59.270   1475.000   1459.444     15.556    501.078   1138.574    501.078    821.995    501.078
 59.370   1302.144   1352.040    -49.896    501.165   1089.833    501.165    763.406    501.165
 59.470   1312.674   1247.302     65.372    501.252   1041.048    501.252    707.515    501.252
 59.570   1144.091   1164.462    -20.371    501.340   1006.898    501.340    658.878    501.340
 59.670   1170.000   1119.151     50.849    501.429   1001.094    501.429    619.415    501.429
 59.770   1135.855   1123.270     12.585    501.518   1035.469    501.518    589.196    501.518
 59.870   1181.000   1180.574      0.426    501.608   1114.867    501.608    567.137    501.608
 59.970   1277.397   1281.694     -4.298    501.698   1231.550    501.698    551.613    501.698
 60.070   1464.000   1402.331     61.669    501.789   1362.927    501.789    540.925    501.789
 60.170   1512.000   1505.729      6.271    501.880   1473.733    501.880    533.597    501.880
 60.270   1567.770   1552.033     15.737    501.972   1525.253    501.972    528.496    501.972
 60.370   1569.202   1516.432     52.770    502.064   1493.459    502.064    524.834    502.064
 60.470   1383.000   1403.968    -20.968    502.156   1383.884    502.156    522.102    502.156
 60.570   1253.000   1244.002      8.998    502.250   1226.179    502.250    519.992    502.250
 60.670   1115.000   1072.074     42.926    502.343   1056.057    502.343    518.321    502.343
 60.770    950.000    916.394     33.606    502.437    901.828    502.437    516.989    502.437
 60.870    779.000    792.903    -13.903    502.532    779.492    502.532    515.940    502.532
 60.970    706.000    705.952      0.048    502.626    693.434    502.626    515.145    502.626
 61.070    677.000    652.150     24.850    502.722    640.278    502.722    514.591    502.722
 61.170    672.660    625.240     47.421    502.817    613.777    502.817    514.271    502.817
 61.270    636.000    620.173     15.827    502.913    608.891    502.913    514.178    502.913
 61.370    625.772    635.376     -9.604    503.010    624.064    503.010    514.294    503.010
 61.470    687.056    673.055     14.001    503.106    661.533    503.106    514.584    503.106
 61.570    657.000    737.700    -80.700    503.204    725.854    503.204    514.983    503.204
 61.670    803.000    833.118    -30.118    503.301    820.932    503.301    515.393    503.301
 61.770   1000.760    958.575     42.185    503.399    946.171    503.399    515.677    503.399
 61.870   1118.000   1105.205     12.795    503.497   1092.854    503.497    515.696    503.497
 61.970   1259.728   1254.036      5.692    503.596   1242.100    503.596    515.363    503.596
 62.070   1361.021   1377.026    -16.005    503.695   1365.855    503.695    514.699    503.695
 62.170   1472.224   1443.460     28.764    503.794   1433.297    503.794    513.815    503.794
 62.270   1407.000   1433.280    -26.280    503.893   1424.230    503.893    512.844    503.893
 62.370   1298.797   1349.349    -50.551    503.993   1341.393    503.993    511.895    503.993
 62.470   1155.000   1215.418    -60.418    504.093   1208.455    504.093    511.039    504.093
 62.570   1070.000   1062.462      7.538    504.193   1056.351    504.193    510.310    504.193
 62.670    920.224    916.771      3.454    504.293    911.361    504.293    509.721    504.293
 62.770    761.000    794.878    -33.878    504.394    790.028    504.394    509.264    504.394
 62.870    680.208    703.243    -23.035    504.495    698.832    504.495    508.921    504.495
 62.970    619.000    640.542    -21.542    504.596    636.476    504.596    508.672    504.596
 63.070    631.724    601.100     30.624    504.698    597.308    504.698    508.494    504.698
 63.170    604.000    578.098     25.902    504.799    574.529    504.799    508.370    504.799
 63.270    571.000    565.661      5.339    504.901    562.277    504.901    508.283    504.901
 63.370    549.000    559.739    -10.739    505.003    556.513    505.003    508.225    505.003
 63.470    599.445    558.155     41.290    505.105    555.068    505.105    508.187    505.105
 63.570    581.494    560.324     21.170    505.208    557.359    505.208    508.165    505.208
 63.670    617.000    566.958     50.042    505.310    564.101    505.310    508.156    505.310
 63.770    578.000    579.816     -1.816    505.413    577.055    505.413    508.157    505.413
 63.870    610.000    601.392      8.608    505.516    598.714    505.516    508.167    505.516
 63.970    650.000    634.352     15.648    505.618    631.746    505.618    508.185    505.618
 64.070    711.000    680.638     30.362    505.721    678.094    505.721    508.210    505.721
 64.170    736.290    740.308     -4.017    505.825    737.815    505.825    508.241    505.825
 64.270    841.000    810.383     30.617    505.928    807.937    505.928    508.278    505.928
 64.370    901.000    884.068     16.932    506.031    881.666    506.031    508.320    506.031
 64.470    894.665    950.866    -56.201    506.134    948.511    506.134    508.367    506.134
 64.570   1038.000    998.622     39.378    506.238    996.321    506.238    508.419    506.238
 64.670   1084.000   1017.977     66.023    506.341   1015.738    506.341    508.474    506.341
 64.770   1023.000   1006.421     16.579    506.445   1004.249    506.445    508.533    506.445
 64.870   1015.000    968.475     46.525    506.549    966.372    506.549    508.596    506.549
 64.970    889.035    913.151    -24.115    506.652    911.112    506.652    508.662    506.652
 65.070    840.000    850.878    -10.878    506.756    848.898    506.756    508.731    506.756
 65.170    796.000    790.462      5.538    506.860    788.530    506.860    508.803    506.860
 65.270    746.000    737.164      8.836    506.963    735.274    506.963    508.877    506.963
 65.370    710.579    692.732     17.847    507.067    690.874    507.067    508.954    507.067
 65.470    698.668    656.778     41.890    507.170    654.944    507.170    509.034    507.170
 65.570    670.744    628.242     42.502    507.274    626.426    507.274    509.116    507.274
 65.670    640.845    606.036     34.809    507.378    604.233    507.378    509.201    507.378
 65.770    584.000    589.135     -5.135    507.481    587.343    507.481    509.287    507.481
 65.870    566.000    576.629    -10.629    507.584    574.847    507.584    509.376    507.584
 65.970    606.105    567.747     38.358    507.688    565.973    507.688    509.467    507.688
 66.070    553.000    561.840     -8.840    507.791    560.073    507.791    509.561    507.791
 66.170    572.442    558.352     14.090    507.894    556.592    507.894    509.656    507.894
 66.270    576.000    556.814     19.186    507.997    555.059    507.997    509.753    507.997
 66.370    586.948    556.858     30.090    508.100    555.107    508.100    509.851    508.100
 66.470    551.000    558.257     -7.257    508.203    556.509    508.203    509.952    508.203
 66.570    609.000    560.988     48.012    508.306    559.240    508.306    510.055    508.306
 66.670    529.000    565.322    -36.322    508.408    563.573    508.408    510.159    508.408
 66.770    547.540    572.019    -24.479    508.511    570.266    508.511    510.266    508.511
 66.870    600.938    582.649     18.289    508.613    580.889    508.613    510.374    508.613
 66.970    620.723    600.077     20.646    508.715    598.308    508.715    510.484    508.715
 67.070    595.000    629.039    -34.039    508.817    627.257    508.817    510.597    508.817
 67.170    632.258    676.582    -44.324    508.919    674.784    508.919    510.711    508.919
 67.270    746.000    751.981     -5.981    509.021    750.163    509.021    510.827    509.021
 67.370    890.337    865.628     24.709    509.122    863.789    509.122    510.946    509.122
 67.470   1047.505   1026.548     20.957    509.223   1024.689    509.223    511.067    509.223
 67.570   1259.000   1238.654     20.346    509.324   1236.781    509.324    511.190    509.324
 67.670   1523.000   1496.530     26.470    509.425   1494.652    509.425    511.316    509.425
 67.770   1789.000   1782.024      6.976    509.525   1780.155    509.525    511.444    509.525
 67.870   1987.000   2062.968    -75.968    509.625   2061.123    509.625    511.575    509.625
 67.970   2313.000   2295.496     17.504    509.725   2293.688    509.725    511.709    509.725
 68.070   2345.000   2432.725    -87.725    509.825   2430.959    509.825    511.846    509.825
 68.170   2396.000   2441.579    -45.579    509.924   2439.840    509.924    511.986    509.924
 68.270   2405.000   2319.730     85.270    510.023   2317.986    510.023    512.130    510.023
 68.370   2128.000   2097.053     30.947    510.122   2095.264    510.122    512.278    510.122
 68.470   1822.210   1819.860      2.350    510.220   1817.988    510.220    512.429    510.220
 68.570   1519.280   1533.131    -13.850    510.319   1531.151    510.319    512.586    510.319
 68.670   1307.000   1270.765     36.235    510.416   1268.664    510.416    512.747    510.416
 68.770   1002.000   1052.679    -50.679    510.514   1050.451    510.514    512.913    510.514
 68.870    898.679    885.742     12.937    510.611    883.389    510.611    513.085    510.611
 68.970    757.013    766.984     -9.971    510.708    764.509    510.708    513.264    510.708
 69.070    702.980    687.779     15.202    510.804    685.186    510.804    513.450    510.804
 69.170    595.027    637.722    -42.695    510.900    635.013    510.900    513.643    510.900
 69.270    590.992    607.293    -16.301    510.996    604.466    510.996    513.844    510.996
 69.370    550.945    589.127    -38.182    511.091    586.177    511.091    514.056    511.091
 69.470    624.183    578.196     45.987    511.186    575.115    511.186    514.277    511.186
 69.570    615.000    571.401     43.599    511.280    568.178    511.280    514.510    511.280
 69.670    530.854    566.986    -36.131    511.374    563.609    511.374    514.757    511.374
 69.770    587.000    564.021     22.979    511.468    560.476    511.468    515.018    511.468
 69.870    557.000    562.038     -5.038    511.561    558.306    511.561    515.296    511.561
 69.970    601.000    560.806     40.194    511.654    556.870    511.654    515.592    511.654
 70.070    562.862    560.219      2.642    511.746    556.057    511.746    515.910    511.746
 70.170    533.000    560.239    -27.239    511.837    555.825    511.837    516.252    511.837
 70.270    569.333    560.887      8.446    511.929    556.193    511.929    516.622    511.929
 70.370    567.000    562.253      4.747    512.020    557.247    512.020    517.024    512.020
 70.470    620.000    564.544     55.456    512.110    559.188    512.110    517.464    512.110
 70.570    610.261    568.176     42.085    512.200    562.425    512.200    517.946    512.200
 70.670    577.705    573.934      3.770    512.289    567.737    512.289    518.480    512.289
 70.770    602.272    583.202     19.070    512.378    576.495    512.378    519.075    512.378
 70.870    631.551    598.248     33.303    512.466    590.955    512.466    519.744    512.466
 70.970    608.000    622.504    -14.504    512.553    614.525    512.553    520.508    512.553
 71.070    616.000    660.680    -44.680    512.641    651.887    512.641    521.397    512.641
 71.170    671.000    718.526    -47.526    512.727    708.739    512.727    522.460    512.727
 71.270    765.000    802.019    -37.019    512.813    790.979    512.813    523.776    512.813
 71.370    860.908    915.896    -54.988    512.899    903.217    512.899    525.473    512.899
 71.470   1050.000   1061.679    -11.679    512.983   1046.776    512.983    527.752    512.983
 71.570   1259.000   1235.622     23.378    513.068   1217.611    513.068    530.918    513.068
 71.670   1393.000   1427.169    -34.169    513.151   1404.737    513.151    535.402    513.151
 71.770   1581.000   1618.448    -37.448    513.234   1589.710    513.234    541.781    513.234
 71.870   1826.000   1785.360     40.640    513.317   1747.731    513.317    550.761    513.317
 71.970   1975.000   1901.403     73.597    513.399   1851.520    513.399    563.119    513.399
 72.070   1983.000   1945.521     37.479    513.480   1879.286    513.480    579.588    513.480
 72.170   1923.000   1911.685     11.315    513.560   1824.469    513.560    600.688    513.560
 72.270   1775.000   1812.351    -37.351    513.640   1699.424    513.640    626.516    513.640
 72.370   1736.000   1671.820     64.180    513.719   1528.986    513.719    656.528    513.719
 72.470   1530.000   1515.970     14.030    513.798   1340.411    513.798    689.350    513.798
 72.570   1344.000   1365.407    -21.407    513.876   1156.669    513.876    722.615    513.876
 72.670   1191.453   1232.680    -41.227    513.953    993.718    513.953    752.918    513.953
 72.770   1131.804   1122.116      9.688    514.029    860.076    514.029    776.072    514.029
 72.870   1052.000   1031.656     20.344    514.105    757.756    514.105    788.006    514.105
 72.970    908.000    956.192    -48.192    514.180    684.082    514.180    786.290    514.180
 73.070    842.207    890.878    -48.671    514.255    633.812    514.255    771.319    514.255
 73.170    844.267    832.765     11.502    514.328    600.993    514.328    746.098    514.328
 73.270    705.000    780.672    -75.672    514.401    580.233    514.401    714.839    514.401
 73.370    669.000    734.410    -65.410    514.473    567.311    514.473    681.571    514.473
 73.470    649.000    694.177    -45.177    514.545    559.283    514.545    649.439    514.545
 73.570    600.000    660.220    -60.220    514.615    554.290    514.615    620.547    514.615
 73.670    631.355    632.625     -1.269    514.685    551.270    514.685    596.044    514.685
 73.770    602.000    611.196     -9.196    514.754    549.665    514.754    576.291    514.754
 73.870    612.174    595.439     16.735    514.823    549.206    514.823    561.065    514.823
 73.970    616.000    584.612     31.388    514.890    549.741    514.890    549.774    514.890
 74.070    599.000    577.822     21.178    514.957    551.134    514.957    541.663    514.957
 74.170    618.000    574.105     43.895    515.023    553.188    515.023    535.963    515.023
 74.270    602.000    572.493     29.507    515.088    555.611    515.088    532.000    515.088
 74.370    628.000    572.052     55.948    515.152    558.007    515.152    529.233    515.152
 74.470    577.371    571.911      5.460    515.216    559.902    515.216    527.265    515.216
 74.570    586.000    571.327     14.673    515.278    560.828    515.278    525.820    515.278
 74.670    633.000    569.798     63.202    515.340    560.463    515.340    524.719    515.340
 74.770    522.759    567.175    -44.416    515.401    558.771    515.401    523.848    515.401
 74.870    516.474    563.662    -47.188    515.461    556.027    515.461    523.135    515.461
 74.970    624.000    559.690     64.310    515.520    552.705    515.520    522.538    515.520
 75.070    564.000    555.767      8.233    515.579    549.343    515.579    522.030    515.579
 75.170    578.646    552.393     26.253    515.636    546.458    515.636    521.592    515.636
 75.270    558.000    550.040      7.960    515.693    544.535    515.693    521.212    515.693
 75.370    561.000    549.170     11.830    515.748    544.046    515.748    520.880    515.748
 75.470    537.000    550.261    -13.261    515.803    545.477    515.803    520.590    515.803
 75.570    541.812    553.828    -12.015    515.857    549.347    515.857    520.334    515.857
 75.670    608.000    560.401     47.599    515.910    556.193    515.910    520.110    515.910
 75.770    591.182    570.456     20.725    515.962    566.492    515.962    519.911    515.962
 75.870    571.000    584.281    -13.281    516.013    580.536    516.013    519.735    516.013
 75.970    565.707    601.800    -36.093    516.063    598.253    516.063    519.580    516.063
 76.070    591.000    622.403    -31.403    516.112    619.035    516.112    519.442    516.112
 76.170    640.982    644.819     -3.837    516.161    641.613    516.161    519.320    516.161
 76.270    654.258    667.080    -12.822    516.208    664.023    516.208    519.211    516.208
 76.370    723.826    686.614     37.212    516.254    683.695    516.254    519.114    516.254
 76.470    679.000    700.556    -21.556    516.300    697.767    516.300    519.027    516.300
 76.570    661.000    706.421    -45.421    516.344    703.755    516.344    518.951    516.344
 76.670    682.565    703.008    -20.443    516.388    700.459    516.388    518.882    516.388
 76.770    681.666    690.953     -9.287    516.430    688.516    516.430    518.821    516.430
 76.870    708.000    672.414     35.586    516.471    670.081    516.471    518.767    516.471
 76.970    623.246    650.198    -26.952    516.512    647.962    516.512    518.719    516.512
 77.070    598.461    626.995    -28.534    516.551    624.850    516.551    518.676    516.551
 77.170    605.464    604.960      0.504    516.590    602.898    516.590    518.637    516.590
 77.270    527.000    585.552    -58.552    516.627    583.566    516.627    518.603    516.627
 77.370    549.000    569.527    -20.527    516.663    567.611    516.663    518.573    516.663
 77.470    567.000    557.040      9.960    516.699    555.188    516.699    518.546    516.699
 77.570    573.208    547.803     25.404    516.733    546.011    516.733    518.522    516.733
 77.670    561.646    541.280     20.366    516.766    539.543    516.766    518.501    516.766
 77.770    547.000    536.849     10.151    516.799    535.163    516.799    518.483    516.799
 77.870    531.000    533.922     -2.922    516.830    532.285    516.830    518.466    516.830
 77.970    515.000    532.007    -17.007    516.860    530.414    516.860    518.452    516.860
 78.070    542.000    530.748     11.252    516.889    529.197    516.889    518.439    516.889
 78.170    564.370    529.938     34.431    516.917    528.426    516.917    518.428    516.917
 78.270    490.000    529.395    -39.395    516.944    527.920    516.944    518.418    516.944
 78.370    501.000    529.024    -28.024    516.969    527.584    516.969    518.409    516.969
 78.470    547.674    528.776     18.899    516.994    527.367    516.994    518.402    516.994
 78.570    558.000    528.626     29.374    517.018    527.247    517.018    518.396    517.018
 78.670    485.269    528.572    -43.303    517.040    527.221    517.040    518.391    517.040
 78.770    545.000    528.620     16.380    517.061    527.294    517.061    518.387    517.061
 78.870    539.626    528.788     10.838    517.082    527.485    517.082    518.384    517.082
 78.970    525.652    529.101     -3.448    517.101    527.817    517.101    518.383    517.101
 79.070    477.000    529.587    -52.587    517.119    528.320    517.119    518.384    517.119
 79.170    510.271    530.277    -20.006    517.136    529.024    517.136    518.388    517.136
 79.270    540.918    531.202      9.716    517.152    529.958    517.152    518.394    517.152
 79.370    528.000    532.388     -4.388    517.166    531.147    517.166    518.405    517.166
 79.470    565.000    533.859     31.141    517.180    532.614    517.180    518.422    517.180
 79.570    538.000    535.641      2.359    517.192    534.385    517.192    518.445    517.192
 79.670    534.000    537.776     -3.776    517.203    536.499    517.203    518.475    517.203
 79.770    516.000    540.335    -24.335    517.213    539.028    517.213    518.515    517.213
 79.870    570.885    543.442     27.442    517.222    542.095    517.222    518.564    517.222
 79.970    566.315    547.301     19.015    517.230    545.902    517.230    518.623    517.230
 80.070    592.000    552.216     39.784    517.236    550.758    517.236    518.690    517.236
 80.170    585.162    558.607     26.555    517.242    557.082    517.242    518.763    517.242
 80.270    544.000    566.961    -22.961    517.246    565.367    517.246    518.839    517.246
 80.370    517.000    577.750    -60.750    517.249    576.089    517.249    518.912    517.249
 80.470    602.000    591.304     10.696    517.251    589.584    517.251    518.976    517.251
 80.570    546.000    607.702    -61.702    517.251    605.939    517.251    519.023    517.251
 80.670    635.000    626.675      8.325    517.251    624.894    517.251    519.046    517.251
 80.770    606.000    647.558    -41.558    517.249    645.788    517.249    519.039    517.249
 80.870    654.000    669.299    -15.299    517.246    667.570    517.246    519.001    517.246
 80.970    736.000    690.563     45.437    517.242    688.901    517.242    518.937    517.242
 81.070    744.000    709.927     34.073    517.236    708.351    517.236    518.853    517.236
 81.170    688.769    726.074    -37.305    517.230    724.595    517.230    518.757    517.230
 81.270    783.000    737.921     45.079    517.222    736.541    517.222    518.656    517.222
 81.370    748.000    744.708      3.292    517.213    743.425    517.213    518.556    517.213
 81.470    761.703    746.086     15.617    517.202    744.893    517.202    518.462    517.202
 81.570    789.000    742.148     46.852    517.191    741.034    517.191    518.374    517.191
 81.670    711.000    733.365    -22.365    517.178    732.319    517.178    518.295    517.178
 81.770    750.789    720.538     30.250    517.164    719.549    517.164    518.225    517.164
 81.870    717.000    704.773     12.227    517.149    703.828    517.149    518.164    517.149
 81.970    728.915    687.349     41.566    517.132    686.439    517.132    518.111    517.132
 82.070    684.000    669.464     14.536    517.115    668.580    517.115    518.063    517.115
 82.170    681.000    651.997     29.003    517.096    651.134    517.096    518.021    517.096
 82.270    668.000    635.444     32.556    517.076    634.594    517.076    517.982    517.076
 82.370    622.432    620.005      2.427    517.054    619.165    517.054    517.946    517.054
 82.470    610.289    605.768      4.521    517.031    604.934    517.031    517.912    517.031
 82.570    602.000    592.843      9.157    517.007    592.013    517.007    517.878    517.007
 82.670    539.219    581.398    -42.179    516.982    580.570    516.982    517.845    516.982
 82.770    598.000    571.619     26.381    516.956    570.790    516.956    517.812    516.956
 82.870    525.775    563.670    -37.895    516.928    562.839    516.928    517.779    516.928
 82.970    544.288    557.680    -13.391    516.899    556.846    516.899    517.745    516.899
 83.070    591.183    553.722     37.462    516.868    552.885    516.868    517.711    516.868
 83.170    599.000    551.803     47.197    516.837    550.963    516.837    517.676    516.837
 83.270    558.000    551.842      6.158    516.804    550.998    516.804    517.640    516.804
 83.370    548.000    553.651     -5.651    516.770    552.802    516.770    517.603    516.770
 83.470    564.000    556.921      7.079    516.734    556.067    516.734    517.565    516.734
 83.570    549.075    561.222    -12.147    516.698    560.363    516.698    517.527    516.698
 83.670    560.923    566.016     -5.093    516.660    565.153    516.660    517.488    516.660
 83.770    562.000    570.676     -8.676    516.620    569.809    516.620    517.447    516.620
 83.870    552.000    574.538    -22.538    516.580    573.669    516.580    517.406    516.580
 83.970    562.000    576.980    -14.980    516.538    576.109    516.538    517.364    516.538
 84.070    583.000    577.540      5.460    516.495    576.671    516.495    517.321    516.495
 84.170    570.999    576.052     -5.053    516.450    575.184    516.450    517.277    516.450
 84.270    556.000    572.682    -16.682    516.404    571.818    516.404    517.232    516.404
 84.370    571.343    567.862      3.481    516.357    567.001    516.357    517.186    516.357
 84.470    573.917    562.145     11.772    516.309    561.288    516.309    517.139    516.309
 84.570    525.000    556.084    -31.084    516.259    555.230    516.259    517.091    516.259
 84.670    510.000    550.156    -40.156    516.208    549.305    516.208    517.042    516.208
 84.770    587.000    544.722     42.278    516.156    543.873    516.156    516.991    516.156
 84.870    526.000    540.016    -14.016    516.103    539.168    516.103    516.940    516.103
 84.970    541.000    536.147      4.853    516.048    535.298    516.048    516.888    516.048
 85.070    555.009    533.121     21.889    515.992    532.271    515.992    516.835    515.992
 85.170    570.793    530.872     39.921    515.934    530.020    515.934    516.781    515.934
 85.270    530.000    529.292      0.708    515.876    528.437    515.876    516.726    515.876
 85.370    508.080    528.263    -20.183    515.816    527.404    515.816    516.670    515.816
 85.470    560.000    527.675     32.325    515.754    526.813    515.754    516.613    515.754
 85.570    527.203    527.449     -0.245    515.691    526.581    515.691    516.555    515.691
 85.670    550.000    527.537     22.463    515.628    526.664    515.628    516.496    515.628
 85.770    545.000    527.934     17.066    515.562    527.055    515.562    516.436    515.562
 85.870    498.282    528.678    -30.396    515.496    527.792    515.496    516.375    515.496
 85.970    534.000    529.850      4.150    515.428    528.956    515.428    516.313    515.428
 86.070    518.000    531.575    -13.575    515.359    530.672    515.359    516.251    515.359
 86.170    556.000    534.018     21.982    515.288    533.105    515.288    516.187    515.288
 86.270    502.000    537.372    -35.372    515.216    536.448    515.216    516.122    515.216
 86.370    555.000    541.841     13.159    515.143    540.904    515.143    516.057    515.143
 86.470    552.880    547.610      5.270    515.069    546.658    515.069    515.990    515.069
 86.570    562.000    554.800      7.200    514.993    553.831    514.993    515.923    514.993
 86.670    535.259    563.452    -28.193    514.916    562.465    514.916    515.855    514.916
 86.770    603.000    573.466     29.534    514.838    572.458    514.838    515.785    514.838
 86.870    593.000    584.543      8.457    514.758    583.514    514.758    515.716    514.758
 86.970    592.601    596.195     -3.594    514.678    595.143    514.678    515.645    514.678
 87.070    640.330    607.737     32.593    514.595    606.663    514.595    515.573    514.595
 87.170    626.735    618.317      8.418    514.512    617.223    514.512    515.501    514.512
 87.270    594.413    626.985    -32.572    514.427    625.872    514.427    515.428    514.427
 87.370    641.000    632.828      8.172    514.341    631.701    514.341    515.354    514.341
 87.470    640.868    635.172      5.696    514.254    634.034    514.254    515.280    514.254
 87.570    611.000    633.778    -22.778    514.165    632.633    514.165    515.205    514.165
 87.670    626.000    628.917     -2.917    514.075    627.767    514.075    515.129    514.075
 87.770    592.000    621.282    -29.282    513.984    620.129    513.984    515.053    513.984
 87.870    642.000    611.803     30.197    513.892    610.647    513.892    514.976    513.892
 87.970    589.104    601.478    -12.374    513.798    600.320    513.798    514.899    513.798
 88.070    628.998    591.261     37.737    513.703    590.098    513.703    514.821    513.703
 88.170    604.961    581.984     22.976    513.607    580.815    513.607    514.743    513.607
 88.270    588.000    574.311     13.689    513.509    573.134    513.509    514.665    513.509
 88.370    614.000    568.709     45.291    513.410    567.522    513.410    514.585    513.410
 88.470    532.000    565.440    -33.440    513.310    564.241    513.310    514.506    513.310
 88.570    627.000    564.565     62.435    513.209    563.352    513.209    514.427    513.209
 88.670    596.471    565.955     30.516    513.106    564.725    513.106    514.348    513.106
 88.770    603.422    569.311     34.111    513.002    568.064    513.002    514.269    513.002
 88.870    559.601    574.185    -14.584    512.897    572.919    512.897    514.191    512.897
 88.970    616.000    580.003     35.997    512.790    578.717    512.790    514.113    512.790
 89.070    561.612    586.097    -24.485    512.683    584.788    512.683    514.035    512.683
 89.170    636.918    591.738     45.180    512.574    590.405    512.574    513.958    512.574
 89.270    595.000    596.198     -1.198    512.464    594.837    512.464    513.881    512.464
 89.370    638.000    598.835     39.165    512.352    597.443    512.352    513.805    512.352
 89.470    605.000    599.213      5.787    512.240    597.785    512.240    513.731    512.240
 89.570    549.000    597.200    -48.200    512.126    595.732    512.126    513.658    512.126
 89.670    589.000    592.993     -3.993    512.011    591.480    512.011    513.586    512.011
 89.770    596.000    587.045      8.955    511.894    585.481    511.894    513.516    511.894
 89.870    559.000    579.936    -20.936    511.777    578.317    511.777    513.448    511.777
 89.970    598.212    572.263     25.949    511.658    570.584    511.658    513.383    511.658
 90.070    553.000    564.564    -11.564    511.538    562.821    511.538    513.320    511.538
 90.170    518.000    557.275    -39.275    511.417    555.463    511.417    513.261    511.417
 90.270    529.000    550.712    -21.712    511.294    548.826    511.294    513.206    511.294
 90.370    574.709    545.068     29.641    511.171    543.103    511.171    513.155    511.171
 90.470    540.000    540.420     -0.420    511.046    538.371    511.046    513.110    511.046
 90.570    519.000    536.725    -17.725    510.920    534.585    510.920    513.071    510.920
 90.670    540.723    533.960      6.763    510.793    531.719    510.793    513.041    510.793
 90.770    543.000    532.012     10.988    510.664    529.661    510.664    513.021    510.664
 90.870    555.779    530.740     25.039    510.535    528.264    510.535    513.013    510.535
 90.970    513.000    530.025    -17.025    510.404    527.408    510.404    513.023    510.404
 91.070    504.000    529.778    -25.778    510.272    526.997    510.272    513.054    510.272
 91.170    504.000    529.941    -25.941    510.139    526.964    510.139    513.116    510.139
 91.270    539.000    530.498      8.502    510.005    527.285    510.005    513.217    510.005
 91.370    530.000    531.484     -1.484    509.870    527.980    509.870    513.372    509.870
 91.470    542.521    532.972      9.548    509.733    529.105    509.733    513.597    509.733
 91.570    521.000    535.087    -14.087    509.595    530.763    509.595    513.915    509.595
 91.670    498.000    538.000    -40.000    509.457    533.098    509.457    514.353    509.457
 91.770    529.361    541.926    -12.566    509.317    536.292    509.317    514.942    509.317
 91.870    563.199    547.116     16.084    509.176    540.560    509.176    515.720    509.176
 91.970    553.105    553.837     -0.732    509.034    546.131    509.034    516.725    509.034
 92.070    585.000    562.357     22.643    508.890    553.230    508.890    517.998    508.890
 92.170    566.000    572.911     -6.911    508.746    562.056    508.746    519.577    508.746
 92.270    602.000    585.671     16.329    508.601    572.749    508.601    521.493    508.601
 92.370    576.000    600.713    -24.713    508.454    585.365    508.454    523.766    508.454
 92.470    572.000    617.980    -45.980    508.307    599.842    508.307    526.402    508.307
 92.570    590.600    637.267    -46.667    508.158    615.991    508.158    529.384    508.158
 92.670    626.255    658.201    -31.946    508.008    633.482    508.008    532.671    508.008
 92.770    692.000    680.220     11.780    507.858    651.826    507.858    536.189    507.858
 92.870    746.000    702.606     43.394    507.706    670.407    507.706    539.836    507.706
 92.970    681.000    724.523    -43.523    507.553    688.530    507.553    543.473    507.553
 93.070    718.808    745.112    -26.305    507.399    705.517    507.399    546.920    507.399
 93.170    787.477    763.625     23.852    507.244    720.831    507.244    549.963    507.244
 93.270    793.000    779.555     13.445    507.088    734.195    507.088    552.373    507.088
 93.370    822.000    792.701     29.299    506.931    745.631    506.931    553.927    506.931
 93.470    763.270    803.151    -39.881    506.773    755.394    506.773    554.459    506.773
 93.570    781.000    811.214    -30.214    506.614    763.859    506.614    553.900    506.614
 93.670    764.000    817.348    -53.348    506.454    771.442    506.454    552.294    506.454
 93.770    873.212    822.131     51.081    506.293    778.571    506.293    549.790    506.293
 93.870    866.000    826.252     39.748    506.132    785.722    506.132    546.601    506.132
 93.970    867.000    830.481     36.519    505.969    793.433    505.969    542.958    505.969
 94.070    828.682    835.580     -6.897    505.805    802.249    505.805    539.080    505.805
 94.170    877.000    842.132     34.868    505.640    812.565    505.640    535.153    505.640
 94.270    897.000    850.363     46.637    505.475    824.459    505.475    531.327    505.475
 94.370    875.224    860.012     15.212    505.308    837.557    505.308    527.715    505.308
 94.470    863.000    870.296     -7.296    505.140    850.997    505.140    524.395    505.140
 94.570    899.000    879.964     19.036    504.972    863.482    504.972    521.415    504.972
 94.670    943.733    887.435     56.298    504.803    873.409    504.803    518.796    504.803
 94.770    907.000    891.018     15.982    504.632    879.086    504.632    516.540    504.632
 94.870    929.000    889.215     39.785    504.461    879.033    504.461    514.627    504.461
 94.970    877.000    881.050     -4.050    504.289    872.303    504.289    513.029    504.289
 95.070    960.000    866.376     93.624    504.117    858.784    504.117    511.710    504.117
 95.170    833.000    845.859    -12.859    503.943    839.181    503.943    510.629    503.943
 95.270    882.000    820.852     61.148    503.769    814.887    503.769    509.747    503.769
 95.370    765.794    793.138    -27.344    503.593    787.721    503.593    509.027    503.593
 95.470    802.000    764.680     37.320    503.417    759.679    503.417    508.436    503.417
 95.570    705.000    737.433    -32.433    503.240    732.745    503.240    507.946    503.240
 95.670    734.591    713.237     21.354    503.063    708.781    503.063    507.534    503.063
 95.770    695.807    693.747      2.060    502.884    689.460    502.884    507.182    502.884
 95.870    647.100    680.409    -33.309    502.705    676.243    502.705    506.875    502.705
 95.970    655.000    674.455    -19.455    502.525    670.373    502.525    506.604    502.525
 96.070    647.000    676.919    -29.919    502.344    672.892    502.344    506.361    502.344
 96.170    663.828    688.645    -24.817    502.162    684.648    502.162    506.139    502.162
 96.270    701.000    710.282     -9.282    501.980    706.296    501.980    505.936    501.980
 96.370    724.000    742.256    -18.256    501.797    738.265    501.797    505.749    501.797
 96.470    774.463    784.683    -10.220    501.614    780.672    501.614    505.575    501.614
 96.570    846.328    837.275      9.053    501.429    833.230    501.429    505.413    501.429
 96.670    954.077    899.226     54.851    501.244    895.136    501.244    505.264    501.244
 96.770    942.000    969.105    -27.105    501.059    964.960    501.059    505.125    501.059
 96.870   1062.000   1044.782     17.218    500.872   1040.571    500.872    504.998    500.872
 96.970   1082.974   1123.393    -40.419    500.685   1119.107    500.685    504.883    500.685
 97.070   1205.715   1201.377      4.338    500.498   1197.009    500.498    504.778    500.498
 97.170   1329.035   1274.589     54.446    500.310   1270.131    500.310    504.686    500.310
 97.270   1381.000   1338.526     42.474    500.121   1333.969    500.121    504.606    500.121
 97.370   1410.323   1388.730     21.593    499.931   1384.065    499.931    504.539    499.931
 97.470   1406.000   1421.366    -15.366    499.741   1416.583    499.741    504.486    499.741
 97.570   1376.450   1433.896    -57.445    499.551   1428.981    499.551    504.449    499.551
 97.670   1399.850   1425.588    -25.738    499.360   1420.524    499.360    504.428    499.360
 97.770   1436.000   1397.626     38.374    499.168   1392.393    499.168    504.425    499.168
 97.870   1373.000   1352.781     20.219    498.976   1347.354    498.976    504.444    498.976
 97.970   1271.000   1294.829    -23.829    498.784   1289.180    498.784    504.487    498.784
 98.070   1165.000   1227.998    -62.998    498.590   1222.093    498.590    504.559    498.590
 98.170   1147.000   1156.541     -9.541    498.397   1150.340    498.397    504.666    498.397
 98.270   1118.000   1084.458     33.542    498.203   1077.915    498.203    504.816    498.203
 98.370   1024.000   1015.319      8.681    498.008   1008.373    498.008    505.021    498.008
 98.470    959.781    952.159      7.622    497.813    944.739    497.813    505.294    497.813
 98.570    914.242    897.448     16.794    497.618    889.461    497.618    505.658    497.618
 98.670    878.000    853.143     24.857    497.422    844.471    497.422    506.138    497.422
 98.770    817.000    820.716     -3.716    497.226    811.205    497.226    506.770    497.226
 98.870    808.000    801.229      6.771    497.030    790.683    497.030    507.599    497.030
 98.970    813.297    795.451     17.846    496.833    783.616    496.833    508.680    496.833
 99.070    788.000    803.920    -15.920    496.636    790.474    496.636    510.084    496.636
 99.170    856.000    826.987     29.013    496.438    811.528    496.438    511.892    496.438
 99.270    900.010    864.821     35.190    496.240    846.851    496.240    514.198    496.240
 99.370    923.000    917.362      5.638    496.042    896.279    496.042    517.109    496.042
 99.470   1017.000    984.248     32.752    495.844    959.336    495.844    520.738    495.844
 99.570   1068.000   1064.715      3.285    495.645   1035.143    495.645    525.200    495.645
 99.670   1196.000   1157.484     38.516    495.446   1122.312    495.446    530.607    495.446
 99.770   1189.000   1260.668    -71.668    495.247   1218.857    495.247    537.054    495.247
 99.870   1403.000   1371.694     31.306    495.048   1322.135    495.048    544.616    495.048
 99.970   1583.000   1487.279     95.721    494.848   1428.826    494.848    553.327    494.848
100.070   1679.000   1603.485     75.515    494.649   1535.003    494.649    563.178    494.649
100.170   1705.000   1715.894    -10.894    494.449   1636.318    494.449    574.097    494.449
100.270   1857.000   1819.928     37.072    494.249   1728.329    494.249    585.947    494.249
100.370   1815.000   1911.263    -96.263    494.049   1806.927    494.049    598.513    494.049
100.470   2033.000   1986.213     46.787    493.848   1868.721    493.848    611.496    493.848
100.570   2033.248   2041.929     -8.681    493.648   1911.248    493.648    624.511    493.648
100.670   2137.000   2076.395     60.605    493.448   1932.964    493.448    637.082    493.448
100.770   2044.012   2088.340    -44.328    493.247   1933.154    493.247    648.655    493.247
100.870   2047.668   2077.281    -29.613    493.047   1911.949    493.047    658.613    493.047
100.970   1991.382   2043.751    -52.369    492.846   1870.510    492.846    666.330    492.846
101.070   1942.000   1989.593    -47.593    492.646   1811.239    492.646    671.243    492.646
101.170   1989.000   1918.055     70.945    492.445   1737.788    492.445    672.952    492.445
101.270   1796.878   1833.562    -36.684    492.245   1654.739    492.245    671.298    492.245
101.370   1815.013   1741.203     73.810    492.044   1567.060    492.044    666.405    492.044
101.470   1617.000   1646.123    -29.123    491.844   1479.523    491.844    658.645    491.844
101.570   1551.000   1553.007     -2.007    491.644   1396.267    491.644    648.566    491.644
101.670   1488.000   1465.716     22.284    491.444   1320.535    491.444    636.790    491.444
101.770   1308.000   1387.093    -79.093    491.244   1254.547    491.244    623.937    491.244
101.870   1330.000   1318.880     11.120    491.044   1199.483    491.044    610.572    491.044
101.970   1302.142   1261.741     40.402    490.845   1155.522    490.845    597.181    490.845
102.070   1274.041   1215.335     58.705    490.645   1121.925    490.645    584.161    490.645
102.170   1169.000   1178.454     -9.454    490.446   1097.174    490.446    571.823    490.446
102.270   1149.000   1149.185     -0.185    490.247   1079.132    490.247    560.392    490.247
102.370   1150.000   1125.136     24.864    490.048   1065.258    490.048    550.016    490.048
102.470   1073.000   1103.700    -30.700    489.850   1052.866    489.850    540.773    489.850
102.570   1044.405   1082.365    -37.959    489.652   1039.424    489.652    532.682    489.652
102.670   1053.000   1059.043     -6.043    489.454   1022.876    489.454    525.712    489.454
102.770   1091.329   1032.330     58.999    489.257   1001.884    489.257    519.795    489.257
102.870    948.000   1001.624    -53.624    489.060    975.939    489.060    514.837    489.060
102.970    946.000    967.067    -21.067    488.863    945.294    488.863    510.727    488.863
103.070    904.716    929.363    -24.647    488.667    910.765    488.667    507.352    488.667
103.170    878.000    889.548    -11.548    488.471    873.507    488.471    504.596    488.471
103.270    828.000    848.806    -20.806    488.275    834.807    488.275    502.352    488.275
103.370    806.000    808.318     -2.318    488.080    795.943    488.080    500.526    488.080
103.470    767.000    769.154     -2.154    487.886    758.072    487.886    499.032    487.886
103.570    764.000    732.240     31.760    487.692    722.188    487.692    497.800    487.692
103.670    644.000    698.282    -54.282    487.499    689.057    487.499    496.772    487.499
103.770    654.070    667.765    -13.694    487.306    659.210    487.306    495.902    487.306
103.870    606.788    640.950    -34.161    487.114    632.944    487.114    495.154    487.114
103.970    636.359    617.894     18.465    486.922    610.345    486.922    494.500    486.922
104.070    583.000    598.482    -15.482    486.731    591.318    486.731    493.918    486.731
104.170    616.944    582.465     34.479    486.541    575.632    486.541    493.392    486.541
104.270    583.000    569.507     13.493    486.351    562.960    486.351    492.912    486.351
104.370    541.000    559.224    -18.224    486.162    552.929    486.162    492.468    486.162
104.470    534.051    551.221    -17.170    485.974    545.148    485.974    492.054    485.974
104.570    521.000    545.120    -24.120    485.786    539.246    485.786    491.666    485.786
104.670    506.382    540.581    -34.199    485.600    534.885    485.600    491.300    485.600
104.770    560.000    537.313     22.687    485.414    531.776    485.414    490.953    485.414
104.870    585.000    535.079     49.921    485.229    529.685    485.229    490.623    485.229
104.970    541.000    533.701      7.299    485.045    528.437    485.045    490.308    485.045
105.070    513.117    533.056    -19.939    484.861    527.908    484.861    490.008    484.861
105.170    547.000    533.072     13.928    484.679    528.026    484.679    489.721    484.679
105.270    549.000    533.720     15.280    484.497    528.768    484.497    489.445    484.497
105.370    524.596    535.012    -10.416    484.317    530.146    484.317    489.176    484.317
105.470    542.000    537.005      4.995    484.137    532.213    484.137    488.922    484.137
105.570    562.000    539.776     22.224    483.959    535.048    483.959    488.678    483.959
105.670    592.000    543.421     48.579    483.781    538.746    483.781    488.445    483.781
105.770    532.000    548.047    -16.047    483.605    543.419    483.605    488.220    483.605
105.870    529.971    553.753    -23.783    483.430    549.163    483.430    488.004    483.430
105.970    592.723    560.619     32.104    483.255    556.060    483.255    487.796    483.255
106.070    542.697    568.687    -25.991    483.082    564.153    483.082    487.596    483.082
106.170    588.000    577.951     10.049    482.910    573.435    482.910    487.402    482.910
106.270    549.781    588.336    -38.555    482.739    583.841    482.739    487.207    482.739
106.370    566.325    599.725    -33.401    482.570    595.237    482.570    487.027    482.570
106.470    615.000    611.907      3.093    482.402    607.418    482.402    486.856    482.402
106.570    664.517    624.604     39.913    482.235    620.109    482.235    486.693    482.235
106.670    639.678    637.477      2.200    482.069    632.971    482.069    486.536    482.069
106.770    615.000    650.135    -35.135    481.904    645.612    481.904    486.386    481.904
106.870    632.000    662.150    -30.150    481.741    657.606    481.741    486.243    481.741
106.970    720.328    673.086     47.241    481.580    668.516    481.580    486.107    481.580
107.070    660.000    682.534    -22.534    481.419    677.934    481.419    485.978    481.419
107.170    666.000    690.158    -24.158    481.261    685.523    481.261    485.855    481.261
107.270    702.413    695.751      6.662    481.103    691.077    481.103    485.740    481.103
107.370    713.600    699.274     14.326    480.948    694.556    480.948    485.631    480.948
107.470    671.251    700.872    -29.621    480.793    696.106    480.793    485.529    480.793
107.570    697.000    700.856     -3.856    480.641    696.036    480.641    485.435    480.641
107.670    695.000    699.646     -4.646    480.489    694.767    480.489    485.347    480.489
107.770    688.061    697.712     -9.651    480.340    692.768    480.340    485.267    480.340
107.870    724.000    695.510     28.490    480.192    690.495    480.192    485.195    480.192
107.970    711.097    693.435     17.662    480.046    688.342    480.046    485.131    480.046
108.070    704.000    691.784     12.216    479.901    686.607    479.901    485.075    479.901
108.170    691.000    690.739      0.261    479.759    685.471    479.759    485.027    479.759
108.270    686.131    690.351     -4.220    479.618    684.986    479.618    484.987    479.618
108.370    632.000    690.545    -58.545    479.478    685.074    479.478    484.957    479.478
108.470    645.000    691.119    -46.119    479.341    685.535    479.341    484.936    479.341
108.570    669.000    691.767    -22.767    479.206    686.062    479.206    484.924    479.206
108.670    693.000    692.105      0.895    479.072    686.270    479.072    484.923    479.072
108.770    676.000    691.713    -15.713    478.940    685.741    478.940    484.932    478.940
108.870    686.000    690.189     -4.189    478.811    684.068    478.811    484.952    478.811
108.970    705.337    687.186     18.151    478.683    680.908    478.683    484.984    478.683
109.070    646.878    682.520    -35.643    478.557    676.074    478.557    485.028    478.557
109.170    705.000    676.173     28.827    478.434    669.548    478.434    485.084    478.434
109.270    677.000    668.225      8.775    478.312    661.409    478.312    485.155    478.312
109.370    692.770    658.900     33.870    478.193    651.879    478.193    485.239    478.193
109.470    662.000    648.504     13.496    478.076    641.266    478.076    485.339    478.076
109.570    656.000    637.386     18.614    477.961    629.916    477.961    485.455    477.961
109.670    624.000    625.903     -1.903    477.848    618.186    477.848    485.588    477.848
109.770    597.000    614.397    -17.397    477.737    606.416    477.737    485.739    477.737
109.870    615.000    603.177     11.823    477.629    594.914    477.629    485.911    477.629
109.970    618.548    592.511     26.036    477.523    583.947    477.523    486.104    477.523
110.070    545.000    582.617    -37.617    477.419    573.731    477.419    486.320    477.419
110.170    615.123    573.658     41.465    477.318    564.426    477.318    486.562    477.318
110.270    540.000    565.746    -25.746    477.219    556.143    477.219    486.833    477.219
110.370    583.000    558.941     24.059    477.123    548.937    477.123    487.135    477.123
110.470    592.000    553.258     38.742    477.029    542.820    477.029    487.474    477.029
110.570    520.644    548.674    -28.030    476.938    537.763    476.938    487.854    476.938
110.670    583.961    545.136     38.825    476.849    533.706    476.849    488.282    476.849
110.770    559.000    542.572     16.428    476.763    530.569    476.763    488.766    476.763
110.870    569.000    540.896     28.104    476.679    528.256    476.679    489.319    476.679
110.970    525.374    540.020    -14.646    476.598    526.665    476.598    489.952    476.598
111.070    496.000    539.858    -43.858    476.520    525.693    476.520    490.683    476.520
111.170    533.293    540.334     -7.041    476.445    525.240    476.445    491.535    476.445
111.270    553.000    541.382     11.618    476.372    525.216    476.372    492.534    476.372
111.370    556.374    542.954     13.420    476.302    525.537    476.302    493.714    476.302
111.470    572.000    545.019     26.981    476.235    526.133    476.235    495.115    476.235
111.570    562.473    547.565     14.909    476.171    526.941    476.171    496.788    476.171
111.670    552.000    550.601      1.399    476.110    527.913    476.110    498.792    476.110
111.770    580.000    554.158     25.842    476.052    529.007    476.052    501.196    476.052
111.870    562.795    558.289      4.506    475.997    530.197    475.997    504.080    475.997
111.970    586.000    563.067     22.933    475.945    531.466    475.945    507.538    475.945
112.070    526.000    568.590    -42.590    475.896    532.806    475.896    511.671    475.896
112.170    554.998    574.973    -19.975    475.850    534.222    475.850    516.592    475.850
112.270    566.439    582.351    -15.912    475.807    535.727    475.807    522.421    475.807
112.370    555.000    590.869    -35.869    475.767    537.342    475.767    529.285    475.767
112.470    555.470    600.683    -45.213    475.731    539.096    475.731    537.308    475.731
112.570    624.000    611.953     12.047    475.698    541.026    475.698    546.615    475.698
112.670    638.000    624.837     13.163    475.668    543.177    475.668    557.318    475.668
112.770    638.000    639.490     -1.490    475.642    545.606    475.642    569.514    475.642
112.870    675.000    656.056     18.944    475.619    548.385    475.619    583.277    475.619
112.970    671.000    674.671     -3.671    475.599    551.608    475.599    598.648    475.599
113.070    686.000    695.457     -9.457    475.583    555.395    475.583    615.630    475.583
113.170    720.000    718.532      1.468    475.570    559.906    475.570    634.180    475.570
113.270    733.343    744.007    -10.664    475.561    565.351    475.561    654.199    475.561
113.370    777.000    772.005      4.995    475.556    572.010    475.556    675.530    475.556
113.470    810.041    802.670      7.371    475.554    580.247    475.554    697.953    475.554
113.570    790.471    836.185    -45.714    475.556    590.538    475.556    721.176    475.556
113.670    892.917    872.802     20.115    475.561    603.494    475.561    744.837    475.561
113.770    938.014    912.859     25.155    475.570    619.891    475.570    768.501    475.570
113.870    975.000    956.820     18.180    475.584    640.700    475.584    791.660    475.584
113.970   1042.976   1005.299     37.676    475.600    667.113    475.600    813.735    475.600
114.070   1034.000   1059.106    -25.106    475.621    700.572    475.621    834.092    475.621
114.170   1097.389   1119.276    -21.887    475.646    742.788    475.646    852.060    475.646
114.270   1127.798   1187.123    -59.326    475.675    795.742    475.675    866.966    475.675
114.370   1292.720   1264.273     28.447    475.707    861.685    475.707    878.187    475.707
114.470   1424.000   1352.701     71.299    475.744    943.106    475.744    885.209    475.744
114.570   1384.830   1454.740    -69.910    475.785   1042.677    475.785    887.692    475.785
114.670   1612.000   1573.041     38.959    475.830   1163.174    475.830    885.512    475.830
114.770   1752.000   1710.484     41.516    475.879   1307.364    475.879    878.780    475.879
114.870   2014.000   1870.014    143.986    475.932   1477.860    475.932    867.830    475.932
114.970   2082.000   2054.425     27.575    475.990   1676.950    475.990    853.168    475.990
115.070   2416.000   2266.105    149.895    476.052   1906.404    476.052    835.413    476.052
115.170   2484.000   2506.768    -22.768    476.118   2167.265    476.118    815.237    476.118
115.270   2775.386   2777.196     -1.810    476.189   2459.644    476.189    793.312    476.189
115.370   3129.000   3077.004     51.996    476.264   2782.522    476.264    770.275    476.264
115.470   3439.000   3404.458     34.542    476.344   3133.584    476.344    746.707    476.344
115.570   3708.000   3756.334    -48.334    476.428   3509.099    476.428    723.119    476.428
115.670   4112.000   4127.850    -15.850    476.517   3903.846    476.517    699.951    476.517
115.770   4392.916   4512.663   -119.748    476.610   4311.120    476.610    677.569    476.610
115.870   4734.000   4902.938   -168.938    476.708   4722.793    476.708    656.266    476.708
115.970   5138.000   5289.490   -151.490    476.811   5129.456    476.811    636.268    476.811
116.070   5497.000   5662.015   -165.015    476.918   5520.650    476.918    617.734    476.918
116.170   6117.066   6009.469    107.597    477.031   5885.229    477.031    600.765    477.031
116.270   6237.000   6320.374    -83.374    477.148   6211.668    477.148    585.408    477.148
116.370   6608.000   6583.451     24.549    477.270   6488.691    477.270    571.662    477.270
116.470   6880.730   6788.299     92.430    477.397   6705.933    477.397    559.486    477.397
116.570   7030.000   6926.181    103.819    477.529   6854.726    477.529    548.809    477.529
116.670   7097.000   6990.831    106.169    477.666   6928.897    477.666    539.536    477.666
116.770   6903.911   6979.115    -75.205    477.808   6925.420    477.808    531.553    477.808
116.870   7091.000   6891.384    199.616    477.956   6844.761    477.956    524.738    477.956
116.970   6706.000   6731.407    -25.407    478.108   6690.812    478.108    518.965    478.108
117.070   6370.649   6505.928   -135.279    478.266   6470.438    478.266    514.108    478.266
117.170   6146.000   6223.950    -77.950    478.429   6192.759    478.429    510.047    478.429
117.270   5997.110   5895.925    101.185    478.597   5868.340    478.597    506.670    478.597
117.370   5428.000   5533.004   -105.004    478.771   5508.431    478.771    503.872    478.771
117.470   4995.000   5146.389   -151.389    478.950   5124.330    478.950    501.561    478.950
117.570   4790.177   4746.833     43.343    479.135   4726.871    479.135    499.657    479.135
117.670   4475.000   4344.257    130.743    479.325   4326.046    479.325    498.090    479.325
117.770   4114.000   3947.465    166.535    479.521   3930.722    479.521    496.799    479.521
117.870   3585.240   3563.956     21.284    479.723   3548.449    479.723    495.735    479.723
117.970   3355.000   3199.806    155.194    479.930   3185.348    479.930    494.856    479.930
118.070   2995.000   2859.641    135.359    480.143   2846.080    480.143    494.129    480.143
118.170   2613.811   2546.667     67.144    480.361   2533.881    480.361    493.526    480.361
118.270   2209.000   2262.776    -53.776    480.586   2250.667    480.586    493.026    480.586
118.370   1997.000   2008.681    -11.681    480.816   1997.171    480.816    492.612    480.816
118.470   1858.293   1784.096     74.198    481.052   1773.121    481.052    492.268    481.052
118.570   1515.000   1587.921    -72.921    481.295   1577.430    481.295    491.986    481.295
118.670   1420.000   1418.436      1.564    481.543   1408.386    481.543    491.755    481.543
118.770   1216.000   1273.486    -57.486    481.798   1263.843    481.798    491.570    481.798
118.870   1085.000   1150.657    -65.657    482.058   1141.390    482.058    491.426    482.058
118.970   1002.000   1047.419    -45.419    482.325   1038.503    482.325    491.318    482.325
119.070    942.175    961.257    -19.083    482.598    952.670    482.598    491.244    482.598
119.170    911.000    889.769     21.231    482.877    881.489    482.877    491.200    482.877
119.270    885.000    830.727     54.273    483.163    822.736    483.163    491.185    483.163
119.370    826.639    782.128     44.511    483.455    774.408    483.455    491.197    483.455
119.470    729.000    742.210    -13.210    483.754    734.744    483.754    491.235    483.754
119.570    691.612    709.455    -17.843    484.059    702.226    484.059    491.299    484.059
119.670    679.000    682.582     -3.582    484.371    675.573    484.371    491.387    484.371
119.770    660.401    660.522     -0.121    484.689    653.718    484.689    491.499    484.689
119.870    603.438    642.401    -38.963    485.014    635.785    485.014    491.635    485.014
119.970    630.000    627.509      2.491    485.346    621.064    485.346    491.795    485.346
120.070    593.483    615.277    -21.794    485.684    608.986    485.684    491.979    485.684
120.170    607.000    605.253      1.747    486.030    599.098    486.030    492.188    486.030
120.270    562.000    597.080    -35.080    486.382    591.044    486.382    492.422    486.382
120.370    570.000    590.478    -20.478    486.741    584.542    486.741    492.682    486.741
120.470    560.000    585.229    -25.229    487.107    579.374    487.107    492.968    487.107
120.570    590.000    581.164      8.836    487.481    575.368    487.481    493.282    487.481
120.670    557.000    578.150    -21.150    487.861    572.392    487.861    493.625    487.861
120.770    564.367    576.086    -11.719    488.249    570.344    488.249    493.997    488.249
120.870    604.038    574.893     29.146    488.644    569.143    488.644    494.401    488.644
120.970    529.262    574.507    -45.245    489.046    568.725    489.046    494.836    489.046
121.070    586.000    574.875     11.125    489.456    569.037    489.456    495.303    489.456
121.170    611.168    575.954     35.214    489.873    570.033    489.873    495.804    489.873
121.270    549.000    577.701    -28.701    490.297    571.671    490.297    496.339    490.297
121.370    600.937    580.073     20.864    490.729    573.908    490.729    496.908    490.729
121.470    581.000    583.025     -2.025    491.169    576.698    491.169    497.510    491.169
121.570    588.000    586.504      1.496    491.616    579.991    491.616    498.147    491.616
121.670    569.600    590.452    -20.852    492.071    583.727    492.071    498.815    492.071
121.770    593.000    594.801     -1.801    492.534    587.842    492.534    499.514    492.534
121.870    542.000    599.474    -57.474    493.004    592.260    493.004    500.242    493.004
121.970    575.511    604.383    -28.871    493.483    596.896    493.483    500.996    493.483
122.070    598.000    609.432    -11.432    493.969    601.658    493.969    501.773    493.969
122.170    612.863    614.516     -1.653    494.464    606.444    494.464    502.568    494.464
122.270    663.000    619.523     43.477    494.966    611.148    494.966    503.377    494.966
122.370    622.051    624.336     -2.285    495.477    615.656    495.477    504.195    495.477
122.470    696.000    628.837     67.163    495.996    619.859    495.996    505.015    495.996
122.570    660.000    632.909     27.091    496.523    623.645    496.523    505.830    496.523
122.670    675.000    636.444     38.556    497.058    626.915    497.058    506.633    497.058
122.770    654.000    639.350     14.650    497.602    629.582    497.602    507.417    497.602
122.870    603.000    641.551    -38.551    498.154    631.578    498.154    508.176    498.154
122.970    662.000    642.998     19.002    498.715    632.861    498.715    508.902    498.715
123.070    689.000    643.666     45.334    499.284    633.413    499.284    509.587    499.284
123.170    652.000    643.560      8.440    499.862    633.247    499.862    510.225    499.862
123.270    647.819    642.712      5.106    500.448    632.396    500.448    510.814    500.448
123.370    614.004    641.175    -27.171    501.043    630.917    501.043    511.350    501.043
123.470    619.162    639.018    -19.856    501.648    628.878    501.648    511.835    501.648
123.570    640.000    636.324      3.676    502.261    626.359    502.261    512.270    502.261
123.670    599.829    633.180    -33.351    502.882    623.445    502.882    512.660    502.882
123.770    628.000    629.678     -1.678    503.513    620.220    503.513    513.011    503.513
123.870    656.000    625.907     30.093    504.153    616.768    504.153    513.329    504.153
123.970    650.045    621.953     28.092    504.803    613.167    504.803    513.622    504.803
124.070    641.000    617.895     23.105    505.461    609.488    505.461    513.898    505.461
124.170    634.000    613.801     20.199    506.128    605.792    506.128    514.164    506.128
124.270    615.000    609.727      5.273    506.805    602.129    506.805    514.427    506.805
124.370    602.000    605.726     -3.726    507.492    598.545    507.492    514.693    507.492
124.470    588.000    601.832    -13.832    508.187    595.069    508.187    514.969    508.187
124.570    509.000    598.069    -89.069    508.893    591.718    508.893    515.259    508.893
124.670    631.537    594.450     37.086    509.608    588.503    509.608    515.568    509.608
124.770    677.000    590.984     86.016    510.332    585.428    510.332    515.900    510.332
124.870    605.000    587.670     17.330    511.066    582.488    511.066    516.257    511.066
124.970    570.000    584.503    -14.503    511.811    579.678    511.811    516.643    511.811
