neutron_powder_diffraction_0221
R_wp: 3.845
Temperature (K): 1074.000
Counts: 83812.00
Wavelength (Ã…): 2.52098
COMMENTS
Test file for demonstrating the .xyy file format in Reel1.0
END OF HEADER
   tth       Y_obs     Y_calc      Y_res    Background    Phase_1_Nuc    Phase_1_Mag    Phase_2_Nuc    Phase_2_Mag
  9.970    611.000    576.924     34.076    576.228    576.874    576.228    576.278    576.228
 10.070    614.590    576.988     37.603    576.233    576.938    576.233    576.282    576.233
 10.170    564.000    577.051    -13.051    576.232    577.001    576.232    576.281    576.232
 10.270    634.000    577.120     56.880    576.225    577.069    576.225    576.276    576.225
 10.370    609.000    577.200     31.800    576.214    577.144    576.214    576.270    576.214
 10.470    584.153    577.286      6.867    576.197    577.228    576.197    576.255    576.197
 10.570    584.000    577.384      6.616    576.176    577.325    576.176    576.233    576.176
 10.670    562.000    577.500    -15.500    576.149    577.441    576.149    576.207    576.149
 10.770    573.000    577.640     -4.640    576.118    577.581    576.118    576.176    576.118
 10.870    603.000    577.814     25.186    576.081    577.755    576.081    576.139    576.081
 10.970    613.000    578.033     34.967    576.040    577.973    576.040    576.098    576.040
 11.070    590.000    578.315     11.685    575.993    578.255    575.993    576.052    575.993
 11.170    595.225    578.686     16.539    575.942    578.625    575.942    576.002    575.942
 11.270    599.974    579.184     20.790    575.886    579.123    575.886    575.946    575.886
 11.370    577.000    579.877     -2.877    575.826    579.815    575.826    575.886    575.826
 11.470    589.679    580.913      8.766    575.761    580.850    575.761    575.821    575.761
 11.570    600.000    582.704     17.296    575.691    582.640    575.691    575.752    575.691
 11.670    619.000    586.411     32.589    575.617    586.344    575.617    575.678    575.617
 11.770    615.000    594.722     20.278    575.538    594.649    575.538    575.600    575.538
 11.870    584.000    611.944    -27.944    575.455    611.859    575.455    575.520    575.455
 11.970    673.236    641.389     31.847    575.368    641.286    575.368    575.434    575.368
 12.070    701.612    679.238     22.374    575.276    679.113    575.276    575.343    575.276
 12.170    701.000    708.966     -7.966    575.180    708.824    575.180    575.247    575.180
 12.270    679.000    709.839    -30.839    575.079    709.696    575.079    575.147    575.079
 12.370    661.000    680.983    -19.983    574.975    680.855    574.975    575.043    574.975
 12.470    612.000    642.766    -30.766    574.866    642.660    574.866    574.935    574.866
 12.570    641.100    612.456     28.644    574.753    612.365    574.753    574.823    574.753
 12.670    559.000    594.447    -35.447    574.636    594.366    574.636    574.706    574.636
 12.770    551.000    585.603    -34.603    574.515    585.527    574.515    574.585    574.515
 12.870    563.000    581.553    -18.553    574.391    581.479    574.391    574.461    574.391
 12.970    621.691    579.511     42.181    574.262    579.437    574.262    574.332    574.262
 13.070    609.000    578.256     30.744    574.129    578.182    574.129    574.200    574.129
 13.170    587.478    577.355     10.122    573.993    577.282    573.993    574.064    573.993
 13.270    540.000    576.656    -36.656    573.852    576.583    573.852    573.924    573.852
 13.370    540.000    576.087    -36.087    573.708    576.014    573.708    573.780    573.708
 13.470    613.705    575.610     38.095    573.560    575.536    573.560    573.633    573.560
 13.570    578.000    575.197      2.803    573.409    575.123    573.409    573.482    573.409
 13.670    592.000    574.832     17.168    573.254    574.758    573.254    573.327    573.254
 13.770    548.660    574.502    -25.842    573.095    574.428    573.095    573.169    573.095
 13.870    553.982    574.199    -20.217    572.933    574.124    572.933    573.007    572.933
 13.970    566.000    573.915     -7.915    572.768    573.841    572.768    572.842    572.768
 14.070    583.000    573.647      9.353    572.599    573.572    572.599    572.673    572.599
 14.170    589.000    573.390     15.610    572.426    573.315    572.426    572.501    572.426
 14.270    577.000    573.142      3.858    572.250    573.067    572.250    572.326    572.250
 14.370    582.361    572.901      9.459    572.071    572.825    572.071    572.147    572.071
 14.470    571.000    572.665     -1.665    571.889    572.588    571.889    571.966    571.889
 14.570    576.000    572.435      3.565    571.703    572.356    571.703    571.782    571.703
 14.670    550.000    572.208    -22.208    571.515    572.129    571.515    571.594    571.515
 14.770    589.000    571.981     17.019    571.323    571.902    571.323    571.402    571.323
 14.870    577.634    571.755      5.879    571.128    571.675    571.128    571.208    571.128
 14.970    563.025    571.528     -8.504    570.930    571.448    570.930    571.010    570.930
 15.070    572.821    571.302      1.518    570.729    571.221    570.729    570.809    570.729
 15.170    539.434    571.076    -31.642    570.525    570.995    570.525    570.606    570.525
 15.270    583.620    570.849     12.771    570.318    570.767    570.318    570.399    570.318
 15.370    546.000    570.621    -24.621    570.108    570.539    570.108    570.190    570.108
 15.470    525.314    570.393    -45.079    569.895    570.310    569.895    569.978    569.895
 15.570    579.000    570.163      8.837    569.679    570.080    569.679    569.762    569.679
 15.670    562.000    569.932     -7.932    569.461    569.848    569.461    569.545    569.461
 15.770    541.583    569.699    -28.116    569.240    569.615    569.240    569.324    569.240
 15.870    577.000    569.465      7.535    569.016    569.381    569.016    569.101    569.016
 15.970    543.888    569.231    -25.342    568.790    569.145    568.790    568.875    568.790
 16.070    537.529    568.995    -31.466    568.561    568.909    568.561    568.646    568.561
 16.170    530.000    568.756    -38.756    568.329    568.670    568.329    568.415    568.329
 16.270    581.000    568.516     12.484    568.095    568.429    568.095    568.182    568.095
 16.370    613.245    568.273     44.972    567.858    568.186    567.858    567.945    567.858
 16.470    521.000    568.029    -47.029    567.619    567.941    567.619    567.707    567.619
 16.570    588.175    567.783     20.392    567.378    567.694    567.378    567.466    567.378
 16.670    527.000    567.535    -40.535    567.134    567.446    567.134    567.222    567.134
 16.770    581.000    567.285     13.715    566.887    567.195    566.887    566.977    566.887
 16.870    557.000    567.033    -10.033    566.639    566.943    566.639    566.729    566.639
 16.970    554.427    566.780    -12.353    566.388    566.689    566.388    566.479    566.388
 17.070    568.000    566.530      1.470    566.135    566.434    566.135    566.231    566.135
 17.170    583.000    566.275     16.725    565.879    566.176    565.879    565.978    565.879
 17.270    542.809    566.017    -23.208    565.622    565.917    565.622    565.721    565.622
 17.370    563.000    565.759     -2.759    565.362    565.658    565.362    565.462    565.362
 17.470    561.299    565.497     -4.199    565.100    565.396    565.100    565.201    565.100
 17.570    551.000    565.233    -14.233    564.837    565.132    564.837    564.938    564.837
 17.670    599.000    564.968     34.032    564.571    564.865    564.571    564.673    564.571
 17.770    528.000    564.701    -36.701    564.303    564.597    564.303    564.406    564.303
 17.870    553.000    564.432    -11.432    564.033    564.328    564.033    564.137    564.033
 17.970    544.000    564.161    -20.161    563.761    564.057    563.761    563.866    563.761
 18.070    591.000    563.889     27.111    563.488    563.784    563.488    563.593    563.488
 18.170    546.403    563.615    -17.212    563.212    563.509    563.212    563.318    563.212
 18.270    587.168    563.340     23.828    562.935    563.233    562.935    563.042    562.935
 18.370    560.000    563.063     -3.063    562.656    562.956    562.656    562.764    562.656
 18.470    551.000    562.785    -11.785    562.375    562.677    562.375    562.484    562.375
 18.570    581.616    562.506     19.110    562.093    562.396    562.093    562.202    562.093
 18.670    560.000    562.225     -2.225    561.809    562.115    561.809    561.919    561.809
 18.770    547.000    561.942    -14.942    561.523    561.831    561.523    561.634    561.523
 18.870    569.970    561.659      8.311    561.235    561.547    561.235    561.347    561.235
 18.970    555.000    561.374     -6.374    560.946    561.261    560.946    561.059    560.946
 19.070    534.753    561.089    -26.336    560.656    560.975    560.656    560.769    560.656
 19.170    592.000    560.803     31.197    560.364    560.689    560.364    560.478    560.364
 19.270    616.000    560.515     55.485    560.070    560.399    560.070    560.185    560.070
 19.370    537.000    560.225    -23.225    559.775    560.109    559.775    559.891    559.775
 19.470    546.000    559.934    -13.934    559.479    559.817    559.479    559.596    559.479
 19.570    529.855    559.642    -29.787    559.181    559.524    559.181    559.299    559.181
 19.670    519.428    559.349    -39.922    558.882    559.230    558.882    559.001    558.882
 19.770    574.000    559.056     14.944    558.581    558.936    558.581    558.701    558.581
 19.870    528.029    558.761    -30.732    558.280    558.640    558.280    558.401    558.280
 19.970    567.000    558.467      8.533    557.977    558.345    557.977    558.099    557.977
 20.070    519.716    558.184    -38.468    557.672    558.061    557.672    557.795    557.672
 20.170    540.649    557.897    -17.247    557.367    557.773    557.367    557.491    557.367
 20.270    528.112    557.600    -29.488    557.060    557.475    557.060    557.186    557.060
 20.370    600.000    557.302     42.698    556.752    557.175    556.752    556.879    556.752
 20.470    556.000    557.003     -1.003    556.443    556.875    556.443    556.571    556.443
 20.570    523.000    556.704    -33.704    556.134    556.575    556.134    556.263    556.134
 20.670    584.042    556.404     27.638    555.822    556.274    555.822    555.953    555.822
 20.770    557.027    556.104      0.922    555.510    555.973    555.510    555.642    555.510
 20.870    577.120    555.804     21.316    555.197    555.671    555.197    555.330    555.197
 20.970    550.000    555.504     -5.504    554.883    555.369    554.883    555.018    554.883
 21.070    540.000    555.203    -15.203    554.569    555.068    554.569    554.704    554.569
 21.170    590.000    554.903     35.097    554.253    554.766    554.253    554.390    554.253
 21.270    550.000    554.602     -4.602    553.936    554.464    553.936    554.075    553.936
 21.370    564.066    554.303      9.763    553.618    554.162    553.618    553.759    553.618
 21.470    544.531    554.005     -9.474    553.300    553.861    553.300    553.444    553.300
 21.570    570.000    553.707     16.293    552.981    553.561    552.981    553.128    552.981
 21.670    536.000    553.409    -17.409    552.661    553.261    552.661    552.810    552.661
 21.770    532.000    553.112    -21.112    552.340    552.962    552.340    552.491    552.340
 21.870    552.000    552.815     -0.815    552.019    552.664    552.019    552.171    552.019
 21.970    528.861    552.521    -23.660    551.697    552.367    551.697    551.851    551.697
 22.070    571.000    552.236     18.764    551.374    552.080    551.374    551.530    551.374
 22.170    569.000    552.026     16.974    551.051    551.869    551.051    551.209    551.051
 22.270    544.000    551.761     -7.761    550.727    551.601    550.727    550.887    550.727
 22.370    561.000    551.498      9.502    550.403    551.336    550.403    550.564    550.403
 22.470    519.000    551.246    -32.246    550.078    551.082    550.078    550.241    550.078
 22.570    550.000    550.979     -0.979    549.752    550.813    549.752    549.918    549.752
 22.670    553.000    550.752      2.248    549.426    550.584    549.426    549.594    549.426
 22.770    577.000    550.505     26.495    549.099    550.334    549.099    549.270    549.099
 22.870    529.000    550.248    -21.248    548.773    550.075    548.773    548.946    548.773
 22.970    579.942    549.999     29.943    548.445    549.824    548.445    548.621    548.445
 23.070    589.073    549.761     39.311    548.117    549.583    548.117    548.296    548.117
 23.170    531.000    549.538    -18.538    547.789    549.357    547.789    547.971    547.789
 23.270    545.417    549.332     -3.915    547.461    549.148    547.461    547.645    547.461
 23.370    526.468    549.148    -22.681    547.132    548.961    547.132    547.319    547.132
 23.470    583.000    548.994     34.006    546.803    548.805    546.803    546.993    546.803
 23.570    551.000    548.880      2.120    546.474    548.688    546.474    546.667    546.474
 23.670    525.000    548.815    -23.815    546.144    548.619    546.144    546.341    546.144
 23.770    550.000    548.821      1.179    545.814    548.621    545.814    546.015    545.814
 23.870    528.000    548.927    -20.927    545.484    548.724    545.484    545.689    545.484
 23.970    590.000    549.189     40.811    545.154    548.983    545.154    545.362    545.154
 24.070    503.783    549.740    -45.957    544.824    549.530    544.824    545.036    544.824
 24.170    579.000    550.949     28.051    544.493    550.736    544.493    544.710    544.493
 24.270    615.000    553.797     61.203    544.163    553.582    544.163    544.384    544.163
 24.370    557.794    560.312     -2.519    543.832    560.097    543.832    544.058    543.832
 24.470    586.000    573.270     12.730    543.501    573.060    543.501    543.732    543.501
 24.570    622.000    594.006     27.994    543.171    593.805    543.171    543.407    543.171
 24.670    661.373    618.449     42.924    542.840    618.260    542.840    543.082    542.840
 24.770    640.000    634.600      5.400    542.509    634.418    542.509    542.757    542.509
 24.870    623.000    630.603     -7.603    542.179    630.412    542.179    542.432    542.179
 24.970    561.773    609.682    -47.909    541.848    609.470    541.848    542.108    541.848
 25.070    563.912    585.151    -21.239    541.518    584.914    541.518    541.785    541.518
 25.170    588.000    566.350     21.650    541.187    566.092    541.187    541.462    541.187
 25.270    525.630    555.191    -29.561    540.857    554.918    540.857    541.139    540.857
 25.370    564.000    549.556     14.444    540.527    549.270    540.527    540.817    540.527
 25.470    512.379    546.821    -34.442    540.197    546.525    540.197    540.496    540.197
 25.570    548.000    545.331      2.669    539.867    545.024    539.867    540.176    539.867
 25.670    534.000    544.350    -10.350    539.537    544.033    539.537    539.857    539.537
 25.770    568.561    543.613     24.947    539.208    543.284    539.208    539.538    539.208
 25.870    564.352    543.024     21.329    538.879    542.683    538.879    539.221    538.879
 25.970    578.000    542.536     35.464    538.550    542.182    538.550    538.905    538.550
 26.070    554.872    542.126     12.746    538.221    541.758    538.221    538.590    538.221
 26.170    554.000    541.780     12.220    537.893    541.397    537.893    538.276    537.893
 26.270    518.000    541.486    -23.486    537.565    541.087    537.565    537.964    537.565
 26.370    561.156    541.241     19.915    537.238    540.825    537.238    537.654    537.238
 26.470    559.000    541.049     17.951    536.910    540.613    536.910    537.346    536.910
 26.570    518.000    540.932    -22.932    536.583    540.476    536.583    537.040    536.583
 26.670    520.277    540.868    -20.591    536.257    540.389    536.257    536.737    536.257
 26.770    516.024    540.847    -24.822    535.931    540.342    535.931    536.436    535.931
 26.870    579.000    540.899     38.101    535.605    540.366    535.605    536.138    535.605
 26.970    515.000    541.048    -26.048    535.280    540.484    535.280    535.843    535.280
 27.070    520.038    541.324    -21.286    534.956    540.726    534.956    535.553    534.956
 27.170    497.324    541.756    -44.432    534.632    541.120    534.632    535.267    534.632
 27.270    522.000    542.384    -20.384    534.308    541.705    534.308    534.986    534.308
 27.370    577.558    543.312     34.247    533.985    542.584    533.985    534.711    533.985
 27.470    580.000    544.693     35.307    533.662    543.910    533.662    534.444    533.662
 27.570    561.000    546.880     14.120    533.340    546.035    533.340    534.184    533.340
 27.670    571.999    551.266     20.734    533.019    550.348    533.019    533.934    533.019
 27.770    586.000    562.551     23.449    532.698    561.547    532.698    533.695    532.698
 27.870    578.000    592.752    -14.752    532.378    591.643    532.378    533.470    532.378
 27.970    626.324    660.735    -34.411    532.059    659.493    532.059    533.262    532.059
 28.070    755.000    775.057    -20.057    531.740    773.651    531.740    533.075    531.740
 28.170    865.000    903.334    -38.334    531.422    901.745    531.422    532.913    531.422
 28.270    954.261    966.672    -12.410    531.104    964.896    531.104    532.784    531.104
 28.370    922.000    912.916      9.084    530.788    910.948    530.788    532.697    530.788
 28.470    841.000    797.418     43.582    530.472    795.202    530.472    532.665    530.472
 28.570    751.880    708.447     43.432    530.156    705.882    530.156    532.712    530.156
 28.670    695.239    691.140      4.098    529.842    688.093    529.842    532.875    529.842
 28.770    750.000    740.073      9.927    529.528    736.363    529.528    533.219    529.528
 28.870    866.165    813.159     53.006    529.215    808.506    529.215    533.857    529.215
 28.970    807.708    847.884    -40.176    528.903    841.829    528.903    534.962    528.903
 29.070    763.000    807.362    -44.362    528.592    799.193    528.592    536.775    528.592
 29.170    773.487    724.213     49.274    528.281    712.940    528.281    539.568    528.281
 29.270    694.080    648.549     45.531    527.971    632.967    527.971    543.563    527.971
 29.370    590.000    602.743    -12.743    527.663    581.641    527.663    548.767    527.663
 29.470    572.000    583.476    -11.476    527.355    556.152    527.355    554.679    527.355
 29.570    578.000    578.068     -0.068    527.048    545.248    527.048    559.866    527.048
 29.670    565.000    575.795    -10.795    526.742    540.450    526.742    562.084    526.742
 29.770    561.000    571.390    -10.390    526.436    537.866    526.436    559.958    526.436
 29.870    582.000    564.575     17.425    526.132    536.173    526.132    554.532    526.132
 29.970    631.000    557.177     73.823    525.829    534.974    525.829    548.030    525.829
 30.070    511.083    550.660    -39.577    525.526    534.139    525.526    542.045    525.526
 30.170    575.386    545.638     29.748    525.225    533.642    525.225    537.219    525.225
 30.270    499.550    542.276    -42.726    524.925    533.586    524.925    533.612    524.925
 30.370    549.000    540.809      8.191    524.625    534.399    524.625    531.032    524.625
 30.470    537.000    542.119     -5.119    524.327    537.233    524.327    529.207    524.327
 30.570    562.000    548.134     13.866    524.030    544.264    524.030    527.888    524.030
 30.670    586.447    561.092     25.355    523.734    557.912    523.734    526.891    523.734
 30.770    550.643    580.863    -30.219    523.438    578.171    523.438    526.092    523.438
 30.870    582.000    601.490    -19.490    523.144    599.163    523.144    525.420    523.144
 30.970    585.000    610.893    -25.893    522.851    608.857    522.851    524.831    522.851
 31.070    585.711    601.069    -15.358    522.559    599.281    522.559    524.302    522.559
 31.170    609.000    579.435     29.565    522.268    577.856    522.268    523.818    522.268
 31.270    508.000    558.062    -50.062    521.979    556.656    521.979    523.369    521.979
 31.370    534.000    543.144     -9.144    521.690    541.880    521.690    522.946    521.690
 31.470    533.000    534.904     -1.904    521.403    533.757    521.403    522.546    521.403
 31.570    518.000    530.965    -12.965    521.116    529.915    521.116    522.163    521.116
 31.670    515.000    529.097    -14.097    520.831    528.130    520.831    521.796    520.831
 31.770    495.150    528.074    -32.923    520.547    527.179    520.547    521.440    520.547
 31.870    533.000    527.406      5.594    520.265    526.574    520.265    521.096    520.265
 31.970    523.135    526.930     -3.796    519.983    526.152    519.983    520.760    519.983
 32.070    525.000    526.590     -1.590    519.703    525.860    519.703    520.432    519.703
 32.170    502.147    526.365    -24.218    519.424    525.676    519.424    520.112    519.424
 32.270    518.000    526.247     -8.247    519.146    525.595    519.146    519.797    519.146
 32.370    509.000    526.239    -17.239    518.869    525.620    518.869    519.487    518.869
 32.470    585.000    526.345     58.655    518.594    525.756    518.594    519.182    518.594
 32.570    553.000    526.581     26.419    518.320    526.018    518.320    518.882    518.320
 32.670    560.000    526.974     33.026    518.047    526.434    518.047    518.585    518.047
 32.770    494.583    527.561    -32.978    517.775    527.043    517.775    518.292    517.775
 32.870    542.000    528.398     13.602    517.505    527.899    517.505    518.003    517.505
 32.970    572.908    529.565     43.343    517.236    529.083    517.236    517.717    517.236
 33.070    551.000    531.187     19.813    516.969    530.721    516.969    517.433    516.969
 33.170    543.445    533.492      9.953    516.702    533.040    516.702    517.153    516.702
 33.270    551.000    537.000     14.000    516.437    536.561    516.437    516.875    516.437
 33.370    551.000    543.144      7.856    516.174    542.715    516.174    516.599    516.174
 33.470    554.000    555.732     -1.732    515.911    555.312    515.911    516.326    515.911
 33.570    580.000    583.137     -3.137    515.651    582.722    515.651    516.055    515.651
 33.670    680.545    638.771     41.774    515.391    638.355    515.391    515.787    515.391
 33.770    776.000    734.986     41.014    515.133    734.563    515.133    515.520    515.133
 33.870    888.865    868.207     20.658    514.876    867.774    514.876    515.256    514.876
 33.970   1058.000   1002.130     55.870    514.621   1001.695    514.621    514.994    514.621
 34.070   1105.000   1067.813     37.187    514.367   1067.394    514.367    514.733    514.367
 34.170    994.000   1018.445    -24.445    514.114   1018.058    514.114    514.475    514.114
 34.270    879.000    890.710    -11.710    513.863    890.353    513.863    514.218    513.863
 34.370    776.000    753.995     22.005    513.614    753.653    513.614    513.964    513.614
 34.470    627.421    650.416    -22.995    513.365    650.080    513.365    513.711    513.365
 34.570    565.174    588.038    -22.864    513.119    587.702    513.119    513.460    513.119
 34.670    600.467    556.159     44.308    512.873    555.824    512.873    513.211    512.873
 34.770    553.907    541.068     12.840    512.630    540.734    512.630    512.964    512.630
 34.870    538.000    533.536      4.464    512.387    533.204    512.387    512.719    512.387
 34.970    507.730    529.119    -21.388    512.146    528.789    512.146    512.475    512.146
 35.070    550.000    526.080     23.920    511.907    525.753    511.907    512.233    511.907
 35.170    498.768    523.786    -25.018    511.669    523.462    511.669    511.993    511.669
 35.270    521.000    521.973     -0.973    511.432    521.650    511.432    511.754    511.432
 35.370    516.000    520.500     -4.500    511.197    520.179    511.197    511.518    511.197
 35.470    528.000    519.277      8.723    510.964    518.958    510.964    511.283    510.964
 35.570    525.708    518.245      7.463    510.732    517.928    510.732    511.050    510.732
 35.670    540.000    517.360     22.640    510.502    517.044    510.502    510.818    510.502
 35.770    504.303    516.591    -12.288    510.273    516.275    510.273    510.588    510.273
 35.870    496.000    515.913    -19.913    510.046    515.599    510.046    510.360    510.046
 35.970    488.000    515.311    -27.311    509.820    514.998    509.820    510.134    509.820
 36.070    532.000    514.772     17.228    509.596    514.458    509.596    509.909    509.596
 36.170    490.000    514.285    -24.285    509.373    513.972    509.373    509.686    509.373
 36.270    486.000    513.844    -27.844    509.152    513.531    509.152    509.465    509.152
 36.370    508.000    513.444     -5.444    508.932    513.131    508.932    509.245    508.932
 36.470    499.593    513.081    -13.488    508.714    512.768    508.714    509.027    508.714
 36.570    493.725    512.754    -19.029    508.498    512.441    508.498    508.811    508.498
 36.670    543.999    512.465     31.534    508.283    512.152    508.283    508.596    508.283
 36.770    530.000    512.219     17.781    508.070    511.906    508.070    508.384    508.070
 36.870    519.832    512.035      7.797    507.858    511.721    507.858    508.172    507.858
 36.970    517.000    511.964      5.036    507.648    511.649    507.648    507.963    507.648
 37.070    490.000    512.126    -22.126    507.440    511.811    507.440    507.755    507.440
 37.170    526.000    512.754     13.246    507.233    512.438    507.233    507.549    507.233
 37.270    491.000    514.180    -23.180    507.028    513.863    507.028    507.345    507.028
 37.370    540.183    516.680     23.503    506.824    516.363    506.824    507.143    506.824
 37.470    544.000    520.165     23.835    506.622    519.847    506.622    506.942    506.622
 37.570    518.000    523.836     -5.836    506.422    523.518    506.422    506.743    506.422
 37.670    493.000    526.152    -33.152    506.223    525.834    506.223    506.546    506.223
 37.770    519.000    525.821     -6.821    506.026    525.504    506.026    506.350    506.026
 37.870    511.000    523.171    -12.171    505.830    522.854    505.830    506.156    505.830
 37.970    540.000    519.601     20.399    505.637    519.284    505.637    505.964    505.637
 38.070    549.852    516.196     33.656    505.444    515.878    505.444    505.774    505.444
 38.170    492.901    513.388    -20.487    505.254    513.067    505.254    505.585    505.254
 38.270    527.000    511.287     15.713    505.065    510.961    505.065    505.398    505.065
 38.370    515.000    509.828      5.172    504.878    509.498    504.878    505.213    504.878
 38.470    537.832    508.858     28.974    504.692    508.523    504.692    505.029    504.692
 38.570    486.000    508.216    -22.216    504.508    507.878    504.508    504.848    504.508
 38.670    530.377    507.774     22.604    504.326    507.433    504.326    504.668    504.326
 38.770    547.000    507.444     39.556    504.145    507.100    504.145    504.490    504.145
 38.870    556.000    507.174     48.826    503.966    506.827    503.966    504.313    503.966
 38.970    499.000    506.937     -7.937    503.789    506.588    503.789    504.139    503.789
 39.070    483.000    506.721    -23.721    503.614    506.369    503.614    503.966    503.614
 39.170    450.000    506.520    -56.520    503.440    506.165    503.440    503.795    503.440
 39.270    476.000    506.332    -30.332    503.267    505.974    503.267    503.626    503.267
 39.370    496.000    506.155    -10.155    503.097    505.794    503.097    503.458    503.097
 39.470    515.000    505.987      9.013    502.928    505.622    502.928    503.292    502.928
 39.570    505.000    505.828     -0.828    502.761    505.460    502.761    503.129    502.761
 39.670    471.000    505.677    -34.677    502.595    505.305    502.595    502.966    502.595
 39.770    494.000    505.534    -11.534    502.431    505.159    502.431    502.806    502.431
 39.870    509.000    505.399      3.601    502.269    505.020    502.269    502.648    502.269
 39.970    490.754    505.271    -14.518    502.109    504.889    502.109    502.491    502.109
 40.070    487.000    505.153    -18.153    501.950    504.767    501.950    502.336    501.950
 40.170    453.000    505.042    -52.042    501.793    504.652    501.793    502.183    501.793
 40.270    503.000    504.941     -1.941    501.637    504.547    501.637    502.032    501.637
 40.370    526.259    504.850     21.408    501.484    504.452    501.484    501.882    501.484
 40.470    516.000    504.771     11.229    501.332    504.368    501.332    501.735    501.332
 40.570    496.817    504.703     -7.886    501.181    504.296    501.181    501.589    501.181
 40.670    521.000    504.649     16.351    501.033    504.237    501.033    501.445    501.033
 40.770    474.000    504.612    -30.612    500.886    504.195    500.886    501.303    500.886
 40.870    547.967    504.593     43.374    500.741    504.171    500.741    501.163    500.741
 40.970    495.919    504.597     -8.677    500.597    504.170    500.597    501.025    500.597
 41.070    489.000    504.627    -15.627    500.455    504.195    500.455    500.888    500.455
 41.170    507.467    504.691      2.776    500.315    504.253    500.315    500.754    500.315
 41.270    512.000    504.795      7.205    500.177    504.351    500.177    500.621    500.177
 41.370    501.000    504.952     -3.952    500.040    504.502    500.040    500.490    500.040
 41.470    514.000    505.176      8.824    499.905    504.721    499.905    500.362    499.905
 41.570    501.000    505.493     -4.493    499.772    505.031    499.772    500.235    499.772
 41.670    540.000    505.946     34.054    499.640    505.478    499.640    500.109    499.640
 41.770    505.593    506.635     -1.042    499.510    506.161    499.510    499.986    499.510
 41.870    469.000    507.799    -38.799    499.382    507.318    499.382    499.865    499.382
 41.970    484.095    509.994    -25.899    499.255    509.508    499.255    499.746    499.255
 42.070    536.000    514.338     21.662    499.131    513.846    499.131    499.629    499.131
 42.170    560.000    522.625     37.375    499.007    522.128    499.007    499.513    499.007
 42.270    544.000    536.923      7.077    498.886    536.425    498.886    499.400    498.886
 42.370    531.502    558.325    -26.824    498.766    557.830    498.766    499.288    498.766
 42.470    630.287    585.069     45.217    498.648    584.579    498.648    499.179    498.648
 42.570    579.166    610.913    -31.747    498.532    610.428    498.532    499.072    498.532
 42.670    610.518    625.702    -15.184    498.417    625.217    498.417    498.966    498.417
 42.770    589.000    621.685    -32.685    498.304    621.192    498.304    498.863    498.304
 42.870    592.000    601.222     -9.222    498.193    600.711    498.193    498.762    498.193
 42.970    525.000    573.982    -48.982    498.083    573.446    498.083    498.663    498.083
 43.070    558.000    548.802      9.198    497.975    548.241    497.975    498.566    497.975
 43.170    539.000    530.046      8.954    497.869    529.462    497.869    498.471    497.869
 43.270    523.000    518.150      4.850    497.765    517.547    497.765    498.378    497.765
 43.370    534.000    511.468     22.532    497.662    510.849    497.662    498.287    497.662
 43.470    492.000    507.964    -15.964    497.561    507.330    497.561    498.199    497.561
 43.570    449.000    506.109    -57.109    497.461    505.460    497.461    498.113    497.461
 43.670    550.000    505.029     44.971    497.363    504.366    497.363    498.029    497.363
 43.770    516.000    504.315     11.685    497.267    503.637    497.267    497.947    497.267
 43.870    502.000    503.792     -1.792    497.173    503.098    497.173    497.868    497.173
 43.970    485.000    503.388    -18.388    497.080    502.678    497.080    497.791    497.080
 44.070    477.000    503.068    -26.068    496.989    502.341    496.989    497.717    496.989
 44.170    504.000    502.812      1.188    496.899    502.068    496.899    497.645    496.899
 44.270    507.000    502.606      4.394    496.811    501.843    496.811    497.575    496.811
 44.370    534.184    502.441     31.743    496.725    501.658    496.725    497.508    496.725
 44.470    482.000    502.309    -20.309    496.641    501.507    496.641    497.444    496.641
 44.570    480.263    502.207    -21.944    496.558    501.383    496.558    497.383    496.558
 44.670    533.000    502.129     30.871    496.477    501.282    496.477    497.324    496.477
 44.770    507.212    502.074      5.138    496.397    501.203    496.397    497.268    496.397
 44.870    484.000    502.038    -18.038    496.319    501.142    496.319    497.216    496.319
 44.970    458.760    502.022    -43.262    496.243    501.099    496.243    497.166    496.243
 45.070    476.000    502.023    -26.023    496.169    501.072    496.169    497.119    496.169
 45.170    495.000    502.041     -7.041    496.096    501.061    496.096    497.076    496.096
 45.270    505.000    502.077      2.923    496.024    501.064    496.024    497.037    496.024
 45.370    467.000    502.130    -35.130    495.954    501.083    495.954    497.001    495.954
 45.470    495.000    502.200     -7.200    495.886    501.118    495.886    496.969    495.886
 45.570    534.000    502.289     31.711    495.820    501.168    495.820    496.941    495.820
 45.670    476.869    502.397    -25.528    495.755    501.234    495.755    496.917    495.755
 45.770    526.000    502.525     23.475    495.692    501.319    495.692    496.898    495.692
 45.870    502.000    502.677     -0.677    495.630    501.423    495.630    496.884    495.630
 45.970    505.000    502.853      2.147    495.570    501.548    495.570    496.875    495.570
 46.070    504.643    503.057      1.586    495.512    501.697    495.512    496.871    495.512
 46.170    530.000    503.292     26.708    495.455    501.872    495.455    496.874    495.455
 46.270    508.000    503.563      4.437    495.400    502.079    495.400    496.883    495.400
 46.370    486.000    503.876    -17.876    495.346    502.321    495.346    496.900    495.346
 46.470    520.000    504.238     15.762    495.294    502.607    495.294    496.924    495.294
 46.570    521.000    504.660     16.340    495.244    502.946    495.244    496.957    495.244
 46.670    504.000    505.158     -1.158    495.195    503.352    495.195    496.999    495.195
 46.770    542.662    505.759     36.904    495.147    503.852    495.147    497.053    495.147
 46.870    507.000    506.516      0.484    495.102    504.498    495.102    497.118    495.102
 46.970    528.639    507.554     21.085    495.058    505.413    495.058    497.196    495.058
 47.070    506.000    509.139     -3.139    495.015    506.860    495.015    497.290    495.015
 47.170    485.398    511.790    -26.392    494.974    509.357    494.974    497.402    494.974
 47.270    513.000    516.351     -3.351    494.934    513.745    494.934    497.533    494.934
 47.370    551.174    523.891     27.284    494.896    521.086    494.896    497.688    494.896
 47.470    515.461    535.272    -19.811    494.860    532.240    494.860    497.869    494.860
 47.570    542.000    550.418     -8.418    494.825    547.127    494.825    498.083    494.825
 47.670    558.534    567.498     -8.964    494.792    563.910    494.792    498.335    494.792
 47.770    580.401    582.515     -2.114    494.760    578.589    494.760    498.632    494.760
 47.870    605.000    590.102     14.898    494.729    585.790    494.729    498.984    494.729
 47.970    566.000    587.088    -21.088    494.701    582.332    494.701    499.404    494.701
 48.070    583.000    575.638      7.362    494.673    570.359    494.673    499.911    494.673
 48.170    609.000    560.990     48.010    494.648    555.076    494.648    500.531    494.648
 48.270    563.000    547.677     15.323    494.623    540.971    494.623    501.309    494.623
 48.370    499.000    538.152    -39.152    494.600    530.424    494.600    502.316    494.600
 48.470    527.000    533.027     -6.027    494.579    523.923    494.579    503.675    494.579
 48.570    537.000    531.853      5.147    494.559    520.824    494.559    505.582    494.559
 48.670    490.000    533.935    -43.935    494.541    520.132    494.541    508.339    494.541
 48.770    509.703    538.867    -29.164    494.524    521.020    494.524    512.367    494.524
 48.870    547.000    546.692      0.308    494.509    523.007    494.509    518.189    494.509
 48.970    511.187    557.800    -46.613    494.495    525.943    494.495    526.348    494.495
 49.070    584.000    572.756     11.244    494.482    529.978    494.482    537.255    494.482
 49.170    633.437    592.221     41.216    494.471    535.724    494.471    550.961    494.471
 49.270    623.524    617.276      6.248    494.461    544.880    494.461    566.848    494.461
 49.370    638.000    650.565    -12.565    494.453    561.784    494.453    583.220    494.453
 49.470    678.421    698.792    -20.371    494.446    596.215    494.446    596.998    494.446
 49.570    804.000    776.615     27.385    494.441    666.741    494.441    604.270    494.441
 49.670    879.950    909.485    -29.535    494.437    801.419    494.437    602.427    494.437
 49.770   1122.000   1128.369     -6.369    494.434   1030.474    494.434    592.211    494.434
 49.870   1488.000   1450.266     37.734    494.433   1367.496    494.433    577.045    494.433
 49.970   1806.000   1850.696    -44.696    494.433   1784.327    494.433    560.631    494.433
 50.070   2239.417   2246.128     -6.711    494.435   2194.938    494.435    545.492    494.435
 50.170   2496.685   2507.292    -10.607    494.438   2468.834    494.438    532.860    494.438
 50.270   2424.000   2521.870    -97.870    494.442   2493.340    494.442    523.060    494.442
 50.370   2341.000   2278.687     62.313    494.448   2257.441    494.448    515.874    494.448
 50.470   1965.177   1878.826     86.351    494.455   1862.671    494.455    510.819    494.455
 50.570   1532.093   1456.550     75.543    494.464   1443.854    494.464    507.347    494.464
 50.670   1142.648   1107.703     34.945    494.473   1097.346    494.473    504.972    494.473
 50.770    869.469    869.129      0.340    494.484    860.391    494.484    503.319    494.484
 50.870    709.000    731.127    -22.127    494.497    723.560    494.497    502.130    494.497
 50.970    679.000    662.159     16.841    494.511    655.479    494.511    501.239    494.511
 51.070    600.968    629.744    -28.776    494.526    623.763    494.526    500.546    494.526
 51.170    584.761    611.056    -26.295    494.542    605.640    494.542    499.993    494.542
 51.270    655.000    595.020     59.980    494.560    590.068    494.560    499.542    494.560
 51.370    556.000    579.096    -23.096    494.579    574.528    494.579    499.170    494.579
 51.470    566.000    564.337      1.663    494.599    560.092    494.599    498.862    494.599
 51.570    592.093    552.132     39.960    494.621    548.160    494.621    498.605    494.621
 51.670    540.000    543.113     -3.113    494.643    539.373    494.643    498.391    494.643
 51.770    522.000    537.124    -15.124    494.668    533.584    494.668    498.213    494.668
 51.870    554.000    533.565     20.435    494.693    530.197    494.693    498.065    494.693
 51.970    548.000    531.756     16.244    494.720    528.534    494.720    497.944    494.720
 52.070    531.000    531.173     -0.173    494.747    528.076    494.747    497.846    494.747
 52.170    522.876    531.524     -8.648    494.776    528.535    494.776    497.768    494.776
 52.270    570.768    532.755     38.013    494.807    529.857    494.807    497.707    494.807
 52.370    547.948    535.076     12.872    494.838    532.255    494.838    497.661    494.838
 52.470    533.391    539.119     -5.727    494.871    536.361    494.871    497.630    494.871
 52.570    573.000    546.289     26.711    494.905    543.584    494.905    497.611    494.905
 52.670    591.000    559.314     31.686    494.940    556.651    494.940    497.604    494.940
 52.770    595.000    582.761     12.239    494.976    580.129    494.976    497.607    494.976
 52.870    660.000    623.005     36.995    495.014    620.396    495.014    497.620    495.014
 52.970    730.000    686.916     43.084    495.052    684.322    495.052    497.642    495.052
 53.070    774.000    778.806     -4.806    495.092    776.220    495.092    497.673    495.092
 53.170    910.000    896.147     13.853    495.133    893.563    495.133    497.712    495.133
 53.270    971.000   1025.489    -54.489    495.175   1022.905    495.175    497.759    495.175
 53.370   1151.000   1140.605     10.395    495.218   1138.019    495.218    497.814    495.218
 53.470   1156.000   1207.221    -51.221    495.263   1204.629    495.263    497.876    495.263
 53.570   1170.000   1200.198    -30.198    495.308   1197.594    495.308    497.946    495.308
 53.670   1099.000   1122.707    -23.707    495.355   1120.079    495.355    498.023    495.355
 53.770    922.000   1003.263    -81.263    495.402   1000.599    495.402    498.108    495.402
 53.870    872.000    875.312     -3.312    495.451    872.599    495.451    498.199    495.451
 53.970    776.625    762.726     13.899    495.501    759.956    495.501    498.298    495.501
 54.070    659.000    676.707    -17.707    495.552    673.872    495.552    498.405    495.552
 54.170    614.000    618.203     -4.203    495.604    615.299    495.604    498.520    495.604
 54.270    590.000    582.162      7.838    495.657    579.183    495.657    498.643    495.657
 54.370    564.000    561.657      2.343    495.711    558.598    495.711    498.774    495.711
 54.470    503.828    550.614    -46.786    495.766    547.468    495.766    498.915    495.766
 54.570    546.000    544.832      1.168    495.822    541.592    495.822    499.064    495.822
 54.670    532.241    541.865     -9.625    495.880    538.523    495.880    499.224    495.880
 54.770    555.000    540.470     14.530    495.938    537.015    495.938    499.394    495.938
 54.870    502.408    540.076    -37.668    495.997    536.499    495.997    499.575    495.997
 54.970    558.000    540.442     17.558    496.057    536.732    496.057    499.769    496.057
 55.070    514.958    541.482    -26.525    496.118    537.626    496.118    499.976    496.118
 55.170    549.000    543.185      5.815    496.181    539.170    496.181    500.196    496.181
 55.270    575.246    545.588     29.658    496.244    541.400    496.244    500.432    496.244
 55.370    585.744    548.781     36.963    496.308    544.404    496.308    500.685    496.308
 55.470    598.000    552.926     45.074    496.373    548.343    496.373    500.957    496.373
 55.570    590.736    558.334     32.401    496.439    553.525    496.439    501.249    496.439
 55.670    554.000    565.651    -11.651    496.506    560.594    496.506    501.563    496.506
 55.770    600.842    576.282     24.560    496.574    570.952    496.574    501.903    496.574
 55.870    585.000    593.223     -8.223    496.642    587.593    496.642    502.270    496.642
 55.970    592.625    622.391    -29.766    496.712    616.428    496.712    502.669    496.712
 56.070    702.150    674.194     27.956    496.782    667.861    496.782    503.104    496.782
 56.170    746.460    764.397    -17.937    496.854    757.651    496.854    503.578    496.854
 56.270    947.522    912.554     34.968    496.926    905.347    496.926    504.099    496.926
 56.370   1082.000   1136.296    -54.296    496.999   1128.576    496.999    504.671    496.999
 56.470   1502.054   1441.369     60.685    497.073   1433.081    497.073    505.304    497.073
 56.570   1704.000   1810.136   -106.136    497.148   1801.226    497.148    506.005    497.148
 56.670   2196.000   2193.231      2.769    497.224   2183.643    497.224    506.787    497.224
 56.770   2433.000   2509.841    -76.841    497.300   2499.512    497.300    507.663    497.300
 56.870   2642.000   2667.470    -25.470    497.378   2656.315    497.378    508.650    497.378
 56.970   2535.384   2610.581    -75.197    497.456   2598.470    497.456    509.769    497.456
 57.070   2365.992   2361.853      4.138    497.535   2348.597    497.535    511.046    497.535
 57.170   2039.000   2003.142     35.858    497.614   1988.502    497.614    512.518    497.614
 57.270   1689.000   1624.097     64.903    497.695   1607.791    497.695    514.234    497.695
 57.370   1239.294   1289.625    -50.331    497.776   1271.315    497.776    516.271    497.776
 57.470   1072.000   1031.865     40.135    497.858   1011.107    497.858    518.748    497.858
 57.570    879.000    855.162     23.838    497.941    831.332    497.941    521.857    497.941
 57.670    725.759    746.817    -21.059    498.024    718.985    498.024    525.908    498.024
 57.770    713.000    688.421     24.579    498.109    655.169    498.109    531.389    498.109
 57.870    717.000    663.946     53.054    498.194    623.128    498.194    539.023    498.194
 57.970    694.000    663.378     30.622    498.279    611.845    498.279    549.813    498.279
 58.070    663.000    682.911    -19.911    498.366    616.244    498.366    565.024    498.366
 58.170    670.000    723.251    -53.251    498.453    635.615    498.453    586.070    498.453
 58.270    778.000    787.178     -9.178    498.540    671.412    498.540    614.276    498.540
 58.370    886.664    877.009      9.655    498.629    725.083    498.629    650.513    498.629
 58.470    993.000    992.107      0.893    498.718    796.044    498.718    694.730    498.718
 58.570   1143.000   1126.957     16.043    498.807    880.312    498.807    745.399    498.807
 58.670   1334.703   1270.146     64.557    498.898    970.156    498.898    798.837    498.898
 58.770   1408.000   1405.377      2.623    498.989   1055.819    498.989    848.508    498.989
 58.870   1536.000   1514.602     21.398    499.080   1128.548    499.080    885.113    499.080
 58.970   1527.557   1581.243    -53.687    499.172   1181.184    499.172    899.232    499.172
 59.070   1636.000   1593.776     42.224    499.265   1206.494    499.265    886.570    499.265
 59.170   1521.000   1551.256    -30.256    499.358   1199.577    499.358    851.077    499.358
 59.270   1494.000   1466.528     27.472    499.452   1163.983    499.452    802.041    499.452
 59.370   1410.308   1361.760     48.548    499.547   1112.505    499.547    748.833    499.547
 59.470   1310.719   1259.746     50.972    499.642   1061.262    499.642    698.132    499.642
 59.570   1207.313   1179.479     27.834    499.738   1025.437    499.738    653.749    499.738
 59.670   1091.555   1136.704    -45.149    499.834   1019.156    499.834    617.305    499.834
 59.770   1166.874   1143.159     23.715    499.930   1054.045    499.930    588.913    499.930
 59.870   1234.000   1201.886     32.114    500.027   1133.987    500.027    567.739    500.027
 59.970   1327.000   1302.569     24.431    500.125   1249.981    500.125    552.472    500.125
 60.070   1493.000   1420.195     72.805    500.223   1378.442    500.223    541.696    500.223
 60.170   1568.000   1517.918     50.082    500.322   1483.811    500.322    534.137    500.322
 60.270   1597.000   1556.806     40.194    500.421   1528.178    500.421    528.780    500.421
 60.370   1502.000   1514.188    -12.188    500.521   1489.601    500.521    524.892    500.521
 60.470   1464.000   1397.388     66.612    500.621   1375.882    500.621    521.976    500.621
 60.570   1250.000   1236.474     13.526    500.721   1217.384    500.721    519.721    500.721
 60.670   1095.000   1066.067     28.933    500.822   1048.907    500.822    517.936    500.822
 60.770    876.479    912.977    -36.498    500.923    897.373    500.923    516.509    500.923
 60.870    821.000    792.063     28.937    501.025    777.706    501.025    515.377    501.025
 60.970    658.000    707.162    -49.162    501.127    693.785    501.127    514.501    501.127
 61.070    644.000    654.876    -10.876    501.230    642.238    501.230    513.862    501.230
 61.170    626.703    629.255     -2.552    501.333    617.132    501.333    513.445    501.333
 61.270    613.083    625.647    -12.564    501.436    613.829    501.436    513.235    501.436
 61.370    635.000    642.781     -7.781    501.539    631.079    501.539    513.210    501.539
 61.470    704.706    682.914     21.792    501.643    671.174    501.643    513.336    501.643
 61.570    724.000    750.241    -26.241    501.748    738.362    501.748    513.555    501.748
 61.670    858.000    847.898     10.102    501.852    835.866    501.852    513.783    501.852
 61.770    950.764    974.264    -23.500    501.957    962.183    501.957    513.906    501.957
 61.870   1131.869   1119.674     12.196    502.062   1107.761    502.062    513.814    502.062
 61.970   1197.000   1264.750    -67.750    502.168   1253.293    502.168    513.446    502.168
 62.070   1345.000   1381.666    -36.666    502.274   1370.935    502.274    512.827    502.274
 62.170   1422.000   1440.794    -18.794    502.380   1430.975    502.380    512.046    502.380
 62.270   1378.000   1424.150    -46.150    502.486   1415.318    502.486    511.207    502.486
 62.370   1407.718   1336.668     71.049    502.593   1328.803    502.593    510.394    502.593
 62.470   1160.000   1202.669    -42.669    502.700   1195.684    502.700    509.659    502.700
 62.570   1102.549   1052.149     50.400    502.807   1045.925    502.807    509.030    502.807
 62.670    884.000    909.924    -25.924    502.914    904.336    502.914    508.513    502.914
 62.770    707.000    791.333    -84.333    503.022    786.264    503.022    508.105    503.022
 62.870    668.000    702.189    -34.189    503.129    697.538    503.129    507.793    503.129
 62.970    603.000    641.037    -38.037    503.237    636.722    503.237    507.560    503.237
 63.070    604.000    602.391      1.609    503.345    598.349    503.345    507.391    503.345
 63.170    603.261    579.730     23.532    503.453    575.914    503.453    507.269    503.453
 63.270    553.431    567.448    -14.018    503.562    563.824    503.562    507.184    503.562
 63.370    519.771    561.693    -41.922    503.670    558.233    503.670    507.125    503.670
 63.470    579.000    560.425     18.575    503.779    557.110    503.779    507.087    503.779
 63.570    616.000    563.171     52.829    503.888    559.984    503.888    507.065    503.888
 63.670    573.000    570.739      2.261    503.997    567.666    503.997    507.056    503.997
 63.770    578.251    584.954     -6.703    504.106    581.982    504.106    507.058    504.106
 63.870    632.000    608.290     23.710    504.215    605.406    504.215    507.069    504.215
 63.970    671.000    643.259     27.741    504.324    640.451    504.324    507.088    504.324
 64.070    672.000    691.481    -19.481    504.433    688.739    504.433    507.115    504.433
 64.170    751.653    752.553     -0.900    504.542    749.867    504.542    507.148    504.542
 64.270    855.635    822.984     32.652    504.652    820.347    504.652    507.187    504.652
 64.370    881.000    895.516    -14.516    504.761    892.927    504.761    507.231    504.761
 64.470    967.833    959.383      8.450    504.870    956.845    504.870    507.280    504.870
 64.570   1010.388   1002.590      7.797    504.980   1000.109    504.980    507.334    504.980
 64.670   1061.000   1016.627     44.373    505.089   1014.211    505.089    507.392    505.089
 64.770   1058.000   1000.309     57.691    505.199    997.964    505.199    507.454    505.199
 64.870   1013.000    959.263     53.737    505.308    956.990    505.308    507.520    505.308
 64.970    905.558    902.882      2.676    505.417    900.677    505.417    507.590    505.417
 65.070    878.000    841.236     36.764    505.527    839.092    505.527    507.662    505.527
 65.170    794.391    782.375     12.016    505.636    780.282    505.636    507.738    505.636
 65.270    722.000    730.843     -8.843    505.745    728.793    505.745    507.816    505.745
 65.370    676.000    687.963    -11.963    505.855    685.946    505.855    507.897    505.855
 65.470    609.861    653.246    -43.385    505.964    651.255    505.964    507.981    505.964
 65.570    668.005    625.696     42.309    506.073    623.724    506.073    508.067    506.073
 65.670    620.000    604.310     15.690    506.182    602.353    506.182    508.156    506.182
 65.770    578.000    588.124    -10.124    506.290    586.179    506.290    508.247    506.290
 65.870    567.922    576.252     -8.330    506.399    574.318    506.399    508.340    506.399
 65.970    579.609    567.922     11.686    506.507    565.998    506.507    508.435    506.507
 66.070    539.000    562.481    -23.481    506.616    560.566    506.616    508.533    506.616
 66.170    540.000    559.376    -19.376    506.724    557.468    506.724    508.632    506.724
 66.270    542.919    558.152    -15.234    506.832    556.250    506.832    508.734    506.832
 66.370    542.000    558.474    -16.474    506.940    556.577    506.940    508.837    506.940
 66.470    606.446    560.159     46.287    507.048    558.264    507.048    508.943    507.048
 66.570    544.000    563.238    -19.238    507.155    561.344    507.155    509.050    507.155
 66.670    596.000    568.067     27.933    507.263    566.171    507.263    509.160    507.263
 66.770    549.000    575.523    -26.523    507.370    573.623    507.370    509.271    507.370
 66.870    577.000    587.349    -10.349    507.477    585.441    507.477    509.385    507.477
 66.970    566.000    606.621    -40.621    507.583    604.703    507.583    509.500    507.583
 67.070    636.768    638.275     -1.507    507.690    636.344    507.690    509.618    507.690
 67.170    691.267    689.437      1.829    507.796    687.488    507.796    509.737    507.796
 67.270    779.018    769.173      9.845    507.902    767.203    507.902    509.859    507.902
 67.370    848.000    887.224    -39.224    508.007    885.231    508.007    509.984    508.007
 67.470   1071.000   1051.474     19.526    508.113   1049.459    508.113    510.110    508.113
 67.570   1302.220   1264.366     37.853    508.218   1262.334    508.218    510.239    508.218
 67.670   1460.914   1519.075    -58.161    508.322   1517.035    508.322    510.369    508.322
 67.770   1757.000   1796.583    -39.583    508.427   1794.546    508.427    510.503    508.427
 67.870   2081.954   2064.755     17.199    508.531   2062.733    508.531    510.641    508.531
 67.970   2281.000   2280.901      0.099    508.635   2278.908    508.635    510.781    508.635
 68.070   2387.000   2400.797    -13.797    508.738   2398.836    508.738    510.925    508.738
 68.170   2365.535   2395.450    -29.915    508.841   2393.507    508.841    511.072    508.841
 68.270   2237.000   2266.336    -29.336    508.944   2264.384    508.944    511.224    508.944
 68.370   1962.393   2044.486    -82.092    509.046   2042.485    509.046    511.379    509.046
 68.470   1744.016   1774.484    -30.468    509.148   1772.402    509.148    511.539    509.148
 68.570   1454.790   1498.316    -43.526    509.249   1496.127    509.249    511.703    509.249
 68.670   1279.000   1247.035     31.965    509.350   1244.726    509.350    511.873    509.350
 68.770   1003.000   1038.562    -35.562    509.451   1036.125    509.451    512.048    509.451
 68.870    902.000    878.809     23.191    509.551    876.246    509.551    512.230    509.551
 68.970    794.000    764.731     29.269    509.651    762.042    509.651    512.418    509.651
 69.070    687.000    688.166     -1.166    509.750    685.354    509.750    512.614    509.750
 69.170    668.000    639.358     28.642    509.849    636.422    509.849    512.818    509.849
 69.270    641.140    609.371     31.769    509.948    606.309    509.948    513.031    509.948
 69.370    621.303    591.258     30.044    510.046    588.063    510.046    513.255    510.046
 69.470    616.000    580.238     35.762    510.143    576.901    510.143    513.490    510.143
 69.570    622.000    573.331     48.669    510.240    569.841    510.240    513.737    510.240
 69.670    564.259    568.827     -4.569    510.336    565.170    510.336    513.999    510.336
 69.770    598.000    565.810     32.190    510.432    561.969    510.432    514.276    510.432
 69.870    583.000    563.808     19.192    510.528    559.767    510.528    514.572    510.528
 69.970    594.000    562.593     31.407    510.623    558.329    510.623    514.888    510.623
 70.070    582.000    562.056     19.944    510.717    557.547    510.717    515.227    510.717
 70.170    576.697    562.165     14.532    510.811    557.384    510.811    515.592    510.811
 70.270    578.000    562.951     15.049    510.904    557.866    510.904    515.988    510.904
 70.370    548.000    564.525    -16.525    510.996    559.101    510.996    516.418    510.996
 70.470    534.848    567.131    -32.282    511.088    561.327    511.088    516.889    511.088
 70.570    565.841    571.251     -5.410    511.180    565.019    511.180    517.407    511.180
 70.670    568.000    577.769     -9.769    511.271    571.051    511.271    517.981    511.271
 70.770    592.000    588.192      3.808    511.361    580.919    511.361    518.622    511.361
 70.870    596.445    604.935     -8.490    511.450    597.022    511.450    519.347    511.450
 70.970    597.909    631.535    -33.626    511.539    622.870    511.539    520.177    511.539
 71.070    634.000    672.693    -38.693    511.628    663.130    511.628    521.151    511.628
 71.170    699.000    733.947    -34.947    511.715    723.280    511.715    522.323    511.715
 71.270    816.000    820.788     -4.788    511.802    808.722    511.802    523.785    511.802
 71.370    937.000    937.200     -0.200    511.889    923.299    511.889    525.678    511.889
 71.470   1123.251   1083.806     39.445    511.974   1067.422    511.974    528.215    511.974
 71.570   1313.107   1256.024     57.084    512.059   1236.203    512.059    531.708    512.059
 71.670   1513.143   1442.762     70.381    512.143   1418.128    512.143    536.581    512.143
 71.770   1544.000   1626.087    -82.087    512.227   1594.727    512.227    543.379    512.227
 71.870   1718.000   1782.458    -64.458    512.310   1741.824    512.310    552.740    512.310
 71.970   1919.000   1886.795     32.205    512.392   1833.675    512.392    565.330    512.392
 72.070   1938.204   1920.373     17.830    512.473   1850.959    512.473    581.740    512.473
 72.170   1857.000   1879.489    -22.489    512.554   1789.607    512.554    602.329    512.554
 72.270   1792.789   1777.572     15.217    512.634   1663.081    512.634    627.055    512.634
 72.370   1666.753   1638.248     28.505    512.713   1495.625    512.713    655.296    512.713
 72.470   1528.544   1485.854     42.690    512.791   1312.937    512.791    685.688    512.791
 72.570   1299.740   1339.386    -39.646    512.869   1136.259    512.869    715.987    512.869
 72.670   1151.000   1210.201    -59.201    512.946    980.117    512.946    743.027    512.946
 72.770   1166.765   1102.086     64.679    513.022    852.115    513.022    762.992    513.022
 72.870   1000.000   1013.126    -13.126    513.097    753.899    513.097    772.321    513.097
 72.970    981.367    938.808     42.559    513.171    682.861    513.171    769.116    513.171
 73.070    904.210    874.908     29.302    513.245    634.063    513.245    754.088    513.245
 73.170    752.000    818.789    -66.789    513.317    601.932    513.317    730.172    513.317
 73.270    739.411    769.213    -29.802    513.389    581.408    513.389    701.193    513.389
 73.370    694.620    725.733    -31.113    513.460    568.511    513.460    670.682    513.460
 73.470    666.000    688.246    -22.246    513.530    560.443    513.530    641.333    513.530
 73.570    647.000    656.753     -9.753    513.600    555.426    513.600    614.928    513.600
 73.670    610.000    631.190    -21.190    513.668    552.430    513.668    592.433    513.668
 73.770    596.000    611.317    -15.317    513.736    550.909    513.736    574.151    513.736
 73.870    582.000    596.674    -14.674    513.802    550.589    513.802    559.898    513.802
 73.970    610.316    586.602     23.714    513.868    551.307    513.868    549.177    513.868
 74.070    552.450    580.299    -27.849    513.933    552.906    513.933    541.346    513.933
 74.170    586.839    576.881      9.958    513.997    555.162    513.997    535.741    513.997
 74.270    629.000    575.430     53.570    514.060    557.752    514.060    531.769    514.060
 74.370    615.737    575.032     40.705    514.122    560.244    514.122    528.946    514.122
 74.470    673.000    574.817     98.183    514.183    562.135    514.183    526.908    514.183
 74.570    636.000    574.045     61.955    514.243    562.938    514.243    525.395    514.243
 74.670    557.272    572.237    -14.965    514.303    562.352    514.303    524.233    514.303
 74.770    665.000    569.293     95.707    514.361    560.387    514.361    523.310    514.361
 74.870    653.000    565.471     87.529    514.418    557.374    514.418    522.554    514.418
 74.970    540.529    561.244    -20.715    514.475    553.831    514.475    521.920    514.475
 75.070    529.000    557.146    -28.146    514.530    550.323    514.530    521.379    514.530
 75.170    521.691    553.696    -32.005    514.584    547.388    514.584    520.912    514.584
 75.270    597.000    551.385     45.615    514.638    545.530    514.638    520.506    514.638
 75.370    572.825    550.690     22.136    514.690    545.237    514.690    520.150    514.690
 75.470    557.025    552.105      4.920    514.741    547.011    514.741    519.837    514.741
 75.570    567.000    556.154     10.846    514.792    551.381    514.792    519.562    514.792
 75.670    605.000    563.360     41.640    514.841    558.874    514.841    519.318    514.841
 75.770    599.059    574.168     24.890    514.889    569.940    514.889    519.101    514.889
 75.870    568.000    588.807    -20.807    514.936    584.811    514.936    518.909    514.936
 75.970    620.048    607.119     12.930    514.983    603.331    514.983    518.737    514.983
 76.070    602.273    628.392    -26.119    515.028    624.794    515.028    518.584    515.028
 76.170    647.000    651.252     -4.252    515.072    647.826    515.072    518.447    515.072
 76.270    699.000    673.636     25.364    515.115    670.368    515.115    518.325    515.115
 76.370    663.000    692.890    -29.890    515.156    689.769    515.156    518.215    515.156
 76.470    730.000    706.112     23.888    515.197    703.129    515.197    518.116    515.197
 76.570    679.119    710.871    -31.752    515.237    708.019    515.237    518.027    515.237
 76.670    661.000    706.150    -45.150    515.276    703.422    515.276    517.947    515.276
 76.770    664.000    692.843    -28.843    515.313    690.234    515.313    517.875    515.313
 76.870    625.994    673.308    -47.314    515.349    670.810    515.349    517.809    515.349
 76.970    667.000    650.424     16.576    515.385    648.029    515.385    517.750    515.385
 77.070    638.000    626.851     11.149    515.419    624.552    515.419    517.697    515.419
 77.170    607.000    604.666      2.334    515.452    602.454    515.452    517.648    515.452
 77.270    580.000    585.241     -5.241    515.484    583.110    515.484    517.604    515.484
 77.370    581.222    569.262     11.960    515.514    567.206    515.514    517.564    515.514
 77.470    521.000    556.833    -35.833    515.544    554.846    515.544    517.528    515.544
 77.570    588.488    547.641     40.847    515.572    545.716    515.572    517.494    515.572
 77.670    515.000    541.136    -26.136    515.600    539.270    515.600    517.464    515.600
 77.770    538.465    536.701      1.764    515.626    534.889    515.626    517.436    515.626
 77.870    532.000    533.756     -1.756    515.651    531.995    515.651    517.410    515.651
 77.970    536.000    531.826      4.174    515.674    530.113    515.674    517.386    515.674
 78.070    567.806    530.541     37.265    515.697    528.873    515.697    517.364    515.697
 78.170    515.515    529.673    -14.158    515.718    528.046    515.718    517.344    515.718
 78.270    537.000    529.096      7.904    515.738    527.508    515.738    517.325    515.738
 78.370    535.000    528.698      6.302    515.757    527.147    515.757    517.308    515.757
 78.470    524.000    528.425     -4.425    515.775    526.908    515.775    517.292    515.775
 78.570    510.000    528.259    -18.259    515.791    526.772    515.791    517.277    515.791
 78.670    568.401    528.192     40.209    515.807    526.735    515.807    517.263    515.807
 78.770    504.000    528.233    -24.233    515.821    526.803    515.821    517.251    515.821
 78.870    531.000    528.399      2.601    515.833    526.992    515.833    517.240    515.833
 78.970    566.931    528.715     38.216    515.845    527.328    515.845    517.230    515.845
 79.070    534.000    529.209      4.791    515.855    527.839    515.855    517.223    515.855
 79.170    510.000    529.912    -19.912    515.864    528.556    515.864    517.219    515.864
 79.270    495.485    530.855    -35.370    515.872    529.507    515.872    517.218    515.872
 79.370    521.000    532.066    -11.066    515.879    530.721    515.879    517.222    515.879
 79.470    515.000    533.574    -18.574    515.884    532.224    515.884    517.231    515.884
 79.570    511.175    535.415    -24.240    515.888    534.052    515.888    517.247    515.888
 79.670    520.000    537.644    -17.644    515.891    536.260    515.891    517.270    515.891
 79.770    554.000    540.354     13.646    515.892    538.940    515.892    517.302    515.892
 79.870    587.926    543.699     44.227    515.892    542.244    515.892    517.342    515.892
 79.970    523.000    547.917    -24.917    515.891    546.413    515.891    517.391    515.891
 80.070    517.910    553.359    -35.450    515.889    551.797    515.889    517.447    515.889
 80.170    558.439    560.482     -2.043    515.885    558.857    515.885    517.508    515.885
 80.270    579.000    569.799      9.201    515.880    568.109    515.880    517.570    515.880
 80.370    546.000    581.779    -35.779    515.874    580.027    515.874    517.628    515.874
 80.470    563.000    596.719    -33.719    515.866    594.915    515.866    517.676    515.866
 80.570    581.000    614.633    -33.633    515.857    612.793    515.857    517.706    515.857
 80.670    619.000    635.158    -16.158    515.847    633.307    515.847    517.713    515.847
 80.770    675.000    657.511     17.489    515.835    655.676    515.835    517.691    515.835
 80.870    640.000    680.511    -40.511    515.822    678.720    515.822    517.640    515.822
 80.970    694.000    702.708     -8.708    515.808    700.985    515.808    517.565    515.808
 81.070    760.787    722.594     38.193    515.793    720.956    515.793    517.472    515.793
 81.170    775.000    738.805     36.195    515.776    737.261    515.776    517.368    515.776
 81.270    711.000    750.253    -39.253    515.757    748.805    515.757    517.260    515.757
 81.370    704.295    756.216    -51.921    515.738    754.861    515.738    517.153    515.738
 81.470    768.000    756.424     11.576    515.717    755.155    515.717    517.051    515.717
 81.570    747.000    751.074     -4.074    515.694    749.881    515.694    516.955    515.694
 81.670    703.231    740.757    -37.526    515.671    739.631    515.671    516.867    515.671
 81.770    754.000    726.413     27.587    515.646    725.342    515.646    516.787    515.646
 81.870    730.000    709.279     20.721    515.619    708.253    515.619    516.715    515.619
 81.970    692.000    690.719      1.281    515.592    689.728    515.592    516.649    515.592
 82.070    646.000    671.949    -25.949    515.563    670.985    515.563    516.590    515.563
 82.170    671.000    653.820     17.180    515.532    652.877    515.532    516.535    515.532
 82.270    643.000    636.780      6.220    515.500    635.852    515.500    516.484    515.500
 82.370    574.988    620.990    -46.002    515.467    620.073    515.467    516.435    515.467
 82.470    620.000    606.515     13.485    515.432    605.605    515.432    516.388    515.432
 82.570    567.288    593.451    -26.164    515.396    592.546    515.396    516.342    515.396
 82.670    591.522    581.959      9.562    515.359    581.056    515.359    516.296    515.359
 82.770    577.000    572.222      4.778    515.320    571.318    515.320    516.250    515.320
 82.870    566.000    564.405      1.595    515.280    563.500    515.280    516.204    515.280
 82.970    571.000    558.640     12.360    515.238    557.733    515.238    516.157    515.238
 83.070    577.000    555.003     21.997    515.195    554.093    515.195    516.110    515.195
 83.170    580.000    553.497     26.503    515.151    552.583    515.151    516.062    515.151
 83.270    558.000    554.030      3.970    515.105    553.112    515.105    516.013    515.105
 83.370    558.000    556.391      1.609    515.058    555.468    515.058    515.963    515.058
 83.470    527.000    560.238    -33.238    515.010    559.309    515.010    515.912    515.010
 83.570    569.000    565.096      3.904    514.960    564.162    514.960    515.861    514.960
 83.670    562.000    570.374     -8.374    514.908    569.436    514.908    515.808    514.908
 83.770    535.023    575.392    -40.369    514.855    574.450    514.855    515.754    514.855
 83.870    601.000    579.435     21.565    514.801    578.491    514.801    515.699    514.801
 83.970    611.650    581.848     29.802    514.746    580.903    514.746    515.644    514.746
 84.070    622.444    582.171     40.273    514.689    581.227    514.689    515.587    514.689
 84.170    563.000    580.267    -17.267    514.630    579.325    514.630    515.529    514.630
 84.270    533.000    576.355    -43.355    514.570    575.416    514.570    515.470    514.570
 84.370    552.000    570.920    -18.920    514.509    569.986    514.509    515.410    514.509
 84.470    589.000    564.567     24.433    514.446    563.636    514.446    515.349    514.446
 84.570    537.000    557.887    -20.887    514.382    556.960    514.382    515.286    514.382
 84.670    510.634    551.385    -40.751    514.317    550.460    514.317    515.223    514.317
 84.770    588.149    545.440     42.709    514.250    544.517    514.250    515.159    514.250
 84.870    487.000    540.295    -53.295    514.182    539.372    514.182    515.093    514.182
 84.970    534.000    536.061     -2.061    514.112    535.138    514.112    515.026    514.112
 85.070    492.000    532.744    -40.744    514.041    531.819    514.041    514.959    514.041
 85.170    526.000    530.270     -4.270    513.968    529.342    513.968    514.890    513.968
 85.270    556.577    528.524     28.053    513.894    527.594    513.894    514.820    513.894
 85.370    555.000    527.381     27.619    513.819    526.446    513.819    514.749    513.819
 85.470    529.000    526.725      2.275    513.742    525.785    513.742    514.677    513.742
 85.570    541.000    526.467     14.533    513.664    525.522    513.664    514.604    513.664
 85.670    485.000    526.558    -41.558    513.584    525.606    513.584    514.530    513.584
 85.770    513.000    526.987    -13.987    513.503    526.029    513.503    514.455    513.503
 85.870    530.000    527.791      2.209    513.420    526.825    513.420    514.379    513.420
 85.970    527.000    529.048     -2.048    513.336    528.074    513.336    514.301    513.336
 86.070    498.840    530.879    -32.039    513.251    529.895    513.251    514.223    513.251
 86.170    491.899    533.441    -41.542    513.164    532.446    513.164    514.144    513.164
 86.270    545.000    536.916      8.084    513.076    535.909    513.076    514.063    513.076
 86.370    531.795    541.493     -9.698    512.986    540.471    512.986    513.982    512.986
 86.470    530.000    547.335    -17.335    512.895    546.297    512.895    513.900    512.895
 86.570    573.000    554.550     18.450    512.803    553.495    512.803    513.817    512.803
 86.670    544.000    563.146    -19.146    512.709    562.071    512.709    513.732    512.709
 86.770    581.000    572.991      8.009    512.614    571.894    512.614    513.647    512.614
 86.870    590.227    583.779      6.447    512.517    582.660    512.517    513.561    512.517
 86.970    582.000    595.007    -13.007    512.419    593.865    512.419    513.475    512.419
 87.070    583.288    606.012    -22.724    512.320    604.847    512.320    513.387    512.320
 87.170    634.000    615.966     18.034    512.219    614.780    512.219    513.298    512.219
 87.270    656.758    623.950     32.808    512.117    622.745    512.117    513.209    512.117
 87.370    566.000    629.115    -63.115    512.013    627.895    512.013    513.119    512.013
 87.470    607.253    630.874    -23.621    511.908    629.642    511.908    513.028    511.908
 87.570    654.000    629.073     24.927    511.801    627.833    511.801    512.937    511.801
 87.670    659.000    624.038     34.962    511.694    622.793    511.694    512.845    511.694
 87.770    680.000    616.474     63.526    511.584    615.224    511.584    512.752    511.584
 87.870    637.000    607.289     29.711    511.474    606.035    511.474    512.659    511.474
 87.970    605.000    597.444      7.556    511.362    596.185    511.362    512.565    511.362
 88.070    545.000    587.853    -42.853    511.248    586.588    511.248    512.471    511.248
 88.170    606.780    579.307     27.473    511.133    578.034    511.133    512.377    511.133
 88.270    596.000    572.434     23.566    511.017    571.150    511.017    512.282    511.017
 88.370    568.000    567.669      0.331    510.900    566.372    510.900    512.187    510.900
 88.470    557.000    565.246     -8.246    510.781    563.934    510.781    512.091    510.781
 88.570    579.000    565.202     13.798    510.661    563.873    510.661    511.996    510.661
 88.670    553.000    567.384    -14.384    510.539    566.036    510.539    511.901    510.539
 88.770    600.000    571.469     28.531    510.416    570.101    510.416    511.805    510.416
 88.870    604.000    576.984     27.016    510.292    575.594    510.292    511.711    510.292
 88.970    612.000    583.327     28.673    510.166    581.914    510.166    511.616    510.166
 89.070    569.000    589.799    -20.799    510.039    588.361    510.039    511.522    510.039
 89.170    617.645    595.644     22.000    509.910    594.178    509.910    511.428    509.910
 89.270    579.000    600.116    -21.116    509.781    598.619    509.781    511.336    509.781
 89.370    595.000    602.573     -7.573    509.650    601.041    509.650    511.244    509.650
 89.470    633.386    602.605     30.780    509.517    601.033    509.517    511.154    509.517
 89.570    634.375    600.128     34.247    509.383    598.511    509.383    511.065    509.383
 89.670    610.673    595.392     15.281    509.248    593.725    509.248    510.978    509.248
 89.770    588.000    588.896     -0.896    509.112    587.174    509.112    510.893    509.112
 89.870    520.000    581.255    -61.255    508.974    579.473    508.974    510.810    508.974
 89.970    561.612    573.088    -11.476    508.835    571.240    508.835    510.730    508.835
 90.070    608.964    564.944     44.019    508.695    563.025    508.695    510.654    508.695
 90.170    585.705    557.265     28.440    508.553    555.270    508.553    510.581    508.553
 90.270    486.000    550.365    -64.365    508.410    548.290    508.410    510.511    508.410
 90.370    578.052    544.437     33.615    508.266    542.277    508.266    510.447    508.266
 90.470    506.260    539.559    -33.299    508.121    537.305    508.121    510.390    508.121
 90.570    529.750    535.716     -5.965    507.974    533.360    507.974    510.341    507.974
 90.670    531.000    532.826     -1.826    507.826    530.358    507.826    510.301    507.826
 90.770    548.000    530.773     17.227    507.677    528.182    507.677    510.274    507.677
 90.870    494.000    529.432    -35.432    507.526    526.700    507.526    510.261    507.526
 90.970    486.735    528.686    -41.951    507.374    525.793    507.374    510.269    507.374
 91.070    505.300    528.441    -23.141    507.221    525.360    507.221    510.302    507.221
 91.170    522.213    528.607     -6.394    507.067    525.302    507.067    510.371    507.067
 91.270    505.000    529.240    -24.240    506.911    525.666    506.911    510.484    506.911
 91.370    551.935    530.365     21.570    506.755    526.459    506.755    510.658    506.755
 91.470    546.807    532.051     14.757    506.597    527.735    506.597    510.909    506.597
 91.570    548.000    534.434     13.566    506.437    529.606    506.437    511.260    506.437
 91.670    533.967    537.691     -3.724    506.277    532.224    506.277    511.737    506.277
 91.770    537.000    542.043     -5.043    506.115    535.778    506.115    512.371    506.115
 91.870    560.000    547.740     12.260    505.953    540.486    505.953    513.194    505.953
 91.970    529.134    555.047    -25.913    505.789    546.578    505.789    514.241    505.789
 92.070    557.000    564.217     -7.217    505.623    554.273    505.623    515.546    505.623
 92.170    611.707    575.467     36.240    505.457    563.757    505.457    517.140    505.457
 92.270    583.000    588.943     -5.943    505.289    575.154    505.289    519.046    505.289
 92.370    594.000    604.689    -10.689    505.121    588.494    505.121    521.276    505.121
 92.470    636.000    622.616     13.384    504.951    603.693    504.951    523.828    504.951
 92.570    676.000    642.482     33.518    504.780    620.530    504.780    526.679    504.780
 92.670    659.000    663.873     -4.873    504.608    638.635    504.608    529.785    504.608
 92.770    714.000    686.195     27.805    504.435    657.488    504.435    533.075    504.435
 92.870    716.000    708.708      7.292    504.260    676.449    504.260    536.448    504.260
 92.970    764.688    730.571     34.117    504.085    694.812    504.085    539.768    504.085
 93.070    747.000    750.932     -3.932    503.908    711.893    503.908    542.869    503.908
 93.170    724.720    769.080    -44.360    503.731    727.179    503.731    545.552    503.731
 93.270    791.000    784.564      6.436    503.552    740.429    503.552    547.608    503.552
 93.370    779.000    797.241    -18.241    503.372    751.693    503.372    548.842    503.372
 93.470    809.000    807.237      1.763    503.191    761.234    503.191    549.118    503.191
 93.570    831.000    814.874     16.126    503.009    769.420    503.009    548.391    503.009
 93.670    782.258    820.607    -38.349    502.826    776.645    502.826    546.718    502.826
 93.770    883.000    825.004     57.996    502.642    783.329    502.642    544.250    502.642
 93.870    774.892    828.746    -53.854    502.457    789.955    502.457    541.183    502.457
 93.970    860.000    832.598     27.402    502.271    797.078    502.271    537.730    502.271
 94.070    869.000    837.309     31.691    502.084    805.250    502.084    534.082    502.084
 94.170    850.000    843.429      6.571    501.896    814.862    501.896    530.405    501.896
 94.270    878.000    851.140     26.860    501.707    825.962    501.707    526.828    501.707
 94.370    847.323    860.135    -12.812    501.517    838.150    501.517    523.448    501.517
 94.470    864.687    869.601     -4.914    501.326    850.545    501.326    520.332    501.326
 94.570    894.329    878.282     16.047    501.134    861.850    501.134    517.521    501.134
 94.670    915.000    884.622     30.378    500.941    870.490    500.941    515.034    500.941
 94.770    944.000    886.996     57.004    500.748    874.839    500.748    512.872    500.748
 94.870    848.692    884.014    -35.322    500.553    873.522    500.553    511.021    500.553
 94.970    935.000    874.850     60.150    500.357    865.736    500.357    509.456    500.357
 95.070    893.000    859.460     33.540    500.161    851.467    500.161    508.147    500.161
 95.170    821.000    838.606    -17.606    499.963    831.511    499.963    507.059    499.963
 95.270    843.000    813.682     29.318    499.765    807.297    499.765    506.156    499.765
 95.370    826.000    786.448     39.552    499.566    780.617    499.566    505.408    499.566
 95.470    761.000    758.856      2.144    499.366    753.448    499.366    504.785    499.366
 95.570    775.000    732.800     42.200    499.165    727.714    499.165    504.263    499.165
 95.670    662.204    710.054    -47.850    498.964    705.209    498.964    503.818    498.964
 95.770    705.768    692.221     13.547    498.761    687.553    498.761    503.434    498.761
 95.870    695.000    680.695     14.305    498.558    676.155    498.558    503.098    498.558
 95.970    718.000    676.665     41.335    498.354    672.213    498.354    502.799    498.354
 96.070    635.692    681.114    -45.422    498.149    676.720    498.149    502.529    498.149
 96.170    697.846    694.834      3.011    497.943    690.471    497.943    502.282    497.943
 96.270    730.000    718.407     11.593    497.737    714.054    497.737    502.056    497.737
 96.370    754.000    752.166      1.834    497.530    747.805    497.530    501.846    497.530
 96.470    816.000    796.125     19.875    497.322    791.740    497.322    501.651    497.322
 96.570    834.000    849.879    -15.879    497.114    845.454    497.114    501.470    497.114
 96.670    892.000    912.499    -20.499    496.904    908.022    496.904    501.302    496.904
 96.770    975.000    982.449     -7.449    496.695    977.909    496.695    501.146    496.695
 96.870   1087.227   1057.506     29.721    496.484   1052.892    496.484    501.003    496.484
 96.970   1175.685   1134.752     40.933    496.273   1130.054    496.273    500.872    496.273
 97.070   1241.000   1210.616     30.384    496.061   1205.823    496.061    500.754    496.061
 97.170   1300.329   1280.989     19.340    495.848   1276.093    495.848    500.648    495.848
 97.270   1393.265   1341.472     51.792    495.635   1336.464    495.635    500.557    495.635
 97.370   1407.704   1387.798     19.907    495.422   1382.667    495.422    500.480    495.422
 97.470   1390.916   1416.421    -25.504    495.207   1411.155    495.207    500.419    495.207
 97.570   1436.000   1425.167     10.833    494.993   1419.752    494.993    500.374    494.993
 97.670   1452.910   1413.673     39.237    494.777   1408.089    494.777    500.349    494.777
 97.770   1432.000   1383.404     48.596    494.561   1377.629    494.561    500.345    494.561
 97.870   1268.178   1337.268    -69.090    494.345   1331.275    494.345    500.365    494.345
 97.970   1280.893   1279.043      1.850    494.128   1272.799    494.128    500.413    494.128
 98.070   1184.955   1212.852    -27.896    493.911   1206.319    493.911    500.495    493.911
 98.170   1154.000   1142.783     11.217    493.693   1135.915    493.693    500.617    493.693
 98.270   1115.017   1072.649     42.368    493.474   1065.391    493.474    500.791    493.474
 98.370   1004.000   1005.839     -1.839    493.256    998.123    493.256    501.028    493.256
 98.470    919.000    945.241    -26.241    493.036    936.983    493.036    501.346    493.036
 98.570    865.461    893.222    -27.760    492.817    884.315    492.817    501.768    492.817
 98.670    888.000    851.652     36.348    492.597    841.961    492.597    502.324    492.597
 98.770    820.363    821.955     -1.592    492.376    811.308    492.376    503.051    492.376
 98.870    818.000    805.186     12.814    492.156    793.363    492.156    503.996    492.156
 98.970    838.317    802.100     36.217    491.934    788.825    491.934    505.216    491.934
 99.070    769.474    813.211    -43.736    491.713    798.140    491.713    506.781    491.713
 99.170    848.000    838.869      9.131    491.491    821.580    491.491    508.770    491.491
 99.270    825.000    879.200    -54.200    491.269    859.179    491.269    511.273    491.269
 99.370    962.654    934.074     28.580    491.047    910.713    491.047    514.386    491.047
 99.470   1001.000   1003.045     -2.045    490.825    975.634    490.825    518.211    490.825
 99.570   1110.453   1085.250     25.202    490.602   1052.979    490.602    522.849    490.602
 99.670   1218.000   1179.306     38.694    490.379   1141.274    490.379    528.390    490.379
 99.770   1273.495   1283.217     -9.723    490.156   1238.450    490.156    534.909    490.156
 99.870   1325.440   1394.315    -68.876    489.932   1341.789    489.932    542.456    489.932
 99.970   1520.615   1509.239     11.376    489.709   1447.915    489.709    551.046    489.709
100.070   1640.000   1624.011     15.989    489.485   1552.880    489.485    560.647    489.485
100.170   1812.000   1734.228     77.772    489.261   1652.368    489.261    571.176    489.261
100.270   1814.000   1835.395    -21.395    489.038   1742.027    489.038    582.485    489.038
100.370   1953.497   1923.326     30.172    488.814   1817.886    488.814    594.359    488.814
100.470   2028.000   1994.486     33.514    488.590   1876.700    488.590    606.508    488.590
100.570   2051.000   2046.156      4.844    488.366   1916.119    488.366    618.561    488.366
100.670   2030.000   2076.418    -46.418    488.141   1934.672    488.141    630.066    488.141
100.770   2210.000   2084.102    125.898    487.917   1931.713    487.917    640.503    487.917
100.870   2146.000   2068.890     77.110    487.693   1907.492    487.693    649.303    487.693
100.970   2062.000   2031.567     30.433    487.469   1863.356    487.469    655.899    487.469
101.070   2007.146   1974.271     32.875    487.245   1801.934    487.245    659.805    487.245
101.170   1896.269   1900.526     -4.257    487.021   1727.070    487.021    660.697    487.021
101.270   1891.915   1814.926     76.989    486.798   1643.451    486.798    658.484    486.798
101.370   1727.000   1722.592      4.408    486.574   1556.037    486.574    653.328    486.574
101.470   1629.000   1628.578      0.422    486.350   1469.505    486.350    645.608    486.350
101.570   1510.000   1537.385    -27.385    486.127   1387.837    486.127    635.844    486.127
101.670   1480.842   1452.639     28.202    485.904   1314.087    485.904    624.609    485.904
101.770   1334.000   1376.925    -42.925    485.681   1250.279    485.681    612.463    485.681
101.870   1322.000   1311.734     10.266    485.458   1197.403    485.458    599.910    485.458
101.970   1213.000   1257.493    -44.493    485.236   1155.459    485.236    587.378    485.236
102.070   1188.000   1213.663    -25.663    485.013   1123.560    485.013    575.214    485.013
102.170   1184.094   1178.870      5.224    484.792   1100.066    484.792    563.686    484.792
102.270   1123.619   1151.091    -27.472    484.570   1082.758    484.570    552.988    484.570
102.370   1069.000   1127.878    -58.878    484.349   1069.060    484.349    543.249    484.349
102.470   1098.000   1106.634     -8.634    484.128   1056.307    484.128    534.537    484.128
102.570   1020.997   1084.931    -63.934    483.907   1042.053    483.907    526.868    483.907
102.670   1038.000   1060.823    -22.823    483.687   1024.378    483.687    520.216    483.687
102.770   1078.000   1033.082     44.918    483.467   1002.111    483.467    514.525    483.467
102.870    997.000   1001.278     -4.278    483.248    974.900    483.248    509.712    483.248
102.970    906.598    965.687    -59.088    483.029    943.118    483.029    505.683    483.029
103.070    921.000    927.101     -6.101    482.811    907.657    482.811    502.338    482.811
103.170    857.438    886.604    -29.166    482.593    869.701    482.593    499.575    482.593
103.270    857.000    845.386     11.614    482.376    830.536    482.376    497.299    482.376
103.370    844.000    804.608     39.392    482.160    791.411    482.160    495.424    482.160
103.470    749.973    765.319    -15.346    481.944    753.450    481.944    493.873    481.944
103.570    772.000    728.394     43.606    481.728    717.596    481.728    492.580    481.728
103.670    662.000    694.503    -32.503    481.514    684.572    481.514    491.491    481.514
103.770    643.372    664.093    -20.721    481.300    654.870    481.300    490.562    481.300
103.870    681.000    637.397     43.603    481.086    628.758    481.086    489.759    481.086
103.970    604.000    614.454    -10.454    480.874    606.303    480.874    489.052    480.874
104.070    627.103    595.130     31.973    480.662    587.392    480.662    488.422    480.662
104.170    536.666    579.166    -42.500    480.451    571.783    480.451    487.852    480.451
104.270    527.467    566.239    -38.772    480.241    559.163    480.241    487.330    480.241
104.370    601.000    555.965     45.035    480.031    549.159    480.031    486.847    480.031
104.470    590.000    547.955     42.045    479.823    541.388    479.823    486.397    479.823
104.570    566.679    541.839     24.839    479.615    535.485    479.615    485.974    479.615
104.670    505.009    537.287    -32.278    479.408    531.123    479.408    485.575    479.408
104.770    547.000    534.014     12.986    479.202    528.021    479.202    485.197    479.202
104.870    539.000    531.796      7.204    478.998    525.956    478.998    484.837    478.998
104.970    558.000    530.460     27.540    478.794    524.758    478.794    484.494    478.794
105.070    488.431    529.891    -41.460    478.591    524.313    478.591    484.166    478.591
105.170    558.000    530.024     27.976    478.389    524.556    478.389    483.852    478.389
105.270    543.374    530.839     12.535    478.188    525.469    478.188    483.552    478.188
105.370    542.093    532.357      9.736    477.989    527.075    477.989    483.263    477.989
105.470    489.147    534.635    -45.487    477.790    529.429    477.790    482.986    477.790
105.570    565.000    537.755     27.245    477.593    532.617    477.593    482.719    477.593
105.670    585.855    541.818     44.036    477.397    536.738    477.397    482.463    477.397
105.770    583.000    546.929     36.071    477.202    541.898    477.202    482.217    477.202
105.870    566.669    553.183     13.486    477.008    548.192    477.008    481.980    477.008
105.970    597.000    560.650     36.350    476.816    555.692    476.816    481.752    476.816
106.070    544.000    569.359    -25.359    476.625    564.427    476.625    481.532    476.625
106.170    589.108    579.289      9.819    476.435    574.374    476.435    481.321    476.435
106.270    608.000    590.351     17.649    476.247    585.448    476.247    481.118    476.247
106.370    563.413    602.391    -38.978    476.060    597.492    476.060    480.923    476.060
106.470    641.000    615.181     25.819    475.874    610.282    475.874    480.735    475.874
106.570    576.000    628.425    -52.425    475.690    623.518    475.690    480.556    475.690
106.670    618.000    641.763    -23.763    475.507    636.843    475.507    480.383    475.507
106.770    652.593    654.785     -2.192    475.326    649.847    475.326    480.219    475.326
106.870    648.000    667.049    -19.049    475.147    662.088    475.147    480.061    475.147
106.970    626.000    678.109    -52.109    474.969    673.120    474.969    479.912    474.969
107.070    681.430    687.555     -6.124    474.792    682.533    474.792    479.769    474.792
107.170    691.000    695.061     -4.061    474.618    690.002    474.618    479.634    474.618
107.270    670.000    700.443    -30.443    474.445    695.341    474.445    479.507    474.445
107.370    656.000    703.697    -47.697    474.273    698.547    474.273    479.387    474.273
107.470    708.708    705.005      3.702    474.104    699.802    474.104    479.275    474.104
107.570    692.630    704.713    -12.083    473.936    699.450    473.936    479.170    473.936
107.670    676.000    703.262    -27.262    473.770    697.940    473.770    479.068    473.770
107.770    666.000    701.145    -35.145    473.606    695.752    473.606    478.980    473.606
107.870    740.859    698.814     42.045    473.443    693.342    473.443    478.900    473.443
107.970    666.000    696.652    -30.652    473.283    691.094    473.283    478.829    473.283
108.070    724.000    694.937     29.063    473.124    689.288    473.124    478.767    473.124
108.170    666.380    693.827    -27.447    472.968    688.078    472.968    478.714    472.968
108.270    738.000    693.347     44.653    472.813    687.491    472.813    478.671    472.813
108.370    673.000    693.392    -20.392    472.661    687.420    472.661    478.637    472.661
108.470    696.435    693.732      2.702    472.510    687.637    472.510    478.613    472.510
108.570    727.915    694.038     33.877    472.362    687.812    472.362    478.599    472.362
108.670    673.593    693.900    -20.307    472.216    687.543    472.216    478.586    472.216
108.770    723.208    692.914     30.294    472.072    686.408    472.072    478.595    472.072
108.870    652.000    690.680    -38.680    471.930    684.013    471.930    478.617    471.930
108.970    728.818    686.898     41.920    471.791    680.059    471.791    478.651    471.791
109.070    679.206    681.407     -2.201    471.653    674.384    471.653    478.699    471.653
109.170    661.000    674.204    -13.204    471.518    666.984    471.518    478.761    471.518
109.270    674.206    665.434      8.772    471.386    658.006    471.386    478.838    471.386
109.370    615.000    655.360    -40.360    471.256    647.709    471.256    478.931    471.256
109.470    640.000    644.312     -4.312    471.128    636.422    471.128    479.041    471.128
109.570    676.000    632.650     43.350    471.002    624.506    471.002    479.168    471.002
109.670    606.000    620.713    -14.713    470.880    612.299    470.880    479.314    470.880
109.770    594.861    608.869    -14.008    470.759    600.166    470.759    479.481    470.759
109.870    567.445    597.439    -29.994    470.642    588.427    470.642    479.670    470.642
109.970    540.396    586.659    -46.263    470.526    577.317    470.526    479.883    470.526
110.070    606.000    576.732     29.268    470.414    567.036    470.414    480.122    470.414
110.170    603.000    567.807     35.193    470.304    557.732    470.304    480.390    470.304
110.270    572.000    559.981     12.019    470.197    549.497    470.197    480.690    470.197
110.370    512.007    553.301    -41.294    470.093    542.373    470.093    481.027    470.093
110.470    534.000    547.769    -13.769    469.991    536.360    469.991    481.405    469.991
110.570    567.000    543.351     23.649    469.892    531.416    469.892    481.831    469.892
110.670    573.000    539.988     33.012    469.796    527.473    469.796    482.312    469.796
110.770    541.123    537.601      3.522    469.704    524.445    469.704    482.860    469.704
110.870    502.000    536.102    -34.102    469.614    522.229    469.614    483.485    469.614
110.970    572.549    535.402     37.147    469.526    520.722    469.526    484.204    469.526
111.070    551.830    535.417     16.413    469.443    519.820    469.443    485.036    469.443
111.170    509.335    536.072    -26.737    469.362    519.423    469.362    486.006    469.362
111.270    539.150    537.307      1.843    469.284    519.443    469.284    487.142    469.284
111.370    552.000    539.077     12.923    469.209    519.799    469.209    488.481    469.209
111.470    547.000    541.356      5.644    469.138    520.421    469.138    490.067    469.138
111.570    572.324    544.138     28.187    469.069    521.251    469.069    491.949    469.069
111.670    535.000    547.433    -12.433    469.004    522.242    469.004    494.188    469.004
111.770    546.000    551.277     -5.277    468.943    523.358    468.943    496.854    468.943
111.870    598.243    555.722     42.521    468.884    524.573    468.884    500.025    468.884
111.970    587.000    560.842     26.158    468.829    525.873    468.829    503.790    468.829
112.070    548.000    566.730    -18.730    468.778    527.254    468.778    508.244    468.778
112.170    596.344    573.494     22.850    468.730    528.723    468.730    513.491    468.730
112.270    552.000    581.258    -29.258    468.685    530.293    468.685    519.641    468.685
112.370    571.000    590.155    -19.155    468.644    531.988    468.644    526.802    468.644
112.470    615.000    600.324     14.676    468.607    533.837    468.607    535.084    468.607
112.570    635.000    611.906     23.094    468.573    535.881    468.573    544.587    468.573
112.670    624.000    625.038     -1.038    468.543    538.167    468.543    555.403    468.543
112.770    636.514    639.854     -3.340    468.517    540.756    468.517    567.604    468.517
112.870    654.000    656.480     -2.480    468.494    543.726    468.494    581.237    468.494
112.970    700.131    675.035     25.096    468.475    547.178    468.475    596.320    468.475
113.070    710.708    695.633     15.075    468.461    551.244    468.461    612.836    468.461
113.170    684.000    718.386    -34.386    468.450    556.099    468.450    630.721    468.450
113.270    741.000    743.413     -2.413    468.443    561.974    468.443    649.866    468.443
113.370    814.414    770.855     43.559    468.439    569.170    468.439    670.107    468.439
113.470    748.316    800.885    -52.570    468.440    578.083    468.440    691.223    468.440
113.570    829.992    833.733     -3.740    468.446    589.224    468.446    712.930    468.446
113.670    902.000    869.703     32.297    468.455    603.247    468.455    734.883    468.455
113.770    918.000    909.207      8.793    468.468    620.975    468.468    756.667    468.468
113.870    955.000    952.789      2.211    468.486    643.430    468.486    777.805    468.486
113.970    944.000   1001.156    -57.156    468.507    671.859    468.507    797.757    468.507
114.070   1027.000   1055.219    -28.219    468.534    707.757    468.534    815.937    468.534
114.170   1068.000   1116.122    -48.122    468.564    752.882    468.564    831.733    468.564
114.270   1126.368   1185.288    -58.921    468.599    809.255    468.599    844.544    468.599
114.370   1218.276   1264.450    -46.174    468.638    879.150    468.638    853.830    468.638
114.470   1431.000   1355.671     75.329    468.682    965.055    468.682    859.166    468.682
114.570   1481.000   1461.339     19.661    468.730   1069.614    468.730    860.295    468.730
114.670   1669.000   1584.110     84.890    468.783   1195.537    468.783    857.163    468.783
114.770   1744.000   1726.800     17.200    468.841   1345.484    468.841    849.926    468.841
114.870   1920.000   1892.216     27.784    468.903   1521.916    468.903    838.930    468.903
114.970   2177.000   2082.936     94.064    468.970   1726.923    468.970    824.664    468.970
115.070   2251.219   2301.066    -49.846    469.042   1962.034    469.042    807.705    469.042
115.170   2628.280   2547.983     80.298    469.119   2228.015    469.119    788.665    469.119
115.270   2801.000   2824.095    -23.095    469.200   2524.673    469.200    768.149    469.200
115.370   3068.000   3128.632    -60.632    469.286   2850.673    469.286    746.720    469.286
115.470   3461.897   3459.477      2.420    469.378   3203.390    469.378    724.891    469.378
115.570   3834.877   3813.055     21.822    469.474   3578.805    469.474    703.107    469.474
115.670   4198.860   4184.280     14.580    469.576   3971.454    469.576    681.749    469.576
115.770   4582.949   4566.575     16.374    469.682   4374.446    469.682    661.131    469.682
115.870   4662.000   4951.952   -289.952    469.794   4779.546    469.794    641.507    469.794
115.970   5290.000   5331.180    -41.180    469.911   5177.329    469.911    623.068    469.911
116.070   5469.000   5694.012   -225.012    470.033   5557.416    470.033    605.951    470.033
116.170   5879.000   6029.523   -150.523    470.161   5908.796    470.161    590.242    470.161
116.270   6230.000   6326.533    -96.533    470.294   6220.251    470.294    575.980    470.294
116.370   6629.544   6574.177     55.367    470.432   6480.914    470.432    563.167    470.432
116.470   6681.460   6762.595    -81.136    470.576   6680.959    470.576    551.767    470.576
116.570   7005.000   6883.720    121.280    470.725   6812.376    470.725    541.721    470.725
116.670   7003.000   6932.039     70.961    470.880   6869.730    470.880    532.946    470.880
116.770   7077.000   6905.209    171.791    471.041   6850.771    471.041    525.347    471.041
116.870   6828.000   6804.343     23.657    471.207   6756.712    471.207    518.817    471.207
116.970   6706.000   6633.777     72.223    471.379   6591.993    471.379    513.246    471.379
117.070   6461.250   6400.627     60.624    471.557   6363.835    471.557    508.525    471.557
117.170   6139.000   6114.037     24.963    471.740   6081.488    471.740    504.549    471.740
117.270   5854.797   5784.400     70.397    471.930   5755.440    471.930    501.215    471.930
117.370   5495.173   5422.630     72.543    472.125   5396.699    472.125    498.433    472.125
117.470   4915.000   5039.582   -124.582    472.327   5016.200    472.327    496.119    472.327
117.570   4603.000   4645.583    -42.583    472.534   4624.349    472.534    494.199    472.534
117.670   4451.000   4250.096    200.904    472.748   4230.672    472.748    492.607    472.748
117.770   3924.464   3861.462     63.002    472.967   3843.569    472.967    491.290    472.967
117.870   3600.000   3486.736    113.264    473.193   3470.143    473.193    490.199    473.193
117.970   3037.477   3131.595    -94.117    473.426   3116.111    473.426    489.295    473.426
118.070   2870.000   2800.316     69.684    473.664   2785.788    473.664    488.546    473.664
118.170   2446.801   2495.828    -49.026    473.909   2482.130    473.909    487.925    473.909
118.270   2236.000   2219.811     16.189    474.161   2206.841    474.161    487.411    474.161
118.370   1994.000   1972.837     21.163    474.419   1960.512    474.419    486.986    474.419
118.470   1732.993   1754.538    -21.545    474.683   1742.790    474.683    486.636    474.683
118.570   1527.000   1563.788    -36.788    474.954   1552.561    474.954    486.351    474.954
118.670   1325.913   1398.881    -72.968    475.232   1388.130    475.232    486.122    475.232
118.770   1214.000   1257.712    -43.712    475.516   1247.398    475.516    485.941    475.516
118.870   1134.970   1137.937     -2.967    475.807   1128.027    475.807    485.803    475.807
118.970    995.000   1037.112    -42.112    476.106   1027.578    476.106    485.705    476.106
119.070    925.000    952.817    -27.817    476.411    943.633    476.411    485.642    476.411
119.170    916.000    882.739     33.261    476.722    873.883    476.722    485.613    476.722
119.270    778.692    824.740    -46.049    477.041    816.192    477.041    485.614    477.041
119.370    764.705    776.898    -12.194    477.367    768.637    477.367    485.644    477.367
119.470    770.000    737.519     32.481    477.700    729.527    477.700    485.703    477.700
119.570    732.351    705.145     27.206    478.041    697.404    478.041    485.789    478.041
119.670    718.917    678.542     40.375    478.388    671.034    478.388    485.900    478.388
119.770    664.881    656.679      8.201    478.743    649.387    478.743    486.038    478.743
119.870    623.829    638.712    -14.883    479.105    631.617    479.105    486.202    479.105
119.970    628.000    623.951      4.049    479.475    617.036    479.475    486.391    479.475
120.070    595.196    611.845    -16.649    479.852    605.092    479.852    486.606    479.852
120.170    627.000    601.951     25.049    480.237    595.342    480.237    486.848    480.237
120.270    640.246    593.921     46.325    480.629    587.436    480.629    487.115    480.629
120.370    588.162    587.478      0.684    481.029    581.099    481.029    487.410    481.029
120.470    566.000    582.408    -16.408    481.436    576.113    481.436    487.733    481.436
120.570    552.384    578.542    -26.157    481.852    572.312    481.852    488.085    481.852
120.670    569.000    575.749     -6.749    482.275    569.561    482.275    488.467    482.275
120.770    618.951    573.927     45.024    482.706    567.759    482.706    488.878    482.706
120.870    582.000    572.995      9.005    483.145    566.825    483.145    489.321    483.145
120.970    580.000    572.888      7.112    483.593    566.691    483.593    489.796    483.593
121.070    580.744    573.553      7.191    484.048    567.305    484.048    490.304    484.048
121.170    558.000    574.941    -16.941    484.511    568.616    484.511    490.844    484.511
121.270    543.000    577.006    -34.006    484.983    570.581    484.983    491.418    484.983
121.370    632.000    579.702     52.298    485.463    573.151    485.463    492.025    485.463
121.470    568.000    582.978    -14.978    485.951    576.277    485.951    492.665    485.951
121.570    605.000    586.778     18.222    486.448    579.904    486.448    493.338    486.448
121.670    584.000    591.036     -7.036    486.953    583.967    486.953    494.041    486.953
121.770    573.034    595.681    -22.647    487.467    588.396    487.467    494.773    487.467
121.870    624.606    600.630     23.977    487.989    593.110    487.989    495.532    487.989
121.970    568.000    605.789    -37.789    488.520    598.020    488.520    496.315    488.520
122.070    589.000    611.058    -22.058    489.060    603.026    489.060    497.120    489.060
122.170    633.000    616.326     16.674    489.608    608.025    489.608    497.941    489.608
122.270    630.000    621.478      8.522    490.166    612.903    490.166    498.775    490.166
122.370    626.000    626.393     -0.393    490.732    617.546    490.732    499.617    490.732
122.470    583.039    630.952    -47.914    491.307    621.839    491.307    500.460    491.307
122.570    607.869    635.038    -27.169    491.892    625.673    491.892    501.299    491.892
122.670    608.000    638.544    -30.544    492.485    628.948    492.485    502.126    492.485
122.770    643.000    641.380      1.620    493.088    631.579    493.088    502.935    493.088
122.870    638.489    643.477     -4.989    493.700    633.506    493.700    503.719    493.700
122.970    616.000    644.793    -28.793    494.321    634.692    494.321    504.471    494.321
123.070    640.000    645.314     -5.314    494.952    635.130    494.952    505.185    494.952
123.170    626.978    645.055    -18.077    495.592    634.840    495.592    505.856    495.592
123.270    622.996    644.058    -21.062    496.242    633.867    496.242    506.481    496.242
123.370    641.287    642.384     -1.096    496.901    632.272    496.901    507.060    496.901
123.470    672.122    640.110     32.012    497.570    630.133    497.570    507.592    497.570
123.570    623.000    637.323    -14.323    498.249    627.534    498.249    508.081    498.249
123.670    596.265    634.117    -37.852    498.938    624.564    498.938    508.531    498.938
123.770    678.000    630.584     47.416    499.636    621.309    499.636    508.949    499.636
123.870    638.000    626.813     11.187    500.345    617.853    500.345    509.340    500.345
123.970    658.000    622.890     35.110    501.063    614.273    501.063    509.711    501.063
124.070    603.000    618.888    -15.888    501.792    610.638    501.792    510.070    501.792
124.170    654.000    614.873     39.127    502.530    607.006    502.530    510.423    502.530
124.270    610.000    610.899     -0.899    503.279    603.424    503.279    510.776    503.279
124.370    601.000    607.004     -6.004    504.038    599.927    504.038    511.134    504.038
124.470    639.000    603.221     35.779    504.808    596.540    504.808    511.505    504.808
124.570    618.000    599.568     18.432    505.588    593.278    505.588    511.892    505.588
124.670    621.000    596.052     24.948    506.379    590.144    506.379    512.299    506.379
124.770    534.000    592.676    -58.676    507.180    587.136    507.180    512.729    507.180
124.870    548.939    589.435    -40.496    507.992    584.248    507.992    513.186    507.992
124.970    595.000    586.317      8.683    508.814    581.467    508.814    513.670    508.814
