neutron_powder_diffraction_0148
R_wp: 3.864
Temperature (K): 1074.000
Counts: 83877.00
Wavelength (Ã…): 2.52098
COMMENTS
Test file for demonstrating the .xyy file format in Reel1.0
END OF HEADER
   tth       Y_obs     Y_calc      Y_res    Background    Phase_1_Nuc    Phase_1_Mag    Phase_2_Nuc    Phase_2_Mag
  9.970    593.000    577.873     15.127    577.140    577.809    577.140    577.204    577.140
 10.070    596.000    577.895     18.105    577.100    577.830    577.100    577.164    577.100
 10.170    585.000    577.917      7.083    577.055    577.852    577.055    577.120    577.055
 10.270    590.000    577.945     12.055    577.006    577.879    577.006    577.070    577.006
 10.370    578.000    577.980      0.020    576.952    577.915    576.952    577.017    576.952
 10.470    603.977    578.027     25.950    576.893    577.961    576.893    576.959    576.893
 10.570    608.000    578.089     29.911    576.831    578.022    576.831    576.896    576.831
 10.670    567.269    578.171    -10.902    576.764    578.104    576.764    576.830    576.764
 10.770    547.913    578.279    -30.366    576.692    578.212    576.692    576.758    576.692
 10.870    641.000    578.422     62.578    576.617    578.354    576.617    576.683    576.617
 10.970    574.000    578.613     -4.613    576.537    578.545    576.537    576.604    576.537
 11.070    616.022    578.870     37.151    576.453    578.802    576.453    576.520    576.453
 11.170    650.000    579.220     70.780    576.365    579.151    576.365    576.432    576.365
 11.270    614.732    579.703     35.029    576.273    579.633    576.273    576.341    576.273
 11.370    573.000    580.389     -7.389    576.177    580.319    576.177    576.245    576.177
 11.470    540.290    581.435    -41.144    576.077    581.363    576.077    576.145    576.077
 11.570    625.000    583.269     41.731    575.973    583.197    575.973    576.041    575.973
 11.670    579.000    587.092     -8.092    575.865    587.017    575.865    575.934    575.865
 11.770    626.000    595.626     30.374    575.753    595.546    575.753    575.823    575.753
 11.870    629.000    613.165     15.835    575.638    613.074    575.638    575.707    575.638
 11.970    683.770    642.921     40.849    575.519    642.813    575.519    575.588    575.519
 12.070    671.000    680.956     -9.956    575.396    680.825    575.396    575.466    575.396
 12.170    697.407    710.723    -13.317    575.269    710.576    575.269    575.339    575.269
 12.270    708.647    711.567     -2.920    575.139    711.418    575.139    575.210    575.139
 12.370    671.000    682.615    -11.615    575.005    682.483    575.005    575.076    575.005
 12.470    620.685    644.162    -23.477    574.868    644.051    574.868    574.939    574.868
 12.570    650.000    613.484     36.516    574.727    613.390    574.727    574.798    574.727
 12.670    587.000    595.092     -8.092    574.582    595.008    574.582    574.655    574.582
 12.770    622.179    585.957     36.223    574.435    585.878    574.435    574.507    574.435
 12.870    625.276    581.727     43.549    574.284    581.650    574.284    574.356    574.284
 12.970    547.000    579.578    -32.578    574.129    579.502    574.129    574.202    574.129
 13.070    596.995    578.252     18.743    573.971    578.176    573.971    574.045    573.971
 13.170    566.253    577.298    -11.045    573.810    577.222    573.810    573.884    573.810
 13.270    619.706    576.553     43.153    573.646    576.478    573.646    573.720    573.646
 13.370    552.738    575.945    -23.207    573.479    575.869    573.479    573.553    573.479
 13.470    544.000    575.432    -31.432    573.308    575.356    573.308    573.383    573.308
 13.570    542.000    574.987    -32.987    573.135    574.911    573.135    573.210    573.135
 13.670    617.368    574.592     42.775    572.958    574.516    572.958    573.034    572.958
 13.770    547.000    574.235    -27.235    572.778    574.158    572.778    572.854    572.778
 13.870    595.000    573.905     21.095    572.596    573.828    572.596    572.672    572.596
 13.970    608.000    573.597     34.403    572.410    573.520    572.410    572.487    572.410
 14.070    558.984    573.306    -14.322    572.222    573.228    572.222    572.299    572.222
 14.170    610.229    573.027     37.203    572.030    572.949    572.030    572.108    572.030
 14.270    594.070    572.758     21.312    571.836    572.680    571.836    571.914    571.836
 14.370    541.357    572.499    -31.141    571.639    572.420    571.639    571.717    571.639
 14.470    611.000    572.243     38.757    571.439    572.164    571.439    571.518    571.439
 14.570    590.000    571.995     18.005    571.237    571.916    571.237    571.316    571.237
 14.670    555.000    571.749    -16.749    571.032    571.669    571.032    571.111    571.032
 14.770    595.538    571.504     24.034    570.824    571.423    570.824    570.904    570.824
 14.870    589.587    571.260     18.327    570.614    571.180    570.614    570.694    570.614
 14.970    604.000    571.018     32.982    570.401    570.937    570.401    570.482    570.401
 15.070    526.547    570.776    -44.229    570.185    570.695    570.185    570.267    570.185
 15.170    590.000    570.535     19.465    569.968    570.453    569.968    570.049    569.968
 15.270    478.000    570.296    -92.296    569.747    570.212    569.747    569.831    569.747
 15.370    547.000    570.055    -23.055    569.525    569.970    569.525    569.610    569.525
 15.470    551.000    569.814    -18.814    569.299    569.728    569.299    569.385    569.299
 15.570    590.663    569.571     21.091    569.072    569.485    569.072    569.158    569.072
 15.670    546.000    569.328    -23.328    568.842    569.241    568.842    568.929    568.842
 15.770    567.000    569.084     -2.084    568.610    568.997    568.610    568.697    568.610
 15.870    551.000    568.839    -17.839    568.376    568.751    568.376    568.463    568.376
 15.970    559.000    568.593     -9.593    568.139    568.505    568.139    568.227    568.139
 16.070    592.000    568.345     23.655    567.901    568.257    567.901    567.989    567.901
 16.170    575.000    568.097      6.903    567.660    568.008    567.660    567.749    567.660
 16.270    569.000    567.847      1.153    567.417    567.758    567.417    567.507    567.417
 16.370    544.000    567.596    -23.596    567.172    567.506    567.172    567.262    567.172
 16.470    529.176    567.344    -38.168    566.925    567.253    566.925    567.016    566.925
 16.570    611.686    567.090     44.596    566.676    566.999    566.676    566.767    566.676
 16.670    569.000    566.835      2.165    566.425    566.743    566.425    566.517    566.425
 16.770    523.625    566.578    -42.953    566.172    566.486    566.172    566.265    566.172
 16.870    578.000    566.320     11.680    565.918    566.227    565.918    566.010    565.918
 16.970    560.896    566.061     -5.165    565.661    565.968    565.661    565.754    565.661
 17.070    582.000    565.803     16.197    565.402    565.709    565.402    565.496    565.402
 17.170    579.620    565.541     14.079    565.142    565.447    565.142    565.237    565.142
 17.270    571.000    565.278      5.722    564.880    565.183    564.880    564.975    564.880
 17.370    525.000    565.013    -40.013    564.616    564.917    564.616    564.712    564.616
 17.470    552.000    564.748    -12.748    564.351    564.651    564.351    564.447    564.351
 17.570    611.000    564.481     46.519    564.084    564.383    564.084    564.181    564.084
 17.670    564.116    564.212     -0.096    563.815    564.114    563.815    563.913    563.815
 17.770    567.000    563.942      3.058    563.545    563.843    563.545    563.643    563.545
 17.870    552.844    563.671    -10.827    563.273    563.572    563.273    563.372    563.273
 17.970    584.000    563.398     20.602    562.999    563.299    562.999    563.099    562.999
 18.070    552.687    563.125    -10.438    562.724    563.024    562.724    562.825    562.724
 18.170    539.000    562.851    -23.851    562.448    562.750    562.448    562.549    562.448
 18.270    587.242    562.576     24.666    562.170    562.474    562.170    562.272    562.170
 18.370    576.000    562.299     13.701    561.891    562.196    561.891    561.993    561.891
 18.470    565.000    562.021      2.979    561.610    561.917    561.610    561.713    561.610
 18.570    555.000    561.741     -6.741    561.328    561.637    561.328    561.432    561.328
 18.670    536.000    561.461    -25.461    561.045    561.356    561.045    561.149    561.045
 18.770    528.000    561.180    -33.180    560.760    561.074    560.760    560.865    560.760
 18.870    558.000    560.897     -2.897    560.474    560.791    560.474    560.580    560.474
 18.970    571.878    560.614     11.264    560.187    560.507    560.187    560.294    560.187
 19.070    569.000    560.330      8.670    559.898    560.222    559.898    560.006    559.898
 19.170    514.000    560.045    -46.045    559.609    559.936    559.609    559.718    559.609
 19.270    589.053    559.759     29.294    559.318    559.650    559.318    559.428    559.318
 19.370    566.000    559.473      6.527    559.026    559.362    559.026    559.137    559.026
 19.470    569.000    559.186      9.814    558.733    559.075    558.733    558.845    558.733
 19.570    575.000    558.912     16.088    558.439    558.800    558.439    558.552    558.439
 19.670    569.000    558.634     10.366    558.144    558.520    558.144    558.257    558.144
 19.770    542.000    558.345    -16.345    557.848    558.231    557.848    557.962    557.848
 19.870    593.000    558.055     34.945    557.551    557.940    557.551    557.666    557.551
 19.970    563.000    557.765      5.235    557.253    557.649    557.253    557.369    557.253
 20.070    570.490    557.474     13.016    556.954    557.357    556.954    557.071    556.954
 20.170    570.000    557.183     12.817    556.654    557.065    556.654    556.772    556.654
 20.270    541.000    556.891    -15.891    556.354    556.772    556.354    556.473    556.354
 20.370    543.000    556.608    -13.608    556.052    556.487    556.052    556.172    556.052
 20.470    569.000    556.400     12.600    555.750    556.278    555.750    555.871    555.750
 20.570    557.000    556.129      0.871    555.446    556.007    555.446    555.569    555.446
 20.670    581.868    555.838     26.029    555.142    555.714    555.142    555.266    555.142
 20.770    525.611    555.546    -29.935    554.838    555.421    554.838    554.963    554.838
 20.870    530.220    555.254    -25.034    554.532    555.127    554.532    554.659    554.532
 20.970    579.000    554.962     24.038    554.226    554.834    554.226    554.354    554.226
 21.070    571.000    554.670     16.330    553.920    554.541    553.920    554.048    553.920
 21.170    550.000    554.378     -4.378    553.612    554.248    553.612    553.742    553.612
 21.270    513.416    554.087    -40.671    553.304    553.955    553.304    553.436    553.304
 21.370    536.000    553.796    -17.796    552.996    553.663    552.996    553.129    552.996
 21.470    513.924    553.506    -39.583    552.687    553.372    552.687    552.821    552.687
 21.570    554.962    553.217      1.745    552.377    553.082    552.377    552.513    552.377
 21.670    596.261    552.930     43.332    552.067    552.792    552.067    552.204    552.067
 21.770    586.000    552.643     33.357    551.756    552.504    551.756    551.895    551.756
 21.870    508.000    552.360    -44.360    551.445    552.219    551.445    551.586    551.445
 21.970    580.144    552.082     28.062    551.133    551.940    551.133    551.276    551.133
 22.070    509.556    551.821    -42.265    550.821    551.677    550.821    550.966    550.821
 22.170    547.000    551.570     -4.570    550.509    551.424    550.509    550.655    550.509
 22.270    524.569    551.300    -26.731    550.196    551.152    550.196    550.344    550.196
 22.370    532.000    551.032    -19.032    549.883    550.882    549.883    550.033    549.883
 22.470    533.000    550.808    -17.808    549.570    550.657    549.570    549.722    549.570
 22.570    539.000    550.563    -11.563    549.256    550.409    549.256    549.410    549.256
 22.670    552.000    550.306      1.694    548.942    550.151    548.942    549.098    548.942
 22.770    567.000    550.055     16.945    548.628    549.897    548.628    548.786    548.628
 22.870    580.758    549.812     30.945    548.314    549.652    548.314    548.474    548.314
 22.970    560.000    549.579     10.421    547.999    549.417    547.999    548.162    547.999
 23.070    554.000    549.358      4.642    547.684    549.193    547.684    547.849    547.684
 23.170    527.241    549.151    -21.910    547.369    548.984    547.369    547.537    547.369
 23.270    570.000    548.963     21.037    547.054    548.793    547.054    547.225    547.054
 23.370    563.985    548.799     15.186    546.739    548.626    546.739    546.912    546.739
 23.470    559.000    548.666     10.334    546.423    548.490    546.423    546.600    546.423
 23.570    547.000    548.573     -1.573    546.108    548.394    546.108    546.287    546.108
 23.670    505.387    548.535    -43.148    545.793    548.353    545.793    545.975    545.793
 23.770    561.000    548.570     12.430    545.477    548.385    545.477    545.663    545.477
 23.870    546.000    548.711     -2.711    545.162    548.523    545.162    545.351    545.162
 23.970    550.341    549.018      1.322    544.846    548.828    544.846    545.039    544.846
 24.070    559.000    549.636      9.364    544.531    549.442    544.531    544.727    544.531
 24.170    588.680    550.961     37.719    544.215    550.764    544.215    544.416    544.215
 24.270    559.000    554.009      4.991    543.900    553.810    543.900    544.105    543.900
 24.370    586.000    560.799     25.201    543.585    560.601    543.585    543.794    543.585
 24.470    543.378    573.981    -30.604    543.270    573.789    543.270    543.483    543.270
 24.570    550.176    594.672    -44.496    542.955    594.489    542.955    543.173    542.955
 24.670    633.000    618.750     14.250    542.640    618.579    542.640    542.863    542.640
 24.770    618.000    634.557    -16.557    542.325    634.392    542.325    542.554    542.325
 24.870    641.000    630.690     10.310    542.011    630.517    542.011    542.245    542.011
 24.970    652.000    610.214     41.786    541.697    610.021    541.697    541.937    541.697
 25.070    556.205    585.994    -29.789    541.383    585.777    541.383    541.630    541.383
 25.170    601.000    567.168     33.832    541.069    566.932    541.069    541.323    541.069
 25.270    563.000    555.762      7.238    540.755    555.510    540.755    541.016    540.755
 25.370    528.000    549.877    -21.877    540.442    549.613    540.442    540.711    540.442
 25.470    524.000    546.986    -22.986    540.129    546.712    540.129    540.406    540.129
 25.570    535.000    545.422    -10.422    539.817    545.138    539.817    540.102    539.817
 25.670    543.000    544.412     -1.412    539.504    544.119    539.504    539.800    539.504
 25.770    554.000    543.664     10.336    539.193    543.360    539.193    539.498    539.193
 25.870    592.000    543.066     48.934    538.881    542.751    538.881    539.197    538.881
 25.970    530.000    542.574    -12.574    538.570    542.247    538.570    538.898    538.570
 26.070    586.000    542.174     43.826    538.259    541.834    538.259    538.600    538.259
 26.170    584.106    541.875     42.232    537.949    541.522    537.949    538.303    537.949
 26.270    580.017    541.609     38.408    537.640    541.241    537.640    538.008    537.640
 26.370    561.000    541.370     19.630    537.330    540.986    537.330    537.715    537.330
 26.470    529.000    541.178    -12.178    537.021    540.776    537.021    537.423    537.021
 26.570    538.360    541.037     -2.676    536.713    540.616    536.713    537.134    536.713
 26.670    546.000    540.950      5.050    536.405    540.508    536.405    536.847    536.405
 26.770    548.000    540.925      7.075    536.098    540.460    536.098    536.563    536.098
 26.870    536.000    540.974     -4.974    535.791    540.484    535.791    536.282    535.791
 26.970    547.000    541.124      5.876    535.485    540.606    535.485    536.004    535.485
 27.070    522.689    541.400    -18.711    535.180    540.850    535.180    535.729    535.180
 27.170    511.033    541.802    -30.768    534.875    541.217    534.875    535.459    534.875
 27.270    553.023    542.399     10.624    534.571    541.775    534.571    535.193    534.571
 27.370    558.000    543.274     14.726    534.267    542.606    534.267    534.933    534.267
 27.470    574.310    544.572     29.738    533.964    543.854    533.964    534.680    533.964
 27.570    496.000    546.677    -50.677    533.662    545.902    533.662    534.434    533.662
 27.670    522.659    550.971    -28.311    533.360    550.131    533.360    534.196    533.360
 27.770    556.000    562.162     -6.162    533.059    561.244    533.059    533.969    533.059
 27.870    552.361    592.135    -39.773    532.759    591.122    532.759    533.754    532.759
 27.970    645.649    659.229    -13.580    532.459    658.096    532.459    533.554    532.459
 28.070    762.000    771.263     -9.263    532.160    769.981    532.160    533.372    532.160
 28.170    903.000    896.133      6.867    531.862    894.686    531.862    533.212    531.862
 28.270    915.000    957.483    -42.483    531.565    955.871    531.565    533.082    531.565
 28.370    887.000    905.480    -18.480    531.269    903.700    531.269    532.989    531.269
 28.470    795.232    793.223      2.010    530.973    791.224    530.973    532.948    530.973
 28.570    657.000    706.266    -49.266    530.678    703.954    530.678    532.979    530.678
 28.670    678.682    689.089    -10.407    530.384    686.346    530.384    533.112    530.384
 28.770    746.000    736.600      9.400    530.091    733.279    530.091    533.393    530.091
 28.870    815.000    807.468      7.532    529.798    803.373    529.798    533.881    529.798
 28.970    822.000    840.798    -18.798    529.507    835.658    529.507    534.649    529.507
 29.070    851.218    800.870     50.348    529.216    794.319    529.216    535.780    529.216
 29.170    688.000    718.721    -30.721    528.927    710.315    528.927    537.345    528.927
 29.270    626.000    642.716    -16.716    528.638    631.985    528.638    539.377    528.638
 29.370    592.677    594.890     -2.212    528.350    581.443    528.350    541.800    528.350
 29.470    571.840    572.506     -0.667    528.063    556.246    528.063    544.324    528.063
 29.570    559.000    564.043     -5.043    527.777    545.480    527.777    546.339    527.777
 29.670    598.000    560.365     37.635    527.492    540.794    527.492    547.061    527.492
 29.770    523.855    557.161    -33.306    527.208    538.308    527.208    546.059    527.208
 29.870    568.789    553.428     15.361    526.925    536.698    526.925    543.653    526.925
 29.970    501.832    549.533    -47.702    526.643    535.567    526.643    540.608    526.643
 30.070    553.000    546.005      6.995    526.362    534.789    526.362    537.575    526.362
 30.170    578.000    543.161     34.839    526.082    534.341    526.082    534.899    526.082
 30.270    554.340    541.218     13.121    525.803    534.335    525.803    532.683    525.803
 30.370    563.000    540.605     22.395    525.525    535.214    525.525    530.911    525.525
 30.470    540.553    542.431     -1.878    525.248    538.156    525.248    529.516    525.248
 30.570    532.354    548.824    -16.470    524.972    545.368    524.972    528.416    524.972
 30.670    585.000    562.130     22.870    524.697    559.268    524.697    527.536    524.697
 30.770    588.000    582.211      5.789    524.423    579.784    524.423    526.813    524.423
 30.870    616.435    603.041     13.394    524.151    600.940    524.151    526.200    524.151
 30.970    625.000    612.532     12.468    523.879    610.691    523.879    525.664    523.879
 31.070    605.000    602.738      2.262    523.609    601.118    523.609    525.183    523.609
 31.170    600.000    581.023     18.977    523.340    579.591    523.340    524.743    523.340
 31.270    537.830    559.474    -21.644    523.072    558.196    523.072    524.333    523.072
 31.370    557.000    544.377     12.623    522.805    543.226    522.805    523.947    522.805
 31.470    507.174    536.024    -28.851    522.539    534.979    522.539    523.581    522.539
 31.570    556.412    532.045     24.367    522.274    531.087    522.274    523.230    522.274
 31.670    510.000    530.182    -20.182    522.011    529.298    522.011    522.893    522.011
 31.770    516.000    529.184    -13.184    521.749    528.364    521.749    522.567    521.749
 31.870    547.000    528.546     18.454    521.488    527.782    521.488    522.250    521.488
 31.970    523.000    528.099     -5.099    521.228    527.385    521.228    521.941    521.228
 32.070    495.000    527.787    -32.787    520.969    527.116    520.969    521.640    520.969
 32.170    526.568    527.588     -1.020    520.712    526.955    520.712    521.344    520.712
 32.270    524.000    527.495     -3.495    520.456    526.895    520.456    521.054    520.456
 32.370    578.000    527.508     50.492    520.201    526.938    520.201    520.770    520.201
 32.470    533.000    527.636      5.364    519.947    527.093    519.947    520.489    519.947
 32.570    538.000    527.894     10.106    519.695    527.375    519.695    520.213    519.695
 32.670    541.000    528.308     12.692    519.444    527.811    519.444    519.940    519.444
 32.770    518.465    528.916    -10.451    519.194    528.438    519.194    519.671    519.194
 32.870    550.000    529.771     20.229    518.946    529.310    518.946    519.405    518.946
 32.970    538.000    530.954      7.046    518.699    530.509    518.699    519.142    518.699
 33.070    550.077    532.591     17.486    518.453    532.161    518.453    518.882    518.453
 33.170    565.000    534.909     30.091    518.208    534.492    518.208    518.624    518.208
 33.270    518.000    538.441    -20.441    517.965    538.035    517.965    518.369    517.965
 33.370    540.000    544.651     -4.651    517.723    544.254    517.723    518.116    517.723
 33.470    535.000    557.420    -22.420    517.483    557.031    517.483    517.865    517.483
 33.570    651.000    585.211     65.789    517.243    584.826    517.243    517.617    517.243
 33.670    641.992    641.454      0.537    517.006    641.067    517.006    517.371    517.006
 33.770    740.000    738.312      1.688    516.769    737.917    516.769    517.127    516.769
 33.870    910.000    871.842     38.158    516.534    871.435    516.534    516.885    516.534
 33.970    971.721   1005.538    -33.817    516.300   1005.126    516.300    516.645    516.300
 34.070   1094.000   1070.941     23.059    516.068   1070.545    516.068    516.406    516.068
 34.170   1075.704   1021.851     53.853    515.837   1021.487    515.837    516.170    515.837
 34.270    878.000    894.436    -16.436    515.607    894.102    515.607    515.936    515.607
 34.370    740.000    757.535    -17.535    515.379    757.218    515.379    515.703    515.379
 34.470    646.000    653.389     -7.389    515.153    653.078    515.153    515.472    515.153
 34.570    633.421    590.428     42.994    514.927    590.117    514.927    515.243    514.927
 34.670    546.000    558.170    -12.170    514.703    557.860    514.703    515.016    514.703
 34.770    517.000    542.915    -25.915    514.481    542.606    514.481    514.790    514.481
 34.870    537.000    535.349      1.651    514.260    535.042    514.260    514.567    514.260
 34.970    533.000    530.949      2.051    514.040    530.645    514.040    514.344    514.040
 35.070    536.000    527.943      8.057    513.822    527.640    513.822    514.124    513.822
 35.170    560.405    525.681     34.724    513.606    525.381    513.606    513.905    513.606
 35.270    559.208    523.899     35.309    513.390    523.601    513.390    513.688    513.390
 35.370    550.000    522.455     27.545    513.177    522.158    513.177    513.473    513.177
 35.470    556.000    521.260     34.740    512.964    520.965    512.964    513.259    512.964
 35.570    541.000    520.255     20.745    512.754    519.961    512.754    513.047    512.754
 35.670    562.000    519.396     42.604    512.544    519.103    512.544    512.837    512.544
 35.770    476.000    518.651    -42.651    512.337    518.360    512.337    512.628    512.337
 35.870    543.000    517.999     25.001    512.130    517.708    512.130    512.421    512.130
 35.970    516.102    517.422     -1.320    511.925    517.132    511.925    512.216    511.925
 36.070    533.000    516.907     16.093    511.722    516.617    511.722    512.012    511.722
 36.170    523.000    516.445      6.555    511.520    516.155    511.520    511.810    511.520
 36.270    517.000    516.028      0.972    511.320    515.739    511.320    511.609    511.320
 36.370    505.634    515.653    -10.019    511.121    515.364    511.121    511.410    511.121
 36.470    499.757    515.315    -15.558    510.924    515.026    510.924    511.213    510.924
 36.570    528.415    515.015     13.400    510.728    514.725    510.728    511.017    510.728
 36.670    538.083    514.752     23.330    510.534    514.463    510.534    510.824    510.534
 36.770    550.554    514.536     36.018    510.341    514.246    510.341    510.631    510.341
 36.870    490.177    514.387    -24.210    510.150    514.097    510.150    510.441    510.150
 36.970    530.000    514.362     15.638    509.961    514.072    509.961    510.252    509.961
 37.070    522.000    514.589      7.411    509.772    514.298    509.772    510.064    509.772
 37.170    539.000    515.302     23.698    509.586    515.010    509.586    509.879    509.586
 37.270    491.450    516.816    -25.366    509.401    516.523    509.401    509.695    509.401
 37.370    483.000    519.371    -36.371    509.218    519.078    509.218    509.512    509.218
 37.470    520.000    522.848     -2.848    509.036    522.554    509.036    509.331    509.036
 37.570    510.000    526.457    -16.457    508.855    526.163    508.855    509.152    508.855
 37.670    544.941    528.720     16.221    508.677    528.426    508.677    508.975    508.677
 37.770    500.000    528.413    -28.413    508.500    528.120    508.500    508.799    508.500
 37.870    483.000    525.843    -42.843    508.324    525.550    508.324    508.625    508.324
 37.970    518.000    522.337     -4.337    508.150    522.045    508.150    508.453    508.150
 38.070    493.974    518.947    -24.973    507.978    518.653    507.978    508.282    507.978
 38.170    534.241    516.119     18.122    507.807    515.823    507.807    508.113    507.807
 38.270    484.522    513.991    -29.469    507.637    513.690    507.637    507.945    507.637
 38.370    472.000    512.515    -40.515    507.470    512.210    507.470    507.779    507.470
 38.470    474.729    511.542    -36.812    507.304    511.232    507.304    507.615    507.304
 38.570    506.345    510.906     -4.561    507.139    510.593    507.139    507.453    507.139
 38.670    507.000    510.475     -3.475    506.976    510.160    506.976    507.292    506.976
 38.770    468.388    510.160    -41.772    506.815    509.842    506.815    507.133    506.815
 38.870    513.000    509.905      3.095    506.655    509.585    506.655    506.976    506.655
 38.970    484.901    509.684    -24.783    506.497    509.361    506.497    506.820    506.497
 39.070    518.630    509.485      9.145    506.340    509.160    506.340    506.666    506.340
 39.170    476.955    509.302    -32.347    506.185    508.974    506.185    506.514    506.185
 39.270    551.154    509.131     42.022    506.032    508.800    506.032    506.363    506.032
 39.370    531.597    508.972     22.626    505.880    508.638    505.880    506.214    505.880
 39.470    526.000    508.822     17.178    505.730    508.485    505.730    506.067    505.730
 39.570    548.533    508.681     39.852    505.581    508.341    505.581    505.921    505.581
 39.670    500.000    508.548     -8.548    505.434    508.205    505.434    505.778    505.434
 39.770    510.242    508.423      1.818    505.289    508.077    505.289    505.636    505.289
 39.870    484.000    508.307    -24.307    505.145    507.957    505.145    505.495    505.145
 39.970    528.000    508.198     19.802    505.003    507.845    505.003    505.357    505.003
 40.070    476.790    508.098    -31.307    504.863    507.741    504.863    505.220    504.863
 40.170    515.000    508.006      6.994    504.724    507.645    504.724    505.084    504.724
 40.270    507.550    507.923     -0.373    504.586    507.559    504.586    504.951    504.586
 40.370    534.141    507.851     26.290    504.451    507.483    504.451    504.819    504.451
 40.470    491.000    507.790    -16.790    504.316    507.417    504.316    504.689    504.316
 40.570    535.131    507.741     27.390    504.184    507.364    504.184    504.561    504.184
 40.670    526.286    507.706     18.580    504.053    507.325    504.053    504.434    504.053
 40.770    536.576    507.687     28.889    503.924    507.302    503.924    504.310    503.924
 40.870    493.414    507.688    -14.274    503.796    507.298    503.796    504.187    503.796
 40.970    502.000    507.710     -5.710    503.670    507.316    503.670    504.065    503.670
 41.070    530.000    507.760     22.240    503.546    507.361    503.546    503.946    503.546
 41.170    509.000    507.844      1.156    503.423    507.439    503.423    503.828    503.423
 41.270    544.380    507.968     36.411    503.302    507.558    503.302    503.712    503.302
 41.370    531.000    508.145     22.855    503.182    507.730    503.182    503.598    503.182
 41.470    529.000    508.391     20.609    503.064    507.971    503.064    503.486    503.064
 41.570    479.910    508.731    -28.821    502.947    508.304    502.947    503.375    502.947
 41.670    512.000    509.210      2.790    502.833    508.778    502.833    503.266    502.833
 41.770    476.441    509.933    -33.492    502.719    509.495    502.719    503.159    502.719
 41.870    483.783    511.148    -27.364    502.608    510.704    502.608    503.054    502.608
 41.970    502.000    513.427    -11.427    502.498    512.978    502.498    502.951    502.498
 42.070    523.000    517.903      5.097    502.389    517.448    502.389    502.849    502.389
 42.170    519.000    526.362     -7.362    502.283    525.905    502.283    502.750    502.283
 42.270    537.000    540.828     -3.828    502.178    540.370    502.178    502.652    502.178
 42.370    584.501    562.310     22.192    502.074    561.854    502.074    502.556    502.074
 42.470    549.000    588.981    -39.981    501.972    588.531    501.972    502.462    501.972
 42.570    651.342    614.631     36.711    501.872    614.186    501.872    502.370    501.872
 42.670    612.000    629.271    -17.271    501.773    628.828    501.773    502.280    501.773
 42.770    629.770    625.319      4.451    501.675    624.869    501.675    502.191    501.675
 42.870    577.737    605.079    -27.341    501.580    604.611    501.580    502.105    501.580
 42.970    558.000    578.026    -20.026    501.486    577.535    501.486    502.021    501.486
 43.070    533.000    552.886    -19.886    501.393    552.370    501.393    501.938    501.393
 43.170    545.000    534.038     10.962    501.302    533.501    501.302    501.858    501.302
 43.270    499.000    521.996    -22.996    501.213    521.441    501.213    501.779    501.213
 43.370    519.000    515.187      3.813    501.126    514.616    501.126    501.703    501.126
 43.470    512.000    511.603      0.397    501.039    511.018    501.039    501.628    501.039
 43.570    523.369    509.709     13.660    500.955    509.111    500.955    501.556    500.955
 43.670    508.000    508.618     -0.618    500.872    508.006    500.872    501.486    500.872
 43.770    510.000    507.905      2.095    500.790    507.279    500.790    501.418    500.790
 43.870    521.000    507.389     13.611    500.711    506.749    500.711    501.352    500.711
 43.970    494.000    506.994    -12.994    500.632    506.339    500.632    501.289    500.632
 44.070    470.000    506.684    -36.684    500.556    506.014    500.556    501.227    500.556
 44.170    492.985    506.439    -13.454    500.480    505.752    500.480    501.168    500.480
 44.270    510.014    506.244      3.770    500.407    505.540    500.407    501.111    500.407
 44.370    539.747    506.091     33.656    500.335    505.369    500.335    501.057    500.335
 44.470    516.556    505.971     10.585    500.264    505.230    500.264    501.005    500.264
 44.570    471.000    505.880    -34.880    500.195    505.120    500.195    500.956    500.195
 44.670    476.000    505.814    -29.814    500.128    505.033    500.128    500.909    500.128
 44.770    486.000    505.771    -19.771    500.062    504.968    500.062    500.865    500.062
 44.870    549.217    505.748     43.469    499.998    504.922    499.998    500.824    499.998
 44.970    532.000    505.743     26.257    499.935    504.893    499.935    500.786    499.935
 45.070    477.414    505.756    -28.342    499.874    504.880    499.874    500.750    499.874
 45.170    495.000    505.787    -10.787    499.814    504.883    499.814    500.718    499.814
 45.270    495.000    505.834    -10.834    499.756    504.901    499.756    500.689    499.756
 45.370    472.673    505.899    -33.226    499.699    504.935    499.699    500.663    499.699
 45.470    466.007    505.981    -39.974    499.644    504.984    499.644    500.641    499.644
 45.570    520.000    506.081     13.919    499.590    505.049    499.590    500.623    499.590
 45.670    475.000    506.201    -31.201    499.538    505.131    499.538    500.608    499.538
 45.770    507.351    506.341      1.010    499.488    505.231    499.488    500.598    499.488
 45.870    529.000    506.504     22.496    499.439    505.350    499.439    500.592    499.439
 45.970    467.828    506.691    -38.864    499.391    505.490    499.391    500.591    499.391
 46.070    537.000    506.906     30.094    499.345    505.655    499.345    500.595    499.345
 46.170    501.000    507.152     -6.152    499.300    505.847    499.300    500.605    499.300
 46.270    499.000    507.435     -8.435    499.257    506.070    499.257    500.621    499.257
 46.370    466.123    507.759    -41.635    499.215    506.330    499.215    500.643    499.215
 46.470    502.000    508.132     -6.132    499.175    506.634    499.175    500.672    499.175
 46.570    501.000    508.566     -7.566    499.136    506.992    499.136    500.710    499.136
 46.670    499.000    509.077    -10.077    499.099    507.419    499.099    500.755    499.099
 46.770    519.771    509.692     10.079    499.063    507.943    499.063    500.811    499.063
 46.870    514.060    510.470      3.590    499.029    508.620    499.029    500.877    499.029
 46.970    506.688    511.541     -4.854    498.996    509.579    498.996    500.956    498.996
 47.070    498.000    513.183    -15.183    498.965    511.097    498.965    501.048    498.965
 47.170    501.000    515.926    -14.926    498.935    513.699    498.935    501.155    498.935
 47.270    506.000    520.612    -14.612    498.906    518.228    498.906    501.281    498.906
 47.370    553.929    528.286     25.643    498.879    525.723    498.879    501.427    498.879
 47.470    584.953    539.760     45.194    498.853    536.992    498.853    501.598    498.853
 47.570    565.000    554.899     10.101    498.829    551.898    498.829    501.797    498.829
 47.670    559.000    571.855    -12.855    498.806    568.586    498.806    502.029    498.806
 47.770    572.575    586.684    -14.109    498.784    583.112    498.784    502.301    498.784
 47.870    574.000    594.146    -20.146    498.764    590.228    498.764    502.624    498.764
 47.970    643.000    591.163     51.837    498.746    586.845    498.746    503.009    498.746
 48.070    567.000    579.837    -12.837    498.729    575.046    498.729    503.475    498.729
 48.170    547.000    565.276    -18.276    498.713    559.906    498.713    504.050    498.713
 48.270    544.000    551.937     -7.937    498.698    545.838    498.698    504.776    498.698
 48.370    544.645    542.265      2.379    498.685    535.223    498.685    505.714    498.685
 48.470    489.000    536.888    -47.888    498.673    528.600    498.673    506.953    498.673
 48.570    530.346    535.336     -4.990    498.663    525.380    498.663    508.614    498.663
 48.670    524.000    536.801    -12.801    498.654    524.597    498.654    510.853    498.654
 48.770    548.000    540.643      7.357    498.646    525.431    498.646    513.854    498.646
 48.870    520.000    546.563    -26.563    498.640    527.392    498.640    517.807    498.640
 48.970    573.440    554.565     18.875    498.635    530.323    498.635    522.874    498.635
 49.070    580.271    564.893     15.379    498.631    534.388    498.631    529.131    498.631
 49.170    537.000    578.125    -41.125    498.629    540.259    498.629    536.490    498.629
 49.270    569.000    595.730    -26.730    498.628    549.787    498.628    544.563    498.628
 49.370    670.078    621.476     48.602    498.629    567.583    498.629    552.508    498.629
 49.470    698.000    664.062     33.938    498.630    603.726    498.630    558.943    498.630
 49.570    763.000    740.387     22.613    498.633    676.716    498.633    562.260    498.633
 49.670    884.589    876.438      8.152    498.638    813.553    498.638    561.445    498.638
 49.770   1173.000   1100.307     72.693    498.643   1042.053    498.643    556.778    498.643
 49.870   1496.000   1423.981     72.019    498.650   1372.858    498.650    549.617    498.650
 49.970   1902.290   1819.638     82.651    498.658   1776.591    498.658    541.537    498.658
 50.070   2204.893   2205.447     -0.555    498.667   2170.272    498.667    533.711    498.667
 50.170   2472.000   2459.285     12.715    498.678   2431.137    498.678    526.786    498.678
 50.270   2469.162   2476.802     -7.640    498.690   2454.550    498.690    521.020    498.690
 50.370   2321.111   2247.949     73.163    498.703   2230.390    498.703    516.428    498.703
 50.470   1870.859   1866.842      4.017    498.718   1852.864    498.718    512.893    498.718
 50.570   1381.000   1459.759    -78.759    498.733   1448.435    498.733    510.237    498.733
 50.670   1170.339   1118.851     51.488    498.750   1109.470    498.750    508.271    498.750
 50.770    833.000    881.751    -48.751    498.768    873.796    498.768    506.819    498.768
 50.870    762.650    741.726     20.924    498.788    734.839    498.788    505.740    498.788
 50.970    629.431    669.994    -40.564    498.808    663.926    498.808    504.925    498.808
 51.070    686.000    635.562     50.438    498.830    630.136    498.830    504.296    498.830
 51.170    579.085    615.959    -36.874    498.853    611.046    498.853    503.800    498.853
 51.270    642.000    599.837     42.163    498.877    595.342    498.877    503.401    498.877
 51.370    613.800    584.196     29.604    498.903    580.044    498.903    503.077    498.903
 51.470    575.000    569.734      5.266    498.929    565.871    498.929    502.810    498.929
 51.570    578.000    557.681     20.319    498.957    554.061    498.957    502.589    498.957
 51.670    600.000    548.659     51.341    498.986    545.247    498.986    502.407    498.986
 51.770    548.000    542.582      5.418    499.016    539.347    499.016    502.256    499.016
 51.870    570.000    538.924     31.076    499.047    535.842    499.047    502.133    499.047
 51.970    613.000    537.052     75.948    499.079    534.102    499.079    502.033    499.079
 52.070    584.000    536.457     47.543    499.113    533.619    499.113    501.953    499.113
 52.170    514.000    536.848    -22.848    499.147    534.107    499.147    501.891    499.147
 52.270    536.000    538.179     -2.179    499.183    535.518    499.183    501.845    499.183
 52.370    539.000    540.683     -1.683    499.220    538.092    499.220    501.812    499.220
 52.470    544.000    545.051     -1.051    499.257    542.517    499.257    501.792    499.257
 52.570    577.635    552.787     24.849    499.296    550.300    499.296    501.784    499.296
 52.670    577.000    566.734     10.266    499.336    564.285    499.336    501.786    499.336
 52.770    601.000    591.548      9.452    499.378    589.126    499.378    501.797    499.378
 52.870    620.000    633.564    -13.564    499.420    631.163    499.420    501.817    499.420
 52.970    699.423    699.408      0.015    499.463    697.019    499.463    501.846    499.463
 53.070    821.000    792.969     28.031    499.507    790.586    499.507    501.883    499.507
 53.170    916.000    911.289      4.711    499.553    908.907    499.553    501.927    499.553
 53.270   1070.373   1040.731     29.641    499.599   1038.348    499.599    501.978    499.599
 53.370   1130.000   1155.305    -25.305    499.646   1152.918    499.646    502.036    499.646
 53.470   1225.595   1221.384      4.211    499.695   1218.992    499.695    502.101    499.695
 53.570   1193.000   1214.443    -21.443    499.744   1212.041    499.744    502.173    499.744
 53.670   1105.000   1137.567    -32.567    499.795   1135.145    499.795    502.252    499.795
 53.770   1040.000   1018.601     21.399    499.846   1016.146    499.846    502.337    499.846
 53.870    935.321    890.404     44.917    499.899    887.906    499.899    502.429    499.899
 53.970    726.000    776.703    -50.703    499.952    774.152    499.952    502.528    499.952
 54.070    728.378    688.948     39.430    500.006    686.339    500.006    502.633    500.006
 54.170    615.000    628.534    -13.534    500.062    625.861    500.062    502.746    500.062
 54.270    628.000    590.804     37.196    500.118    588.062    500.118    502.867    500.118
 54.370    633.000    569.034     63.966    500.175    566.219    500.175    502.995    500.175
 54.470    533.000    557.156    -24.156    500.233    554.261    500.233    503.131    500.233
 54.570    607.000    550.871     56.129    500.292    547.889    500.292    503.276    500.292
 54.670    522.333    547.613    -25.281    500.353    544.538    500.353    503.430    500.353
 54.770    527.831    546.048    -18.217    500.413    542.870    500.413    503.593    500.413
 54.870    604.000    545.549     58.451    500.475    542.259    500.475    503.767    500.475
 54.970    534.164    545.849    -11.685    500.538    542.437    500.538    503.951    500.538
 55.070    549.825    546.847      2.979    500.602    543.301    500.602    504.148    500.602
 55.170    501.930    548.526    -46.596    500.666    544.836    500.666    504.357    500.666
 55.270    575.000    550.924     24.076    500.731    547.076    500.731    504.580    500.731
 55.370    587.000    554.132     32.868    500.798    550.111    500.798    504.819    500.798
 55.470    541.552    558.319    -16.768    500.865    554.110    500.865    505.074    500.865
 55.570    562.000    563.820     -1.820    500.933    559.405    500.933    505.348    500.933
 55.670    571.000    571.332     -0.332    501.001    566.691    501.001    505.642    501.001
 55.770    581.000    582.368     -1.368    501.071    577.479    501.071    505.959    501.071
 55.870    619.752    600.111     19.641    501.141    594.949    501.141    506.301    501.141
 55.970    639.000    630.731      8.269    501.212    625.266    501.212    506.672    501.212
 56.070    665.000    684.870    -19.870    501.284    679.068    501.284    507.074    501.284
 56.170    798.278    778.314     19.964    501.357    772.136    501.357    507.512    501.357
 56.270    949.251    930.202     19.049    501.431    923.604    501.431    507.991    501.431
 56.370   1204.449   1157.221     47.228    501.505   1150.156    501.505    508.517    501.505
 56.470   1468.343   1463.889      4.454    501.580   1456.308    501.580    509.096    501.580
 56.570   1819.000   1831.648    -12.648    501.656   1823.506    501.656    509.737    501.656
 56.670   2141.000   2211.217    -70.217    501.732   2202.466    501.732    510.449    501.732
 56.770   2517.000   2523.336     -6.336    501.810   2513.922    501.810    511.244    501.810
 56.870   2573.000   2678.226   -105.226    501.888   2668.077    501.888    512.139    501.888
 56.970   2659.000   2622.300     36.700    501.966   2611.300    501.966    513.153    501.966
 57.070   2364.000   2377.390    -13.390    502.046   2365.365    502.046    514.312    502.046
 57.170   2024.950   2022.704      2.246    502.126   2009.428    502.126    515.653    502.126
 57.270   1602.211   1645.717    -43.506    502.207   1630.919    502.207    517.231    502.207
 57.370   1270.000   1310.601    -40.601    502.288   1293.947    502.288    519.123    502.288
 57.470    994.000   1050.021    -56.021    502.370   1031.076    502.370    521.446    502.370
 57.570    889.000    869.474     19.526    502.453    847.646    502.453    524.366    502.453
 57.670    710.000    757.330    -47.330    502.536    731.797    502.536    528.120    502.536
 57.770    733.000    695.707     37.293    502.620    665.330    502.620    533.025    502.620
 57.870    650.412    668.447    -18.035    502.705    631.680    502.705    539.484    502.705
 57.970    660.724    664.858     -4.134    502.790    619.675    502.790    547.974    502.790
 58.070    635.706    680.059    -44.353    502.876    623.917    502.876    559.010    502.876
 58.170    703.000    713.441    -10.441    502.963    643.306    502.963    573.080    502.963
 58.270    761.000    766.424     -5.424    503.050    678.891    503.050    590.553    503.050
 58.370    837.000    840.216     -3.216    503.138    731.759    503.138    611.555    503.138
 58.470    871.000    933.706    -62.706    503.226    801.086    503.226    635.799    503.226
 58.570   1081.559   1041.951     39.608    503.315    882.861    503.315    662.355    503.315
 58.670   1135.000   1155.567    -20.567    503.404    969.592    503.404    689.334    503.404
 58.770   1271.743   1262.100      9.644    503.494   1051.943    503.494    713.617    503.494
 58.870   1334.000   1349.060    -15.060    503.584   1121.575    503.584    731.052    503.584
 58.970   1371.665   1405.805    -34.140    503.675   1171.781    503.675    737.700    503.675
 59.070   1487.000   1424.126     62.874    503.767   1196.073    503.767    731.840    503.767
 59.170   1417.036   1401.474     15.562    503.859   1190.314    503.859    715.052    503.859
 59.270   1419.000   1345.295     73.705    503.951   1158.071    503.951    691.210    503.951
 59.370   1340.000   1271.668     68.332    504.044   1111.248    504.044    664.486    504.044
 59.470   1204.000   1198.742      5.258    504.138   1064.819    504.138    638.057    504.138
 59.570   1168.641   1142.684     25.957    504.231   1033.008    504.231    613.869    504.231
 59.670   1057.382   1117.753    -60.371    504.326   1029.103    504.326    592.892    504.326
 59.770   1169.000   1135.102     33.898    504.420   1063.948    504.420    575.439    504.420
 59.870   1257.000   1198.003     58.997    504.516   1140.924    504.516    561.404    504.516
 59.970   1322.000   1297.258     24.742    504.611   1251.200    504.611    550.427    504.611
 60.070   1411.000   1409.914      1.086    504.707   1372.318    504.707    542.024    504.707
 60.170   1578.000   1502.038     75.962    504.804   1470.871    504.804    535.680    504.804
 60.270   1612.000   1537.866     74.134    504.901   1511.580    504.901    530.918    504.901
 60.370   1529.000   1496.646     32.354    504.998   1474.095    504.998    527.332    504.998
 60.470   1429.000   1385.141     43.859    505.095   1365.481    505.095    524.602    505.095
 60.570   1218.805   1231.169    -12.364    505.193   1213.773    505.193    522.494    505.193
 60.670   1150.000   1067.088     82.912    505.292   1051.489    505.292    520.839    505.292
 60.770    881.000    918.375    -37.375    505.390    904.216    505.390    519.526    505.390
 60.870    761.792    799.626    -37.834    505.489    786.627    505.489    518.480    505.489
 60.970    755.000    715.208     39.792    505.589    703.142    505.589    517.651    505.589
 61.070    672.000    662.573      9.427    505.688    651.248    505.688    517.007    505.688
 61.170    691.000    636.534     54.466    505.788    625.788    505.788    516.523    505.788
 61.270    631.000    632.911     -1.911    505.888    622.600    505.888    516.179    505.888
 61.370    619.000    650.559    -31.559    505.989    640.561    505.989    515.955    505.989
 61.470    667.329    691.555    -24.227    506.090    681.769    506.090    515.825    506.090
 61.570    755.368    759.657     -4.289    506.191    750.016    506.191    515.758    506.191
 61.670    894.374    857.435     36.939    506.292    847.916    506.292    515.708    506.292
 61.770    957.000    982.789    -25.789    506.394    973.424    506.394    515.623    506.394
 61.870   1066.435   1125.912    -59.477    506.495   1116.790    506.495    515.453    506.495
 61.970   1232.000   1267.835    -35.835    506.597   1259.078    506.597    515.173    506.597
 62.070   1421.000   1381.731     39.269    506.700   1373.464    506.700    514.788    506.700
 62.170   1382.000   1439.323    -57.323    506.802   1431.636    506.802    514.333    506.802
 62.270   1329.000   1423.526    -94.526    506.905   1416.462    506.905    513.853    506.905
 62.370   1291.267   1338.955    -47.689    507.008   1332.509    507.008    513.384    507.008
 62.470   1162.000   1208.654    -46.654    507.110   1202.781    507.110    512.951    507.110
 62.570   1120.333   1061.300     59.033    507.214   1055.940    507.214    512.569    507.214
 62.670    870.000    920.928    -50.928    507.317    916.012    507.317    512.241    507.317
 62.770    755.000    802.735    -47.735    507.420    798.199    507.420    511.969    507.420
 62.870    674.000    712.874    -38.874    507.524    708.660    507.524    511.750    507.524
 62.970    642.000    650.440     -8.440    507.628    646.499    507.628    511.576    507.628
 63.070    576.000    610.449    -34.449    507.731    606.741    507.731    511.444    507.731
 63.170    622.000    586.690     35.310    507.835    583.181    507.835    511.344    507.835
 63.270    619.925    573.672     46.253    507.939    570.335    507.939    511.273    507.939
 63.370    585.000    567.525     17.475    508.043    564.340    508.043    511.224    508.043
 63.470    591.490    566.151     25.339    508.148    563.099    508.148    511.192    508.148
 63.570    550.094    569.022    -18.929    508.252    566.088    508.252    511.176    508.252
 63.670    540.988    576.907    -35.919    508.356    574.077    508.356    511.172    508.356
 63.770    588.946    591.589     -2.643    508.460    588.850    508.460    511.178    508.460
 63.870    653.635    615.476     38.159    508.565    612.817    508.565    511.192    508.565
 63.970    628.149    650.974    -22.825    508.669    648.384    508.669    511.214    508.669
 64.070    730.000    699.566     30.434    508.773    697.033    508.773    511.243    508.773
 64.170    804.000    760.724     43.276    508.878    758.241    508.878    511.277    508.878
 64.270    930.000    830.899     99.101    508.982    828.458    508.982    511.317    508.982
 64.370    917.000    902.897     14.103    509.087    900.499    509.087    511.362    509.087
 64.470    976.000    966.163      9.837    509.191    963.810    509.191    511.411    509.191
 64.570   1036.000   1009.013     26.987    509.295   1006.713    509.295    511.465    509.295
 64.670    979.000   1023.161    -44.161    509.399   1020.922    509.399    511.522    509.399
 64.770   1012.075   1007.400      4.675    509.504   1005.228    509.504    511.583    509.504
 64.870   1003.000    967.136     35.864    509.608    965.032    509.608    511.647    509.608
 64.970    891.000    911.472    -20.472    509.712    909.432    509.712    511.714    509.712
 65.070    870.000    850.233     19.767    509.816    848.252    509.816    511.784    509.816
 65.170    844.701    791.367     53.334    509.920    789.435    509.920    511.857    509.920
 65.270    712.000    739.492    -27.492    510.023    737.600    510.023    511.933    510.023
 65.370    680.000    696.114    -16.114    510.127    694.254    510.127    512.011    510.127
 65.470    621.773    660.916    -39.143    510.230    659.080    510.230    512.091    510.230
 65.570    616.000    632.984    -16.984    510.334    631.167    510.334    512.173    510.334
 65.670    608.768    611.316     -2.548    510.437    609.512    510.437    512.258    510.437
 65.770    585.000    594.910     -9.910    510.540    593.117    510.540    512.345    510.540
 65.870    562.000    582.841    -20.841    510.643    581.058    510.643    512.433    510.643
 65.970    578.000    574.316      3.684    510.746    572.542    510.746    512.524    510.746
 66.070    545.000    568.683    -23.683    510.848    566.917    510.848    512.616    510.848
 66.170    554.000    565.406    -11.406    510.950    563.646    510.950    512.710    510.950
 66.270    562.000    564.053     -2.053    511.053    562.299    511.053    512.806    511.053
 66.370    556.000    564.305     -8.305    511.155    562.555    511.155    512.904    511.155
 66.470    555.000    565.995    -10.995    511.256    564.247    511.256    513.004    511.256
 66.570    541.499    569.174    -27.675    511.358    567.427    511.358    513.105    511.358
 66.670    547.000    574.235    -27.235    511.459    572.486    511.459    513.208    511.459
 66.770    603.556    582.128     21.428    511.560    580.375    511.560    513.313    511.560
 66.870    611.000    594.705     16.295    511.660    592.946    511.660    513.420    511.660
 66.970    605.000    615.183    -10.183    511.761    613.414    511.761    513.528    511.761
 67.070    643.950    648.632     -4.682    511.861    646.849    511.861    513.639    511.861
 67.170    665.686    702.238    -36.551    511.961    700.438    511.961    513.751    511.961
 67.270    763.000    784.968    -21.968    512.060    783.149    512.060    513.865    512.060
 67.370    894.000    906.243    -12.243    512.159    904.402    512.159    513.981    512.159
 67.470   1077.000   1073.404      3.596    512.258   1071.542    512.258    514.100    512.258
 67.570   1295.000   1288.255      6.745    512.357   1286.377    512.357    514.220    512.357
 67.670   1534.000   1543.445     -9.445    512.455   1541.558    512.455    514.343    512.455
 67.770   1796.000   1819.784    -23.784    512.553   1817.901    512.553    514.469    512.553
 67.870   2042.087   2085.503    -43.417    512.650   2083.637    512.650    514.597    512.650
 67.970   2359.000   2298.856     60.144    512.747   2297.019    512.747    514.727    512.747
 68.070   2478.000   2416.907     61.093    512.844   2415.103    512.844    514.861    512.844
 68.170   2414.000   2411.643      2.357    512.941   2409.862    512.941    514.998    512.941
 68.270   2213.350   2284.490    -71.141    513.036   2282.703    513.036    515.138    513.036
 68.370   2081.504   2065.435     16.069    513.132   2063.606    513.132    515.282    513.132
 68.470   1834.000   1797.787     36.213    513.227   1795.884    513.227    515.430    513.227
 68.570   1520.888   1522.636     -1.748    513.322   1520.636    513.322    515.583    513.322
 68.670   1289.000   1270.721     18.279    513.416   1268.608    513.416    515.740    513.416
 68.770   1076.478   1060.168     16.310    513.510   1057.937    513.510    515.902    513.510
 68.870    876.809    897.437    -20.628    513.603    895.086    513.603    516.069    513.603
 68.970    788.000    780.118      7.882    513.696    777.650    513.696    516.243    513.696
 69.070    715.000    700.578     14.422    513.788    697.995    513.788    516.424    513.788
 69.170    670.000    649.359     20.641    513.880    646.662    513.880    516.612    513.880
 69.270    630.000    617.609     12.391    513.972    614.795    513.972    516.808    513.972
 69.370    590.000    598.308     -8.308    514.062    595.371    514.062    517.013    514.062
 69.470    578.000    586.536     -8.536    514.153    583.470    514.153    517.229    514.153
 69.570    607.000    579.172     27.828    514.243    575.966    514.243    517.456    514.243
 69.670    578.000    574.393      3.607    514.332    571.034    514.332    517.695    514.332
 69.770    549.040    571.205    -22.166    514.421    567.680    514.421    517.949    514.421
 69.870    563.298    569.094     -5.796    514.509    565.386    514.509    518.219    514.509
 69.970    558.000    567.804     -9.804    514.597    563.894    514.597    518.508    514.597
 70.070    583.000    567.218     15.782    514.684    563.086    514.684    518.817    514.684
 70.170    555.000    567.302    -12.302    514.770    562.922    514.770    519.150    514.770
 70.270    561.000    568.088     -7.088    514.856    563.434    514.856    519.509    514.856
 70.370    604.582    569.701     34.881    514.942    564.740    514.942    519.900    514.942
 70.470    588.000    572.410     15.590    515.026    567.104    515.026    520.328    515.026
 70.570    548.000    576.736    -28.736    515.110    571.043    515.110    520.799    515.110
 70.670    610.891    583.624     27.267    515.194    577.489    515.194    521.321    515.194
 70.770    605.000    594.663     10.337    515.277    588.020    515.277    521.907    515.277
 70.870    558.000    612.349    -54.349    515.359    605.115    515.359    522.574    515.359
 70.970    614.556    640.290    -25.734    515.441    632.356    515.441    523.346    515.441
 71.070    706.000    683.204     22.796    515.521    674.423    515.521    524.259    515.521
 71.170    756.000    746.539      9.461    515.602    736.711    515.602    525.367    515.602
 71.270    810.760    835.575    -24.815    515.681    824.420    515.681    526.748    515.681
 71.370    981.839    953.961     27.878    515.760    941.093    515.760    528.510    515.760
 71.470   1141.000   1101.913     39.087    515.838   1086.797    515.838    530.805    515.838
 71.570   1236.321   1274.462    -38.141    515.916   1256.370    515.916    533.827    515.916
 71.670   1490.738   1460.225     30.513    515.993   1438.198    515.993    537.815    515.993
 71.770   1647.000   1641.140      5.860    516.069   1613.946    516.069    543.045    516.069
 71.870   1829.418   1793.719     35.699    516.144   1759.842    516.144    549.807    516.144
 71.970   1944.000   1893.067     50.933    516.219   1850.723    516.219    558.369    516.219
 72.070   1898.000   1920.590    -22.590    516.293   1867.795    516.293    568.930    516.293
 72.170   1893.000   1872.416     20.584    516.366   1807.108    516.366    581.557    516.366
 72.270   1804.000   1761.507     42.493    516.438   1681.744    516.438    596.123    516.438
 72.370   1608.343   1611.108     -2.765    516.510   1515.338    516.510    612.232    516.510
 72.470   1451.000   1445.674      5.326    516.580   1333.087    516.580    629.142    516.580
 72.570   1260.000   1285.018    -25.018    516.650   1155.978    516.650    645.680    516.650
 72.670   1110.000   1142.047    -32.047    516.720    998.540    516.720    660.223    516.720
 72.770    961.000   1022.650    -61.650    516.788    868.590    516.788    670.847    516.788
 72.870    969.790    927.039     42.751    516.856    768.101    516.856    675.793    516.856
 72.970    759.000    852.008    -93.008    516.922    694.794    516.922    674.134    516.922
 73.070    791.000    793.216     -2.216    516.988    643.985    516.988    666.217    516.988
 73.170    725.000    746.661    -21.661    517.053    610.233    517.053    653.479    517.053
 73.270    624.000    709.221    -85.221    517.118    588.504    517.118    637.833    517.118
 73.370    644.562    678.663    -34.102    517.181    574.768    517.181    621.074    517.181
 73.470    607.000    653.499    -46.499    517.244    566.146    517.244    604.597    517.244
 73.570    631.841    632.808     -0.967    517.305    560.771    517.305    589.343    517.305
 73.670    587.000    616.042    -29.042    517.366    557.541    517.366    575.870    517.366
 73.770    568.000    602.851    -34.851    517.426    555.856    517.426    564.428    517.426
 73.870    605.000    592.941     12.059    517.485    555.401    517.485    555.035    517.485
 73.970    619.000    585.982     33.018    517.543    555.989    517.543    547.549    517.543
 74.070    631.000    581.559     49.441    517.601    557.448    517.601    541.731    517.601
 74.170    627.000    579.163     47.837    517.657    559.549    517.657    537.296    517.657
 74.270    632.000    578.189     53.811    517.712    561.974    517.712    533.959    517.712
 74.370    645.000    577.962     67.038    517.767    564.305    517.767    531.460    517.767
 74.470    569.115    577.780     -8.664    517.820    566.059    517.820    529.582    517.820
 74.570    645.000    577.010     67.990    517.873    566.772    517.873    528.155    517.873
 74.670    592.857    575.238     17.619    517.925    566.157    517.925    527.050    517.925
 74.770    621.000    572.383     48.617    517.975    564.227    517.975    526.174    517.975
 74.870    638.000    568.696     69.304    518.025    561.297    518.025    525.463    518.025
 74.970    646.000    564.633     81.367    518.074    557.866    518.074    524.873    518.074
 75.070    620.000    560.709     59.291    518.122    554.483    518.122    524.374    518.122
 75.170    588.000    557.435     30.565    518.168    551.677    518.168    523.946    518.168
 75.270    521.425    555.298    -33.873    518.214    549.951    518.214    523.575    518.214
 75.370    569.000    554.781     14.219    518.259    549.797    518.259    523.250    518.259
 75.470    579.000    556.380     22.620    518.303    551.720    518.303    522.964    518.303
 75.570    557.000    560.614     -3.614    518.346    556.244    518.346    522.712    518.346
 75.670    581.000    567.995     13.005    518.387    563.884    518.387    522.488    518.387
 75.770    626.000    578.939     47.061    518.428    575.061    518.428    522.288    518.428
 75.870    561.000    593.642    -32.642    518.468    589.974    518.468    522.111    518.468
 75.970    582.785    611.912    -29.127    518.507    608.433    518.507    521.951    518.507
 76.070    589.180    633.021    -43.841    518.544    629.713    518.544    521.809    518.544
 76.170    661.000    655.600      5.400    518.581    652.448    518.581    521.681    518.581
 76.270    688.000    677.624     10.376    518.616    674.615    518.616    521.565    518.616
 76.370    684.000    696.509    -12.509    518.651    693.634    518.651    521.461    518.651
 76.470    687.000    709.447    -22.447    518.684    706.697    518.684    521.367    518.684
 76.570    676.000    714.091    -38.091    518.716    711.461    518.716    521.282    518.716
 76.670    672.000    709.464    -37.464    518.747    706.949    518.747    521.204    518.747
 76.770    674.279    696.427    -22.148    518.777    694.021    518.777    521.134    518.777
 76.870    634.000    677.251    -43.251    518.806    674.947    518.806    521.070    518.806
 76.970    690.000    654.722     35.278    518.834    652.514    518.834    521.011    518.834
 77.070    617.000    631.429    -14.429    518.861    629.308    518.861    520.958    518.861
 77.170    564.234    609.405    -45.171    518.887    607.366    518.887    520.909    518.887
 77.270    599.925    590.017      9.908    518.911    588.053    518.911    520.864    518.911
 77.370    544.567    573.967    -29.401    518.935    572.072    518.935    520.823    518.935
 77.470    552.307    561.393     -9.086    518.957    559.561    518.957    520.784    518.957
 77.570    498.000    552.020    -54.020    518.978    550.246    518.978    520.749    518.978
 77.670    529.000    545.332    -16.332    518.998    543.612    518.998    520.716    518.998
 77.770    517.000    540.733    -23.733    519.017    539.063    519.017    520.685    519.017
 77.870    574.000    537.657     36.343    519.034    536.034    519.034    520.656    519.034
 77.970    545.000    535.630      9.370    519.051    534.051    519.051    520.629    519.051
 78.070    480.000    534.296    -54.296    519.066    532.757    519.066    520.604    519.066
 78.170    506.000    533.407    -27.407    519.080    531.907    519.080    520.580    519.080
 78.270    536.000    532.801      3.199    519.093    531.336    519.093    520.557    519.093
 78.370    503.000    532.364    -29.364    519.105    530.932    519.105    520.536    519.105
 78.470    467.000    532.056    -65.056    519.116    530.656    519.116    520.515    519.116
 78.570    530.000    531.885     -1.885    519.125    530.513    519.125    520.496    519.125
 78.670    538.256    531.822      6.434    519.133    530.476    519.133    520.478    519.133
 78.770    542.000    531.871     10.129    519.140    530.550    519.140    520.461    519.140
 78.870    559.000    532.054     26.946    519.146    530.754    519.146    520.445    519.146
 78.970    524.000    532.393     -8.393    519.151    531.113    519.151    520.430    519.151
 79.070    508.525    532.917    -24.392    519.154    531.653    519.154    520.417    519.154
 79.170    507.519    533.656    -26.138    519.156    532.405    519.156    520.406    519.156
 79.270    532.000    534.640     -2.640    519.157    533.397    519.157    520.397    519.157
 79.370    553.000    535.895     17.105    519.156    534.658    519.156    520.391    519.156
 79.470    512.000    537.451    -25.451    519.155    536.214    519.155    520.388    519.155
 79.570    560.761    539.343     21.418    519.152    538.103    519.152    520.388    519.152
 79.670    553.106    541.627     11.479    519.148    540.378    519.148    520.392    519.148
 79.770    603.000    544.392     58.608    519.143    543.130    519.143    520.400    519.143
 79.870    555.000    547.785      7.215    519.136    546.504    519.136    520.411    519.136
 79.970    542.000    552.026    -10.026    519.128    550.723    519.128    520.426    519.128
 80.070    544.000    557.438    -13.438    519.119    556.109    519.119    520.443    519.119
 80.170    606.000    564.440     41.560    519.108    563.083    519.108    520.462    519.108
 80.270    565.210    573.498     -8.288    519.097    572.113    519.097    520.480    519.097
 80.370    573.000    585.034    -12.034    519.084    583.624    519.084    520.496    519.084
 80.470    575.000    599.314    -24.314    519.069    597.884    519.069    520.505    519.069
 80.570    607.600    616.340     -8.740    519.054    614.899    519.054    520.504    519.054
 80.670    630.000    635.779     -5.779    519.037    634.339    519.037    520.491    519.037
 80.770    658.000    656.916      1.084    519.019    655.492    519.019    520.463    519.019
 80.870    704.758    678.681     26.077    518.999    677.287    518.999    520.420    518.999
 80.970    662.000    699.761    -37.761    518.979    698.407    518.979    520.365    518.979
 81.070    755.479    718.781     36.698    518.957    717.478    518.957    520.299    518.957
 81.170    727.057    734.486     -7.429    518.933    733.238    518.933    520.227    518.933
 81.270    770.000    745.852     24.148    518.908    744.661    518.908    520.152    518.908
 81.370    708.648    752.165    -43.517    518.882    751.029    518.882    520.076    518.882
 81.470    802.000    753.094     48.906    518.855    752.011    518.855    520.001    518.855
 81.570    748.518    748.715     -0.197    518.827    747.680    518.827    519.928    518.827
 81.670    767.000    739.469     27.531    518.797    738.476    518.797    519.858    518.797
 81.770    700.726    726.155    -25.429    518.765    725.198    518.765    519.791    518.765
 81.870    732.703    709.898     22.804    518.733    708.971    518.733    519.727    518.733
 81.970    739.750    691.998     47.752    518.699    691.096    518.699    519.666    518.699
 82.070    675.000    673.657      1.343    518.663    672.775    518.663    519.608    518.663
 82.170    638.608    655.764    -17.155    518.627    654.896    518.627    519.552    518.627
 82.270    644.000    638.835      5.165    518.589    637.979    518.589    519.498    518.589
 82.370    632.000    623.114      8.886    518.549    622.267    518.549    519.446    518.549
 82.470    601.000    608.726     -7.726    518.509    607.885    518.509    519.394    518.509
 82.570    606.000    595.798     10.202    518.467    594.960    518.467    519.343    518.467
 82.670    563.000    584.486    -21.486    518.423    583.650    518.423    519.291    518.423
 82.770    541.641    574.949    -33.308    518.378    574.113    518.378    519.240    518.378
 82.870    551.000    567.320    -16.320    518.332    566.482    518.332    519.188    518.332
 82.970    555.000    561.690     -6.690    518.285    560.850    518.285    519.136    518.285
 83.070    510.000    558.102    -48.102    518.236    557.259    518.236    519.083    518.236
 83.170    589.778    556.534     33.244    518.186    555.687    518.186    519.030    518.186
 83.270    553.000    556.877     -3.877    518.134    556.026    518.134    518.975    518.134
 83.370    582.000    558.919     23.081    518.081    558.062    518.081    518.920    518.081
 83.470    541.253    562.331    -21.078    518.027    561.470    518.027    518.864    518.027
 83.570    509.000    566.672    -57.672    517.971    565.805    517.971    518.806    517.971
 83.670    540.000    571.396    -31.396    517.914    570.525    517.914    518.748    517.914
 83.770    565.000    575.884    -10.884    517.856    575.010    517.856    518.689    517.856
 83.870    587.000    579.489      7.511    517.796    578.612    517.796    518.629    517.796
 83.970    550.183    581.622    -31.438    517.735    580.744    517.735    518.567    517.735
 84.070    545.000    581.869    -36.869    517.672    580.991    517.672    518.505    517.672
 84.170    580.000    580.104     -0.104    517.608    579.229    517.608    518.441    517.608
 84.270    571.084    576.520     -5.437    517.543    575.648    517.543    518.377    517.543
 84.370    609.982    571.544     38.438    517.476    570.675    517.476    518.311    517.476
 84.470    577.000    565.711     11.289    517.408    564.846    517.408    518.245    517.408
 84.570    541.250    559.552    -18.301    517.339    558.690    517.339    518.177    517.339
 84.670    511.347    553.523    -42.176    517.268    552.664    517.268    518.108    517.268
 84.770    586.440    547.974     38.466    517.196    547.116    517.196    518.038    517.196
 84.870    522.000    543.133    -21.133    517.122    542.276    517.122    517.967    517.122
 84.970    539.000    539.113     -0.113    517.047    538.256    517.047    517.895    517.047
 85.070    579.461    535.933     43.529    516.971    535.074    516.971    517.822    516.971
 85.170    515.846    533.536    -17.690    516.893    532.675    516.893    517.748    516.893
 85.270    545.503    531.827     13.676    516.814    530.963    516.814    517.673    516.814
 85.370    546.000    530.697     15.303    516.733    529.829    516.733    517.596    516.733
 85.470    540.000    530.043      9.957    516.651    529.171    516.651    517.519    516.651
 85.570    514.226    529.790    -15.563    516.568    528.912    516.568    517.441    516.568
 85.670    558.299    529.893     28.405    516.483    529.010    516.483    517.361    516.483
 85.770    541.000    530.352     10.648    516.397    529.463    516.397    517.280    516.397
 85.870    554.622    531.208     23.414    516.310    530.311    516.310    517.199    516.310
 85.970    573.926    532.544     41.381    516.221    531.639    516.221    517.116    516.221
 86.070    532.350    534.489     -2.140    516.131    533.575    516.131    517.033    516.131
 86.170    526.000    537.204    -11.204    516.039    536.279    516.039    516.948    516.039
 86.270    574.891    540.873     34.018    515.946    539.936    515.946    516.862    515.946
 86.370    551.540    545.682      5.858    515.852    544.731    515.852    516.775    515.852
 86.470    526.000    551.789    -25.789    515.756    550.822    515.756    516.688    515.756
 86.570    547.000    559.290    -12.290    515.659    558.305    515.659    516.599    515.659
 86.670    582.000    568.177     13.823    515.560    567.173    515.560    516.510    515.560
 86.770    596.160    578.302     17.858    515.460    577.277    515.460    516.419    515.460
 86.870    639.000    589.344     49.656    515.359    588.297    515.359    516.328    515.359
 86.970    569.000    600.797    -31.797    515.256    599.727    515.256    516.236    515.256
 87.070    615.000    611.975      3.025    515.152    610.884    515.152    516.143    515.152
 87.170    621.000    622.041     -1.041    515.047    620.929    515.047    516.049    515.047
 87.270    648.991    630.085     18.906    514.940    628.955    514.940    515.954    514.940
 87.370    685.000    635.265     49.735    514.832    634.121    514.832    515.858    514.832
 87.470    627.000    636.991     -9.991    514.723    635.837    514.723    515.762    514.723
 87.570    632.000    635.133     -3.133    514.612    633.971    514.612    515.665    514.612
 87.670    620.000    630.028    -10.028    514.500    628.862    514.500    515.568    514.500
 87.770    665.633    622.373     43.260    514.386    621.204    514.386    515.469    514.386
 87.870    682.000    613.077     68.923    514.271    611.906    514.271    515.370    514.271
 87.970    621.000    603.100     17.900    514.155    601.925    514.155    515.271    514.155
 88.070    597.000    593.349      3.651    514.037    592.170    514.037    515.171    514.037
 88.170    562.598    584.611    -22.012    513.918    583.425    513.918    515.071    513.918
 88.270    595.000    577.504     17.496    513.798    576.310    513.798    514.970    513.798
 88.370    557.000    572.459    -15.459    513.676    571.254    513.676    514.869    513.676
 88.470    568.971    569.702     -0.731    513.553    568.484    513.553    514.768    513.553
 88.570    548.150    569.265    -21.115    513.429    568.033    513.429    514.667    513.429
 88.670    636.000    570.997     65.003    513.303    569.749    513.303    514.565    513.303
 88.770    555.000    574.581    -19.581    513.176    573.314    513.176    514.464    513.176
 88.870    605.307    579.556     25.751    513.048    578.270    513.048    514.362    513.048
 88.970    573.555    585.343    -11.788    512.918    584.036    512.918    514.261    512.918
 89.070    609.000    591.278     17.722    512.787    589.948    512.787    514.161    512.787
 89.170    561.777    596.647    -34.870    512.655    595.291    512.655    514.060    512.655
 89.270    668.000    600.746     67.254    512.521    599.362    512.521    513.961    512.521
 89.370    630.769    602.977     27.791    512.386    601.562    512.386    513.862    512.386
 89.470    587.000    602.956    -15.956    512.250    601.504    512.250    513.765    512.250
 89.570    629.851    600.599     29.252    512.112    599.106    512.112    513.668    512.112
 89.670    607.000    596.130     10.870    511.973    594.591    511.973    513.573    511.973
 89.770    580.768    590.005     -9.237    511.833    588.415    511.833    513.480    511.833
 89.870    585.000    582.787      2.213    511.692    581.142    511.692    513.389    511.692
 89.970    548.000    575.050    -27.050    511.549    573.344    511.549    513.300    511.549
 90.070    546.000    567.304    -21.304    511.405    565.534    511.405    513.215    511.405
 90.170    531.188    559.966    -28.777    511.260    558.125    511.260    513.133    511.260
 90.270    548.000    553.336     -5.336    511.113    551.421    511.113    513.055    511.113
 90.370    552.384    547.604      4.779    510.966    545.608    510.966    512.982    510.966
 90.470    527.000    542.854    -15.854    510.817    540.771    510.817    512.915    510.817
 90.570    529.610    539.082     -9.472    510.666    536.903    510.666    512.856    510.666
 90.670    567.000    536.224     30.776    510.515    533.940    510.515    512.807    510.515
 90.770    540.000    534.179      5.821    510.362    531.777    510.362    512.769    510.362
 90.870    505.000    532.834    -27.834    510.208    530.297    510.208    512.747    510.208
 90.970    509.000    532.082    -23.082    510.053    529.392    510.053    512.744    510.053
 91.070    514.000    531.842    -17.842    509.896    528.972    509.896    512.766    509.896
 91.170    545.000    532.063     12.937    509.738    528.982    509.738    512.818    509.738
 91.270    537.000    532.730      4.270    509.579    529.398    509.579    512.909    509.579
 91.370    475.000    533.842    -58.842    509.419    530.210    509.419    513.048    509.419
 91.470    536.000    535.543      0.457    509.258    531.551    509.258    513.246    509.258
 91.570    575.522    537.947     37.575    509.095    533.522    509.095    513.515    509.095
 91.670    526.000    541.202    -15.202    508.932    536.258    508.932    513.868    508.932
 91.770    514.760    545.507    -30.747    508.767    539.942    508.767    514.321    508.767
 91.870    543.000    551.086     -8.086    508.601    544.785    508.601    514.887    508.601
 91.970    544.000    558.177    -14.177    508.433    551.011    508.433    515.582    508.433
 92.070    572.531    566.999      5.532    508.265    558.826    508.265    516.417    508.265
 92.170    559.000    577.736    -18.736    508.095    568.403    508.095    517.401    508.095
 92.270    594.000    590.506      3.494    507.924    579.856    507.924    518.541    507.924
 92.370    570.000    605.334    -35.334    507.753    593.209    507.753    519.837    507.753
 92.470    663.437    622.127     41.310    507.580    608.379    507.580    521.280    507.580
 92.570    632.000    640.656     -8.656    507.405    625.150    507.405    522.857    507.405
 92.670    667.000    660.541      6.459    507.230    643.169    507.230    524.541    507.230
 92.770    687.000    681.251      5.749    507.054    661.944    507.054    526.293    507.054
 92.870    707.000    702.120      4.880    506.876    680.862    506.876    528.061    506.876
 92.970    731.000    722.404      8.596    506.698    699.247    506.698    529.777    506.698
 93.070    754.085    741.372     12.713    506.518    716.456    506.518    531.353    506.518
 93.170    798.313    758.433     39.879    506.337    731.997    506.337    532.692    506.337
 93.270    803.098    773.254     29.844    506.155    745.638    506.155    533.690    506.155
 93.370    810.000    785.780     24.220    505.973    757.419    505.973    534.254    505.973
 93.470    774.305    796.171    -21.866    505.789    767.564    505.789    534.317    505.789
 93.570    858.556    804.725     53.831    505.604    776.393    505.604    533.859    505.604
 93.670    829.269    811.812     17.457    505.418    784.247    505.418    532.909    505.418
 93.770    861.000    817.861     43.139    505.230    791.486    505.230    531.535    505.230
 93.870    800.938    823.390    -22.452    505.042    798.528    505.042    529.836    505.042
 93.970    782.999    828.995    -45.995    504.853    805.869    504.853    527.913    504.853
 94.070    916.000    835.274     80.726    504.663    814.008    504.663    525.866    504.663
 94.170    896.000    842.669     53.331    504.472    823.302    504.472    523.777    504.472
 94.270    886.000    851.296     34.704    504.280    833.803    504.280    521.714    504.280
 94.370    823.966    860.841    -36.875    504.087    845.146    504.087    519.727    504.087
 94.470    846.000    870.537    -24.537    503.893    856.527    503.893    517.851    503.893
 94.570    941.000    879.218     61.782    503.698    866.756    503.698    516.113    503.698
 94.670    864.965    885.454    -20.489    503.502    874.389    503.502    514.526    503.502
 94.770    921.000    887.759     33.241    503.305    877.935    503.305    513.096    503.305
 94.870    850.268    884.876    -34.608    503.108    876.136    503.108    511.822    503.108
 94.970    893.000    876.069     16.931    502.909    868.262    502.909    510.699    502.909
 95.070    879.000    861.328     17.672    502.709    854.313    502.709    509.716    502.709
 95.170    881.000    841.391     39.609    502.509    835.037    502.509    508.861    502.509
 95.270    825.057    817.584      7.473    502.308    811.776    502.308    508.120    502.308
 95.370    788.000    791.598     -3.598    502.106    786.232    502.106    507.478    502.106
 95.470    779.956    765.269     14.687    501.902    760.259    501.902    506.922    501.902
 95.570    776.000    740.436     35.564    501.699    735.707    501.699    506.437    501.699
 95.670    726.000    718.838      7.162    501.494    714.327    501.494    506.012    501.494
 95.770    697.000    702.051     -5.051    501.288    697.705    501.288    505.637    501.288
 95.870    697.000    691.511      5.489    501.082    687.289    501.082    505.303    501.082
 95.970    676.000    688.431    -12.431    500.875    684.295    500.875    505.002    500.875
 96.070    644.025    693.824    -49.799    500.667    689.745    500.667    504.728    500.667
 96.170    728.018    708.507     19.511    500.458    704.461    500.458    504.477    500.458
 96.270    754.213    733.073     21.140    500.249    729.039    500.249    504.245    500.249
 96.370    722.000    767.843    -45.843    500.038    763.802    500.038    504.030    500.038
 96.470    860.000    812.795     47.205    499.827    808.733    499.827    503.830    499.827
 96.570    878.000    867.475     10.525    499.616    863.377    499.616    503.642    499.616
 96.670    984.000    930.898     53.102    499.403    926.751    499.403    503.467    499.403
 96.770   1013.000   1001.467     11.533    499.190    997.261    499.190    503.303    499.190
 96.870   1106.607   1076.925     29.682    498.976   1072.650    498.976    503.151    498.976
 96.970   1118.000   1154.340    -36.340    498.762   1149.987    498.762    503.010    498.762
 97.070   1232.000   1230.153      1.847    498.547   1225.713    498.547    502.880    498.547
 97.170   1338.409   1300.295     38.114    498.331   1295.761    498.331    502.763    498.331
 97.270   1403.907   1360.437     43.470    498.114   1355.800    498.114    502.658    498.114
 97.370   1418.651   1406.399     12.252    497.897   1401.650    497.897    502.566    497.897
 97.470   1459.000   1434.722     24.278    497.680   1429.849    497.680    502.490    497.680
 97.570   1466.000   1443.294     22.706    497.461   1438.286    497.461    502.428    497.461
 97.670   1384.476   1431.779    -47.303    497.243   1426.616    497.243    502.385    497.243
 97.770   1372.000   1401.626    -29.626    497.023   1396.287    497.023    502.363    497.023
 97.870   1353.000   1355.701     -2.701    496.803   1350.158    496.803    502.365    496.803
 97.970   1319.000   1297.730     21.270    496.583   1291.952    496.583    502.395    496.583
 98.070   1287.297   1231.788     55.509    496.362   1225.735    496.362    502.458    496.362
 98.170   1202.575   1161.924     40.651    496.140   1155.552    496.140    502.562    496.140
 98.270   1089.000   1091.931     -2.931    495.918   1085.185    495.918    502.716    495.918
 98.370   1038.819   1025.191     13.628    495.696   1018.007    495.696    502.931    495.696
 98.470    950.000    964.609    -14.609    495.473    956.907    495.473    503.222    495.473
 98.570    941.000    912.579     28.421    495.250    904.264    495.250    503.606    495.250
 98.670    867.992    871.006     -3.014    495.026    861.960    495.026    504.104    495.026
 98.770    804.306    841.343    -37.037    494.802    831.425    494.802    504.744    494.802
 98.870    832.656    824.660      7.996    494.577    813.698    494.577    505.554    494.577
 98.970    787.181    821.711    -34.531    494.352    809.499    494.352    506.569    494.352
 99.070    827.000    832.988     -5.988    494.126    819.282    494.126    507.829    494.126
 99.170    894.166    858.759     35.407    493.901    843.272    493.901    509.376    493.901
 99.270    845.040    899.060    -54.020    493.675    881.462    493.675    511.254    493.675
 99.370    910.222    953.653    -43.431    493.448    933.568    493.448    513.510    493.448
 99.470   1029.630   1022.002      7.628    493.222    999.011    493.222    516.186    493.222
 99.570   1088.000   1103.137    -15.137    492.995   1076.782    492.995    519.324    492.995
 99.670   1193.000   1195.581     -2.581    492.767   1165.369    492.767    522.956    492.767
 99.770   1297.476   1297.279      0.197    492.540   1262.697    492.540    527.106    492.540
 99.870   1370.000   1405.541    -35.541    492.312   1366.068    492.312    531.780    492.312
 99.970   1512.000   1517.035     -5.035    492.084   1472.157    492.084    536.971    492.084
100.070   1668.603   1627.860     40.742    491.856   1577.097    491.856    542.648    491.856
100.170   1774.000   1733.743     40.257    491.628   1676.666    491.628    548.755    491.628
100.270   1780.000   1830.348    -50.348    491.399   1766.615    491.399    555.207    491.399
100.370   1876.000   1913.660    -37.660    491.171   1843.044    491.171    561.887    491.171
100.470   2051.000   1980.307     70.693    490.942   1902.735    490.942    568.640    490.942
100.570   1968.779   2027.718    -58.938    490.713   1943.312    490.713    575.269    490.713
100.670   2137.000   2054.113     82.887    490.484   1963.231    490.484    581.538    490.484
100.770   2082.000   2058.483     23.517    490.255   1961.755    490.255    587.173    490.255
100.870   2019.320   2040.682    -21.362    490.026   1939.034    490.026    591.877    490.026
100.970   2057.428   2001.668     55.759    489.797   1896.318    489.797    595.359    489.797
101.070   1986.000   1943.720     42.280    489.568   1836.132    489.568    597.370    489.568
101.170   1867.000   1870.419     -3.419    489.339   1762.222    489.339    597.748    489.339
101.270   1801.000   1786.317     14.683    489.110   1679.185    489.110    596.447    489.110
101.370   1679.000   1696.387    -17.387    488.881   1591.914    488.881    593.548    488.881
101.470   1542.000   1605.458    -63.458    488.652   1505.047    488.652    589.243    488.652
101.570   1539.000   1517.771     21.229    488.423   1422.562    488.423    583.797    488.423
101.670   1460.541   1436.696     23.845    488.194   1347.532    488.194    577.508    488.194
101.770   1402.137   1364.597     37.539    487.965   1282.030    487.965    570.667    487.965
101.870   1335.000   1302.795     32.205    487.737   1227.112    487.737    563.539    487.737
101.970   1175.000   1251.602    -76.602    487.509   1182.868    487.509    556.349    487.509
102.070   1226.000   1210.416     15.584    487.280   1148.510    487.280    549.282    487.280
102.170   1099.000   1177.845    -78.845    487.052   1122.504    487.052    542.481    487.052
102.270   1200.672   1151.888     48.784    486.825   1102.741    486.825    536.054    486.825
102.370   1113.000   1130.146    -17.146    486.597   1086.746    486.597    530.077    486.597
102.470   1051.000   1110.091    -59.091    486.370   1071.943    486.370    524.598    486.370
102.570   1064.000   1089.370    -25.370    486.143   1055.954    486.143    519.640    486.143
102.670   1093.000   1066.104     26.896    485.916   1036.895    485.916    515.207    485.916
102.770   1010.000   1039.112    -29.112    485.690   1013.598    485.690    511.287    485.690
102.870    997.000   1007.985    -10.985    485.464    985.680    485.464    507.853    485.464
102.970    977.000    973.006      3.994    485.239    953.457    485.239    504.869    485.239
103.070    892.070    934.953    -42.884    485.014    917.751    485.014    502.295    485.014
103.170    885.000    894.896     -9.896    484.789    879.674    484.789    500.086    484.789
103.270    865.000    854.007     10.993    484.565    840.446    484.565    498.196    484.565
103.370    845.000    813.436     31.564    484.341    801.262    484.341    496.580    484.341
103.470    810.000    774.225     35.775    484.117    763.203    484.117    495.198    484.117
103.570    716.000    737.250    -21.250    483.895    727.185    483.895    494.012    483.895
103.670    768.000    703.189     64.811    483.672    693.920    483.672    492.988    483.672
103.770    675.000    672.507      2.493    483.451    663.900    483.451    492.097    483.451
103.870    683.000    645.456     37.544    483.230    637.404    483.230    491.315    483.230
103.970    602.000    622.098    -20.098    483.009    614.513    483.009    490.621    483.009
104.070    573.261    602.330    -29.069    482.789    595.142    482.789    489.999    482.789
104.170    543.365    585.920    -42.555    482.570    579.072    482.570    489.435    482.570
104.270    603.000    572.555     30.445    482.351    566.001    482.351    488.919    482.351
104.370    586.000    561.875     24.125    482.133    555.576    482.133    488.442    482.133
104.470    578.912    553.495     25.417    481.916    547.421    481.916    487.997    481.916
104.570    562.000    547.065     14.935    481.700    541.192    481.700    487.578    481.700
104.670    533.435    542.254     -8.820    481.484    536.558    481.484    487.183    481.484
104.770    539.000    538.779      0.221    481.270    533.241    481.270    486.809    481.270
104.870    560.000    536.409     23.591    481.056    531.011    481.056    486.453    481.056
104.970    553.000    534.969     18.031    480.843    529.697    480.843    486.112    480.843
105.070    496.202    534.337    -38.136    480.630    529.178    480.630    485.786    480.630
105.170    548.000    534.444     13.556    480.419    529.386    480.419    485.473    480.419
105.270    567.325    535.263     32.062    480.209    530.294    480.209    485.171    480.209
105.370    550.000    536.808     13.192    479.999    531.918    479.999    484.881    479.999
105.470    521.000    539.127    -18.127    479.791    534.306    479.791    484.601    479.791
105.570    575.000    542.293     32.707    479.583    537.533    479.583    484.331    479.583
105.670    589.000    546.396     42.604    479.377    541.688    479.377    484.071    479.377
105.770    536.498    551.529    -15.032    479.172    546.865    479.172    483.819    479.172
105.870    522.206    557.776    -35.570    478.967    553.148    478.967    483.575    478.967
105.970    571.494    565.195      6.299    478.764    560.596    478.764    483.340    478.764
106.070    580.000    573.805      6.195    478.562    569.229    478.562    483.112    478.562
106.170    576.000    583.577     -7.577    478.361    579.017    478.361    482.892    478.361
106.270    631.000    594.423     36.577    478.162    589.872    478.162    482.680    478.162
106.370    608.683    606.189      2.493    477.963    601.642    477.963    482.475    477.963
106.470    615.000    618.657     -3.657    477.766    614.107    477.766    482.276    477.766
106.570    677.369    631.543     45.827    477.570    626.986    477.570    482.085    477.570
106.670    678.534    644.507     34.026    477.376    639.939    477.376    481.900    477.376
106.770    673.203    657.166     16.037    477.183    652.580    477.183    481.723    477.183
106.870    704.120    669.104     35.016    476.991    664.496    476.991    481.552    476.991
106.970    677.129    679.905     -2.776    476.800    675.271    476.800    481.388    476.800
107.070    697.000    689.187      7.813    476.611    684.523    476.611    481.230    476.611
107.170    636.000    696.647    -60.647    476.424    691.948    476.424    481.080    476.424
107.270    655.205    702.118    -46.913    476.238    697.378    476.238    480.936    476.238
107.370    685.000    705.592    -20.592    476.053    700.809    476.053    480.799    476.053
107.470    676.000    707.243    -31.243    475.870    702.410    475.870    480.669    475.870
107.570    666.000    707.388    -41.388    475.689    702.500    475.689    480.547    475.689
107.670    708.642    706.442      2.200    475.509    701.494    475.509    480.431    475.509
107.770    658.549    704.852    -46.304    475.331    699.839    475.331    480.324    475.331
107.870    753.475    703.040     50.435    475.154    697.954    475.154    480.223    475.154
107.970    734.000    701.357     32.643    474.979    696.193    474.979    480.131    474.979
108.070    710.000    700.060      9.940    474.806    694.811    474.806    480.047    474.806
108.170    687.000    699.289    -12.289    474.635    693.949    474.635    479.971    474.635
108.270    701.760    699.061      2.699    474.465    693.622    474.465    479.903    474.465
108.370    681.000    699.270    -18.270    474.298    693.725    474.298    479.845    474.298
108.470    670.000    699.694    -29.694    474.132    694.036    474.132    479.796    474.132
108.570    668.576    700.017    -31.441    473.968    694.238    473.968    479.756    473.968
108.670    687.000    699.855    -12.855    473.806    693.947    473.806    479.727    473.806
108.770    674.000    698.804    -24.804    473.645    692.757    473.645    479.708    473.645
108.870    739.285    696.490     42.795    473.487    690.295    473.487    479.700    473.487
108.970    655.000    692.629    -37.629    473.331    686.276    473.331    479.704    473.331
109.070    661.621    687.071    -25.451    473.177    680.550    473.177    479.720    473.177
109.170    660.000    679.819    -19.819    473.025    673.118    473.025    479.749    473.025
109.270    719.000    671.019     47.981    472.875    664.125    472.875    479.791    472.875
109.370    652.000    660.925     -8.925    472.727    653.827    472.727    479.848    472.727
109.470    610.000    649.864    -39.864    472.582    642.547    472.582    479.921    472.582
109.570    632.216    638.190     -5.973    472.438    630.639    472.438    480.010    472.438
109.670    619.000    626.256     -7.256    472.297    618.456    472.297    480.117    472.297
109.770    623.000    614.394      8.606    472.158    606.327    472.158    480.243    472.158
109.870    605.293    602.902      2.392    472.022    594.550    472.022    480.390    472.022
109.970    597.000    592.030      4.970    471.887    583.372    471.887    480.560    471.887
110.070    607.535    581.959     25.576    471.756    572.972    471.756    480.755    471.756
110.170    591.000    572.871     18.129    471.626    563.528    471.626    480.979    471.626
110.270    584.000    564.882     19.118    471.499    555.155    471.499    481.235    471.499
110.370    592.517    558.026     34.491    471.375    547.881    471.375    481.527    471.375
110.470    554.000    552.310      1.690    471.253    541.707    471.253    481.860    471.253
110.570    556.000    547.705      8.295    471.133    536.600    471.133    482.241    471.133
110.670    568.000    544.159     23.841    471.017    532.499    471.017    482.678    471.017
110.770    496.038    541.597    -45.560    470.902    529.321    470.902    483.179    470.902
110.870    564.000    539.936     24.064    470.791    526.969    470.791    483.756    470.791
110.970    578.000    539.087     38.913    470.682    525.344    470.682    484.422    470.682
111.070    522.328    538.965    -16.637    470.576    524.343    470.576    485.194    470.576
111.170    541.000    539.490      1.510    470.473    523.868    470.473    486.089    470.473
111.270    547.000    540.595      6.405    470.372    523.830    470.372    487.131    470.372
111.370    546.000    542.224      3.776    470.275    524.148    470.275    488.345    470.275
111.470    577.986    544.338     33.649    470.180    524.751    470.180    489.760    470.180
111.570    515.000    546.908    -31.908    470.088    525.580    470.088    491.409    470.088
111.670    575.000    549.925     25.075    469.999    526.587    469.999    493.329    469.999
111.770    590.000    553.392     36.608    469.913    527.734    469.913    495.562    469.913
111.870    580.000    557.327     22.673    469.830    528.997    469.830    498.152    469.830
111.970    564.000    561.763      2.237    469.751    530.358    469.751    501.146    469.751
112.070    604.571    566.746     37.825    469.674    531.816    469.674    504.595    469.674
112.170    551.224    572.332    -21.108    469.601    533.375    469.601    508.547    469.601
112.270    607.000    578.587     28.413    469.530    535.052    469.530    513.055    469.530
112.370    597.151    585.585     11.566    469.463    536.871    469.463    518.167    469.463
112.470    618.290    593.404     24.886    469.399    538.865    469.399    523.927    469.399
112.570    600.000    602.126     -2.126    469.339    541.079    469.339    530.375    469.339
112.670    577.000    611.838    -34.838    469.282    543.566    469.282    537.542    469.282
112.770    634.000    622.629     11.371    469.228    546.397    469.228    545.449    469.228
112.870    627.000    634.596     -7.596    469.178    549.660    469.178    554.102    469.178
112.970    636.000    647.848    -11.848    469.131    553.472    469.131    563.494    469.131
113.070    665.000    662.509      2.491    469.087    557.985    469.087    573.598    469.087
113.170    657.000    678.731    -21.731    469.048    563.396    469.048    584.368    469.048
113.270    660.000    696.704    -36.704    469.011    569.964    469.011    595.735    469.011
113.370    682.000    716.669    -34.669    468.979    578.026    468.979    607.603    468.979
113.470    774.290    738.937     35.352    468.950    588.016    468.950    619.849    468.950
113.570    735.000    763.908    -28.908    468.925    600.488    468.925    632.320    468.925
113.670    823.000    792.093     30.907    468.903    616.138    468.903    644.829    468.903
113.770    795.000    824.138    -29.138    468.886    635.834    468.886    657.154    468.886
113.870    817.000    860.849    -43.849    468.872    660.638    468.872    669.040    468.872
113.970    925.892    903.217     22.675    468.862    691.827    468.862    680.198    468.862
114.070    994.000    952.438     41.562    468.856    730.913    468.856    690.317    468.856
114.170    951.000   1009.942    -58.942    468.854    779.646    468.854    699.071    468.854
114.270   1052.000   1077.398    -25.398    468.856    840.014    468.856    706.143    468.856
114.370   1122.000   1156.728    -34.728    468.862    914.220    468.862    711.252    468.862
114.470   1185.000   1250.088    -65.088    468.872   1004.640    468.872    714.177    468.872
114.570   1303.000   1359.831    -56.831    468.886   1113.760    468.886    714.784    468.886
114.670   1552.000   1488.435     63.565    468.905   1244.086    468.905    713.048    468.905
114.770   1647.576   1638.392      9.184    468.927   1398.028    468.927    709.047    468.927
114.870   1886.240   1812.052     74.188    468.954   1577.759    468.954    702.961    468.954
114.970   2052.593   2011.447     41.146    468.985   1785.057    468.985    695.044    468.985
115.070   2168.340   2238.086    -69.747    469.021   2021.128    469.021    685.599    469.021
115.170   2522.397   2492.750     29.647    469.061   2286.430    469.061    674.951    469.061
115.270   3022.000   2775.294    246.706    469.106   2580.499    469.106    663.420    469.106
115.370   3105.185   3084.477     20.707    469.155   2901.793    469.155    651.309    469.155
115.470   3459.000   3417.830     41.170    469.208   3247.573    469.208    638.890    469.208
115.570   3724.354   3771.567    -47.212    469.266   3613.814    469.266    626.402    469.266
115.670   4351.000   4140.551    210.449    469.329   3995.180    469.329    614.049    469.329
115.770   4606.000   4518.322     87.678    469.396   4385.042    469.396    602.002    469.396
115.870   4923.932   4897.181     26.751    469.468   4775.563    469.468    590.399    469.468
115.970   5306.630   5268.337     38.293    469.545   5157.847    469.545    579.349    469.545
116.070   5690.354   5622.126     68.227    469.627   5522.149    469.627    568.934    469.627
116.170   5907.000   5948.309    -41.309    469.713   5858.172    469.713    559.212    469.713
116.270   6225.000   6236.463    -11.463    469.805   6155.462    469.805    550.215    469.805
116.370   6647.000   6476.509    170.491    469.901   6403.915    469.901    541.969    469.901
116.470   6757.063   6659.329     97.733    470.003   6594.415    470.003    534.469    470.003
116.570   6920.104   6777.495    142.609    470.109   6719.546    470.109    527.702    470.109
116.670   6926.327   6825.967    100.360    470.221   6774.291    470.221    521.642    470.221
116.770   6851.000   6802.630     48.370    470.338   6756.565    470.338    516.252    470.338
116.870   6710.872   6708.532      2.340    470.460   6667.454    470.460    511.492    470.460
116.970   6575.000   6547.742     27.258    470.587   6511.069    470.587    507.314    470.587
117.070   6385.000   6326.880     58.120    470.719   6294.076    470.719    503.668    470.719
117.170   6095.835   6054.464     41.371    470.857   6025.041    470.857    500.503    470.857
117.270   5560.000   5740.217   -180.217    471.000   5713.735    471.000    497.771    471.000
117.370   5423.534   5394.317     29.217    471.149   5370.384    471.149    495.421    471.149
117.470   4969.325   5026.927    -57.602    471.303   5005.196    471.303    493.408    471.303
117.570   4688.860   4647.754     41.106    471.463   4627.924    471.463    491.689    471.463
117.670   4173.000   4265.729    -92.729    471.628   4247.543    471.628    490.218    471.628
117.770   3827.000   3888.801    -61.801    471.799   3872.027    471.799    488.974    471.799
117.870   3579.000   3523.743     55.257    471.976   3508.186    471.976    487.920    471.976
117.970   3133.000   3176.087    -43.087    472.158   3161.583    472.158    487.028    472.158
118.070   2880.000   2850.095     29.905    472.346   2836.506    472.346    486.273    472.346
118.170   2541.000   2548.794     -7.794    472.540   2536.004    472.540    485.636    472.540
118.270   2248.531   2274.049    -25.518    472.740   2261.961    472.740    485.099    472.740
118.370   2059.618   2026.687     32.931    472.946   2015.221    472.946    484.648    472.946
118.470   1746.000   1806.635    -60.635    473.158   1795.724    473.158    484.271    473.158
118.570   1590.000   1613.077    -23.077    473.376   1602.665    473.376    483.958    473.376
118.670   1400.000   1444.612    -44.612    473.600   1434.652    473.600    483.699    473.600
118.770   1200.000   1299.418    -99.418    473.830   1289.871    473.830    483.490    473.830
118.870   1116.000   1175.398    -59.398    474.067   1166.230    474.067    483.323    474.067
118.970   1085.191   1070.314     14.876    474.309   1061.497    474.309    483.194    474.309
119.070    948.000    981.905    -33.905    474.558    973.413    474.558    483.101    474.558
119.170    892.000    907.972    -15.972    474.814    899.784    474.814    483.039    474.814
119.270    805.230    846.453    -41.223    475.076    838.548    475.076    483.007    475.076
119.370    802.000    795.462      6.538    475.344    787.821    475.344    483.003    475.344
119.470    745.546    753.317     -7.770    475.619    745.923    475.619    483.025    475.619
119.570    734.735    718.548     16.187    475.900    711.385    475.900    483.071    475.900
119.670    671.310    689.896    -18.586    476.188    682.947    476.188    483.142    476.188
119.770    675.000    666.296      8.704    476.483    659.546    476.483    483.236    476.483
119.870    669.000    646.864     22.136    476.784    640.298    476.784    483.353    476.784
119.970    634.429    630.874      3.556    477.093    624.476    477.093    483.492    477.093
120.070    589.000    617.733    -28.733    477.408    611.488    477.408    483.654    477.408
120.170    580.000    606.966    -26.966    477.730    600.860    477.730    483.838    477.730
120.270    561.000    598.194    -37.194    478.059    592.211    478.059    484.043    478.059
120.370    566.000    591.113    -25.113    478.395    585.239    478.395    484.271    478.395
120.470    595.160    585.487      9.673    478.738    579.706    478.738    484.522    478.738
120.570    599.000    581.127     17.873    479.089    575.424    479.089    484.795    479.089
120.670    621.198    577.886     43.312    479.446    572.246    479.446    485.090    479.446
120.770    536.000    575.648    -39.648    479.811    570.056    479.811    485.408    479.811
120.870    528.000    574.320    -46.320    480.183    568.760    480.183    485.749    480.183
120.970    588.000    573.828     14.172    480.563    568.283    480.563    486.113    480.563
121.070    584.000    574.107      9.893    480.949    568.564    480.949    486.501    480.949
121.170    603.000    575.104     27.896    481.344    569.546    481.344    486.911    481.344
121.270    597.366    576.765     20.601    481.746    571.178    481.746    487.343    481.746
121.370    569.000    579.040    -10.040    482.155    573.409    482.155    487.799    482.155
121.470    611.829    581.876     29.954    482.573    576.186    482.573    488.276    482.573
121.570    627.598    585.213     42.385    482.998    579.452    482.998    488.775    482.998
121.670    584.000    588.988     -4.988    483.430    583.143    483.430    489.294    483.430
121.770    562.778    593.129    -30.351    483.871    587.188    483.871    489.832    483.871
121.870    623.000    597.557     25.443    484.319    591.510    484.319    490.389    484.319
121.970    588.000    602.183    -14.183    484.776    596.023    484.776    490.962    484.776
122.070    613.628    606.914      6.714    485.240    600.632    485.240    491.550    485.240
122.170    628.000    611.644     16.356    485.713    605.238    485.713    492.150    485.713
122.270    662.964    616.269     46.695    486.194    609.735    486.194    492.761    486.194
122.370    615.000    620.676     -5.676    486.683    614.016    486.683    493.379    486.683
122.470    629.070    624.755      4.315    487.180    617.973    487.180    494.000    487.180
122.570    653.518    628.399     25.120    487.685    621.502    487.685    494.623    487.685
122.670    600.000    631.509    -31.509    488.199    624.508    488.199    495.243    488.199
122.770    646.000    634.003     11.997    488.722    626.913    488.722    495.856    488.722
122.870    619.979    635.818    -15.839    489.252    628.657    489.252    496.459    489.252
122.970    629.200    636.913     -7.714    489.792    629.704    489.792    497.047    489.792
123.070    616.985    637.277    -20.292    490.340    630.044    490.340    497.619    490.340
123.170    672.385    636.920     35.465    490.897    629.692    490.897    498.171    490.897
123.270    665.047    635.879     29.169    491.462    628.685    491.462    498.701    491.462
123.370    647.280    634.207     13.073    492.037    627.078    492.037    499.210    492.037
123.470    652.000    631.973     20.027    492.620    624.939    492.620    499.697    492.620
123.570    612.413    629.254    -16.841    493.212    622.343    493.212    500.165    493.212
123.670    659.056    626.133     32.924    493.814    619.371    493.814    500.614    493.814
123.770    650.000    622.692     27.308    494.424    616.102    494.424    501.049    494.424
123.870    603.255    619.013    -15.758    495.043    612.616    495.043    501.474    495.043
123.970    629.198    615.172     14.026    495.672    608.985    495.672    501.890    495.672
124.070    651.310    611.240     40.070    496.310    605.274    496.310    502.303    496.310
124.170    603.000    607.276     -4.276    496.958    601.542    496.958    502.716    496.958
124.270    611.000    603.333      7.667    497.614    597.836    497.614    503.133    497.614
124.370    608.000    599.451      8.549    498.281    594.195    498.281    503.556    498.281
124.470    567.673    595.661    -27.988    498.956    590.646    498.956    503.988    498.956
124.570    616.501    591.983     24.518    499.642    587.207    499.642    504.432    499.642
124.670    620.150    588.430     31.719    500.337    583.889    500.337    504.890    500.337
124.770    612.000    585.008     26.992    501.042    580.696    501.042    505.363    501.042
124.870    563.666    581.715    -18.049    501.756    577.626    501.756    505.854    501.756
124.970    577.217    578.550     -1.333    502.481    574.674    502.481    506.363    502.481
