neutron_powder_diffraction_0062
R_wp: 4.236
Temperature (K): 707.373
Counts: 83682.00
Wavelength (Ã…): 2.52098
COMMENTS
Test file for demonstrating the .xyy file format in Reel1.0
END OF HEADER
   tth       Y_obs     Y_calc      Y_res    Background    Phase_1_Nuc    Phase_1_Mag    Phase_2_Nuc    Phase_2_Mag
  9.970    682.866    641.380     41.486    640.141    641.134    640.387    640.141    640.141
 10.070    674.000    641.421     32.579    640.100    641.172    640.349    640.100    640.100
 10.170    700.000    641.467     58.533    640.053    641.215    640.305    640.053    640.053
 10.270    703.000    641.521     61.479    640.001    641.266    640.255    640.001    640.001
 10.370    622.000    641.585    -19.585    639.942    641.327    640.199    639.942    639.942
 10.470    652.000    641.663     10.337    639.878    641.402    640.137    639.878    639.878
 10.570    630.000    641.759    -11.759    639.808    641.495    640.070    639.808    639.808
 10.670    696.728    641.880     54.848    639.732    641.613    639.998    639.732    639.732
 10.770    664.000    642.035     21.965    639.651    641.766    639.920    639.651    639.651
 10.870    642.000    642.231     -0.231    639.565    641.958    639.836    639.565    639.565
 10.970    681.000    642.483     38.517    639.472    642.207    639.747    639.472    639.472
 11.070    641.547    642.812     -1.264    639.375    642.532    639.653    639.375    639.375
 11.170    678.000    643.246     34.754    639.272    642.963    639.553    639.272    639.272
 11.270    633.921    643.828     -9.906    639.164    643.541    639.448    639.164    639.164
 11.370    693.877    644.627     49.250    639.050    644.336    639.338    639.050    639.050
 11.470    641.258    645.777     -4.520    638.932    645.483    639.222    638.932    638.932
 11.570    678.000    647.609     30.391    638.808    647.310    639.102    638.808    638.808
 11.670    689.000    650.985     38.015    638.679    650.681    638.977    638.679    638.679
 11.770    657.312    657.287      0.025    638.545    656.977    638.846    638.545    638.545
 11.870    659.180    669.364    -10.183    638.406    669.043    638.711    638.406    638.406
 11.970    788.000    690.222     97.778    638.263    689.886    638.571    638.263    638.263
 12.070    753.821    720.413     33.409    638.114    720.056    638.426    638.114    638.114
 12.170    749.442    753.681     -4.238    637.961    753.302    638.276    637.961    637.961
 12.270    798.000    774.136     23.864    637.802    773.742    638.122    637.802    637.802
 12.370    788.000    767.289     20.711    637.640    766.895    637.963    637.640    637.640
 12.470    695.306    738.673    -43.367    637.472    738.291    637.799    637.472    637.472
 12.570    741.000    705.374     35.626    637.300    705.005    637.631    637.300    637.300
 12.670    667.000    678.859    -11.859    637.123    678.501    637.458    637.123    637.123
 12.770    683.000    661.854     21.146    636.942    661.501    637.281    636.942    636.942
 12.870    598.000    652.348    -54.348    636.756    651.996    637.100    636.756    636.756
 12.970    623.000    647.310    -24.310    636.566    646.957    636.914    636.566    636.566
 13.070    668.000    644.495     23.505    636.372    644.138    636.724    636.372    636.372
 13.170    706.000    642.708     63.292    636.173    642.347    636.530    636.173    636.173
 13.270    634.000    641.433     -7.433    635.970    641.069    636.332    635.970    635.970
 13.370    634.000    640.449     -6.449    635.763    640.080    636.130    635.763    635.763
 13.470    583.622    639.633    -56.011    635.552    639.260    635.923    635.552    635.552
 13.570    618.000    638.945    -20.945    635.336    638.567    635.713    635.336    635.336
 13.670    675.199    638.350     36.849    635.117    637.967    635.498    635.117    635.117
 13.770    577.000    637.823    -60.823    634.893    637.436    635.280    634.893    634.893
 13.870    637.004    637.349     -0.345    634.666    636.956    635.058    634.666    634.666
 13.970    585.236    636.914    -51.678    634.435    636.516    634.832    634.435    634.435
 14.070    586.000    636.509    -50.509    634.200    636.106    634.602    634.200    634.200
 14.170    621.000    636.128    -15.128    633.961    635.720    634.369    633.961    633.961
 14.270    647.000    635.765     11.235    633.718    635.351    634.132    633.718    633.718
 14.370    605.000    635.417    -30.417    633.472    634.997    633.891    633.472    633.472
 14.470    618.170    635.080    -16.910    633.222    634.654    633.647    633.222    633.222
 14.570    604.000    634.754    -30.754    632.968    634.322    633.399    632.968    632.968
 14.670    587.000    634.432    -47.432    632.711    633.995    633.148    632.711    632.711
 14.770    582.000    634.116    -52.116    632.450    633.672    632.893    632.450    632.450
 14.870    608.000    633.805    -25.805    632.186    633.354    632.636    632.186    632.186
 14.970    669.561    633.500     36.060    631.918    633.043    632.375    631.918    631.918
 15.070    643.578    633.194     10.384    631.647    632.731    632.110    631.647    631.647
 15.170    566.000    632.889    -66.889    631.373    632.419    631.843    631.373    631.373
 15.270    661.000    632.585     28.415    631.095    632.107    631.572    631.095    631.095
 15.370    644.264    632.281     11.983    630.814    631.797    631.298    630.814    630.814
 15.470    651.000    631.978     19.022    630.530    631.486    631.022    630.530    630.530
 15.570    586.000    631.679    -45.679    630.243    631.180    630.742    630.243    630.243
 15.670    613.000    631.378    -18.378    629.952    630.871    630.459    629.952    629.952
 15.770    615.000    631.073    -16.073    629.659    630.559    630.174    629.659    629.659
 15.870    598.000    630.775    -32.775    629.362    630.252    629.885    629.362    629.362
 15.970    620.000    630.536    -10.536    629.063    630.005    629.594    629.063    629.063
 16.070    666.000    630.241     35.759    628.761    629.702    629.300    628.761    628.761
 16.170    647.000    629.934     17.066    628.455    629.386    629.003    628.455    628.455
 16.270    647.000    629.624     17.376    628.147    629.067    628.704    628.147    628.147
 16.370    573.319    629.313    -55.994    627.836    628.747    628.402    627.836    627.836
 16.470    670.558    629.000     41.557    627.523    628.425    628.098    627.523    627.523
 16.570    627.000    628.686     -1.686    627.206    628.102    627.791    627.206    627.206
 16.670    624.000    628.374     -4.374    626.887    627.780    627.481    626.887    626.887
 16.770    593.000    628.088    -35.088    626.566    627.484    627.170    626.566    626.566
 16.870    644.354    627.801     16.553    626.241    627.185    626.857    626.241    626.241
 16.970    619.000    627.538     -8.538    625.914    626.905    626.547    625.914    625.914
 17.070    633.000    627.223      5.777    625.585    626.578    626.229    625.585    625.585
 17.170    579.859    626.900    -47.042    625.253    626.245    625.909    625.253    625.253
 17.270    581.580    626.576    -44.997    624.919    625.910    625.586    624.919    624.919
 17.370    603.750    626.251    -22.501    624.582    625.573    625.261    624.582    624.582
 17.470    607.000    625.924    -18.924    624.243    625.234    624.934    624.243    624.243
 17.570    676.217    625.596     50.621    623.902    624.893    624.604    623.902    623.902
 17.670    641.000    625.267     15.733    623.558    624.551    624.273    623.558    623.558
 17.770    636.000    624.940     11.060    623.212    624.212    623.941    623.212    623.212
 17.870    663.659    624.617     39.042    622.864    623.875    623.606    622.864    622.864
 17.970    632.000    624.284      7.716    622.514    623.528    623.270    622.514    622.514
 18.070    600.148    623.949    -23.801    622.162    623.180    622.931    622.162    622.162
 18.170    601.000    623.613    -22.613    621.808    622.829    622.592    621.808    621.808
 18.270    631.000    623.276      7.724    621.451    622.477    622.250    621.451    621.451
 18.370    590.401    622.938    -32.537    621.093    622.124    621.907    621.093    621.093
 18.470    587.102    622.599    -35.497    620.733    621.769    621.562    620.733    620.733
 18.570    636.945    622.260     14.685    620.370    621.414    621.216    620.370    620.370
 18.670    601.000    621.939    -20.939    620.006    621.076    620.870    620.006    620.006
 18.770    581.000    621.612    -40.612    619.640    620.731    620.522    619.640    619.640
 18.870    657.397    621.301     36.096    619.272    620.401    620.172    619.272    619.272
 18.970    657.859    620.969     36.890    618.903    620.048    619.824    618.903    618.903
 19.070    595.000    620.627    -25.627    618.531    619.687    619.471    618.531    618.531
 19.170    605.000    620.294    -15.294    618.158    619.334    619.118    618.158    618.158
 19.270    600.000    619.975    -19.975    617.784    618.995    618.764    617.784    617.784
 19.370    600.000    619.693    -19.693    617.407    618.691    618.409    617.407    617.407
 19.470    606.000    619.366    -13.366    617.030    618.343    618.052    617.030    617.030
 19.570    610.000    619.025     -9.025    616.650    617.980    617.695    616.650    616.650
 19.670    565.000    618.689    -53.689    616.269    617.621    617.337    616.269    616.269
 19.770    576.000    618.358    -42.358    615.887    617.267    616.978    615.887    615.887
 19.870    565.000    618.031    -53.031    615.503    616.914    616.619    615.503    615.503
 19.970    620.625    617.718      2.907    615.117    616.576    616.259    615.117    615.117
 20.070    674.331    617.376     56.954    614.731    616.208    615.899    614.731    614.731
 20.170    626.000    617.031      8.969    614.343    615.835    615.538    614.343    614.343
 20.270    575.918    616.686    -40.768    613.953    615.463    615.177    613.953    613.953
 20.370    565.964    616.349    -50.385    613.563    615.095    614.816    613.563    613.563
 20.470    590.000    616.016    -26.016    613.171    614.730    614.457    613.171    613.171
 20.570    561.000    615.680    -54.680    612.778    614.362    614.096    612.778    612.778
 20.670    653.046    615.342     37.704    612.383    613.992    613.734    612.383    612.383
 20.770    627.000    615.002     11.998    611.988    613.618    613.373    611.988    611.988
 20.870    565.000    614.663    -49.663    611.592    613.243    613.011    611.592    611.592
 20.970    579.000    614.324    -35.324    611.194    612.868    612.650    611.194    611.194
 21.070    582.000    613.988    -31.988    610.795    612.494    612.289    610.795    610.795
 21.170    613.000    613.654     -0.654    610.396    612.121    611.929    610.396    610.396
 21.270    575.098    613.323    -38.225    609.995    611.748    611.569    609.995    609.995
 21.370    612.000    612.993     -0.993    609.593    611.376    611.210    609.593    609.593
 21.470    602.000    612.665    -10.665    609.191    611.003    610.852    609.191    609.191
 21.570    612.000    612.341     -0.341    608.787    610.633    610.495    608.787    608.787
 21.670    565.000    612.021    -47.021    608.383    610.265    610.140    608.383    608.383
 21.770    592.000    611.703    -19.703    607.978    609.896    609.785    607.978    607.978
 21.870    608.109    611.389     -3.280    607.572    609.529    609.432    607.572    607.572
 21.970    589.600    611.080    -21.479    607.166    609.165    609.081    607.166    607.166
 22.070    629.000    610.775     18.225    606.758    608.803    608.731    606.758    606.758
 22.170    584.000    610.476    -26.476    606.350    608.443    608.383    606.350    606.350
 22.270    597.199    610.183    -12.985    605.941    608.087    608.038    605.941    605.941
 22.370    638.000    609.898     28.102    605.532    607.735    607.695    605.532    605.532
 22.470    612.000    609.620      2.380    605.122    607.388    607.355    605.122    605.122
 22.570    627.000    609.351     17.649    604.711    607.046    607.017    604.711    604.711
 22.670    593.000    609.093    -16.093    604.300    606.710    606.683    604.300    604.300
 22.770    585.000    608.845    -23.845    603.888    606.382    606.352    603.888    603.888
 22.870    592.000    608.611    -16.611    603.476    606.064    606.024    603.476    603.476
 22.970    589.000    608.393    -19.393    603.064    605.756    605.701    603.064    603.064
 23.070    645.478    608.193     37.284    602.650    605.462    605.382    602.650    602.650
 23.170    647.805    608.014     39.790    602.237    605.184    605.068    602.237    602.237
 23.270    612.000    607.860      4.140    601.823    604.924    604.760    601.823    601.823
 23.370    623.000    607.737     15.263    601.409    604.690    604.456    601.409    601.409
 23.470    572.000    607.650    -35.650    600.994    604.485    604.160    600.994    600.994
 23.570    606.426    607.610     -1.184    600.579    604.321    603.869    600.579    600.579
 23.670    634.000    607.628     26.372    600.164    604.206    603.587    600.164    600.164
 23.770    643.000    607.722     35.278    599.749    604.160    603.312    599.749    599.749
 23.870    619.000    607.916     11.084    599.333    604.204    603.046    599.333    599.333
 23.970    554.565    608.246    -53.681    598.917    604.376    602.790    598.917    598.917
 24.070    586.809    608.781    -21.972    598.501    604.741    602.544    598.501    598.501
 24.170    603.801    609.664     -5.863    598.085    605.443    602.309    598.085    598.085
 24.270    632.000    611.229     20.771    597.669    606.816    602.087    597.669    597.669
 24.370    578.247    614.217    -35.970    597.252    609.597    601.879    597.252    597.252
 24.470    651.921    619.986     31.935    596.836    615.147    601.686    596.836    596.836
 24.570    667.906    630.369     37.537    596.419    625.297    601.510    596.419    596.419
 24.670    641.000    646.684     -5.684    596.003    641.363    601.354    596.003    596.003
 24.770    707.000    667.718     39.282    595.586    662.132    601.218    595.586    595.586
 24.870    652.156    687.295    -35.139    595.170    681.422    601.104    595.170    595.170
 24.970    689.000    694.591     -5.591    594.753    688.395    601.015    594.753    594.753
 25.070    686.000    683.887      2.113    594.337    677.327    600.955    594.337    594.337
 25.170    654.000    663.023     -9.023    593.921    656.060    600.927    593.921    593.921
 25.270    705.000    642.615     62.385    593.505    635.214    600.934    593.505    593.505
 25.370    687.000    627.650     59.350    593.089    619.774    600.982    593.089    593.089
 25.470    651.000    618.544     32.456    592.673    610.153    601.075    592.673    592.673
 25.570    649.000    613.708     35.292    592.257    604.751    601.220    592.257    592.257
 25.670    644.000    611.350     32.650    591.842    601.770    601.426    591.842    591.842
 25.770    562.677    610.257    -47.580    591.427    599.988    601.699    591.427    591.427
 25.870    639.000    609.816     29.184    591.012    598.781    602.049    591.012    591.012
 25.970    642.000    609.772     32.228    590.598    597.881    602.490    590.598    590.598
 26.070    587.919    610.025    -22.107    590.183    597.174    603.036    590.183    590.183
 26.170    651.142    610.543     40.598    589.770    596.609    603.705    589.770    589.770
 26.270    641.000    611.319     29.681    589.356    596.156    604.520    589.356    589.356
 26.370    600.000    612.365    -12.365    588.943    595.800    605.508    588.943    588.943
 26.470    609.000    613.707     -4.707    588.530    595.534    606.703    588.530    588.530
 26.570    574.777    615.387    -40.610    588.118    595.355    608.149    588.118    588.118
 26.670    645.000    617.463     27.537    587.706    595.267    609.901    587.706    587.706
 26.770    645.000    620.014     24.986    587.295    595.277    612.030    587.295    587.295
 26.870    588.754    623.150    -34.397    586.884    595.401    614.631    586.884    586.884
 26.970    629.000    627.017      1.983    586.473    595.659    617.829    586.473    586.473
 27.070    659.000    631.815     27.185    586.063    596.083    621.793    586.063    586.063
 27.170    673.000    637.824     35.176    585.654    596.715    626.759    585.654    585.654
 27.270    709.000    645.439     63.561    585.245    597.620    633.061    585.245    585.245
 27.370    687.000    655.255     31.745    584.837    598.892    641.196    584.837    584.837
 27.470    728.000    668.251     59.749    584.430    600.688    651.987    584.430    584.430
 27.570    703.000    686.415     16.585    584.023    603.326    667.103    584.023    584.023
 27.670    764.000    714.661     49.339    583.616    607.589    690.676    583.616    583.616
 27.770    784.000    765.582     18.418    583.211    615.473    733.298    583.211    583.211
 27.870    828.000    867.103    -39.103    582.806    631.406    818.462    582.806    582.806
 27.970   1061.994   1066.169     -4.175    582.402    662.827    985.666    582.402    582.402
 28.070   1297.000   1412.134   -115.134    581.998    717.565   1276.432    581.998    581.998
 28.170   1841.320   1907.955    -66.635    581.596    796.127   1693.223    581.596    581.596
 28.270   2505.278   2442.144     63.134    581.194    880.963   2142.139    581.194    581.194
 28.370   2801.000   2763.091     37.909    580.792    932.464   2411.227    580.792    580.792
 28.470   2725.000   2667.242     57.758    580.392    918.857   2328.698    580.392    580.392
 28.570   2130.000   2270.842   -140.842    579.992    859.341   1991.506    579.992    579.992
 28.670   1771.000   1860.340    -89.340    579.594    800.418   1639.555    579.594    579.594
 28.770   1569.000   1630.847    -61.847    579.196    774.005   1436.066    579.196    579.196
 28.870   1493.000   1619.737   -126.737    578.799    785.773   1412.772    578.799    578.799
 28.970   1685.000   1737.590    -52.590    578.403    818.491   1497.511    578.403    578.403
 29.070   1792.072   1817.564    -25.491    578.008    839.211   1556.400    578.008    578.008
 29.170   1726.000   1727.223     -1.223    577.613    821.554   1483.364    577.613    577.613
 29.270   1574.000   1489.706     84.294    577.220    771.520   1295.506    577.220    577.220
 29.370   1244.000   1217.387     26.613    576.827    713.652   1080.650    576.827    576.827
 29.470   1033.000    992.599     40.401    576.436    665.790    903.307    576.436    576.436
 29.570    880.000    840.310     39.690    576.046    633.370    783.024    576.046    576.046
 29.670    814.000    749.968     64.032    575.656    614.172    711.473    575.656    575.656
 29.770    772.000    699.860     72.140    575.268    603.570    671.568    575.268    575.268
 29.870    783.000    671.602    111.398    574.880    597.644    648.844    574.880    574.880
 29.970    715.000    654.184     60.816    574.494    594.055    634.626    574.494    574.494
 30.070    585.951    642.294    -56.343    574.109    591.691    624.713    574.109    574.109
 30.170    730.000    633.653     96.347    573.725    590.102    617.276    573.725    573.725
 30.270    657.516    627.335     30.181    573.342    589.166    611.510    573.342    573.342
 30.370    721.000    623.086     97.914    572.960    588.986    607.056    572.960    572.960
 30.470    619.663    621.197     -1.534    572.579    589.949    603.822    572.579    572.579
 30.570    707.000    622.553     84.447    572.199    592.803    601.940    572.199    572.199
 30.670    700.000    628.492     71.508    571.821    598.585    601.712    571.821    571.821
 30.770    665.000    640.151     24.849    571.443    608.166    603.404    571.443    571.443
 30.870    697.000    657.142     39.858    571.067    621.320    606.854    571.067    571.067
 30.970    637.250    675.723    -38.473    570.692    635.438    610.931    570.692    570.692
 31.070    675.000    687.798    -12.798    570.318    644.819    613.247    570.318    570.318
 31.170    648.955    685.350    -36.394    569.946    643.811    611.438    569.946    569.946
 31.270    706.000    668.840     37.160    569.575    632.758    605.620    569.575    569.575
 31.370    694.078    646.530     47.547    569.205    617.523    598.186    569.205    569.205
 31.470    639.000    626.081     12.919    568.836    603.541    591.359    568.836    568.836
 31.570    640.000    610.802     29.198    568.468    593.166    586.093    568.468    568.468
 31.670    570.647    600.785    -30.138    568.102    586.473    582.407    568.102    568.102
 31.770    663.000    594.702     68.298    567.737    582.530    579.904    567.737    567.737
 31.870    648.000    591.053     56.947    567.374    580.282    578.142    567.374    567.374
 31.970    553.034    588.751    -35.717    567.011    578.964    576.796    567.011    567.011
 32.070    558.597    587.183    -28.585    566.651    578.150    575.681    566.651    566.651
 32.170    574.124    586.055    -11.931    566.291    577.637    574.706    566.291    566.291
 32.270    608.000    585.240     22.760    565.933    577.342    573.829    565.933    565.933
 32.370    590.000    584.686      5.314    565.576    577.233    573.027    565.576    565.576
 32.470    527.568    584.372    -56.804    565.221    577.303    572.288    565.221    565.221
 32.570    634.000    584.297     49.703    564.867    577.560    571.603    564.867    564.867
 32.670    595.000    584.478     10.522    564.514    578.024    570.966    564.514    564.514
 32.770    613.000    584.945     28.055    564.163    578.730    570.376    564.163    564.163
 32.870    617.954    585.749     32.205    563.813    579.730    569.830    563.813    563.813
 32.970    559.255    586.966    -27.711    563.465    581.100    569.329    563.465    563.465
 33.070    579.000    588.714     -9.714    563.118    582.952    568.878    563.118    563.118
 33.170    660.000    591.184     68.816    562.773    585.470    568.484    562.773    562.773
 33.270    587.000    594.733     -7.733    562.429    588.993    568.166    562.429    562.429
 33.370    576.000    600.091    -24.091    562.086    594.214    567.960    562.086    562.086
 33.470    617.878    608.800      9.077    561.746    602.592    567.948    561.746    561.746
 33.570    645.000    623.868     21.132    561.406    616.974    568.292    561.406    561.406
 33.670    651.148    650.326      0.823    561.068    642.118    569.262    561.068    561.068
 33.770    736.000    694.814     41.186    560.732    684.310    571.215    560.732    560.732
 33.870    772.000    763.147      8.853    560.397    749.048    574.464    560.397    560.397
 33.970    935.000    855.340     79.660    560.064    836.354    579.008    560.064    560.064
 34.070    947.000    958.572    -11.572    559.732    934.099    584.158    559.732    559.732
 34.170   1106.933   1041.290     65.643    559.402   1012.440    588.210    559.402    559.402
 34.270   1108.713   1062.626     46.087    559.074   1032.711    588.961    559.074    559.074
 34.370   1052.790   1008.396     44.394    558.747    981.484    585.645    558.747    558.747
 34.470    867.367    909.569    -42.202    558.421    888.055    579.931    558.421    558.421
 34.570    811.000    807.189      3.811    558.098    791.254    574.033    558.098    558.098
 34.670    699.000    724.202    -25.202    557.775    712.791    569.187    557.775    557.775
 34.770    639.000    666.425    -27.425    557.455    658.174    565.706    557.455    557.455
 34.870    669.878    630.294     39.584    557.136    624.030    563.400    557.136    557.136
 34.970    623.000    609.054     13.946    556.819    603.969    561.903    556.819    556.819
 35.070    615.559    596.587     18.973    556.503    592.204    560.885    556.503    556.503
 35.170    609.000    588.807     20.193    556.189    584.869    560.126    556.189    556.189
 35.270    591.000    583.480      7.520    555.877    579.850    559.506    555.877    555.877
 35.370    575.000    579.519     -4.519    555.566    576.118    558.966    555.566    555.566
 35.470    629.589    576.410     53.179    555.257    573.187    558.479    555.257    555.257
 35.570    558.000    573.890    -15.890    554.950    570.809    558.030    554.950    554.950
 35.670    580.626    571.805      8.821    554.644    568.836    557.612    554.644    554.644
 35.770    543.000    570.052    -27.052    554.340    567.173    557.219    554.340    554.340
 35.870    615.726    568.561     47.165    554.038    565.750    556.849    554.038    554.038
 35.970    505.000    567.279    -62.279    553.737    564.518    556.498    553.737    553.737
 36.070    546.150    566.167    -20.017    553.439    563.439    556.166    553.439    553.439
 36.170    557.000    565.197     -8.197    553.141    562.485    555.853    553.141    553.141
 36.270    568.130    564.349      3.782    552.846    561.636    555.559    552.846    552.846
 36.370    576.000    563.606     12.394    552.552    560.875    555.283    552.552    552.552
 36.470    556.000    562.959     -6.959    552.260    560.190    555.030    552.260    552.260
 36.570    539.000    562.402    -23.402    551.970    559.572    554.800    551.970    551.970
 36.670    524.000    561.931    -37.931    551.682    559.015    554.597    551.682    551.682
 36.770    567.000    561.550      5.450    551.395    558.517    554.428    551.395    551.395
 36.870    596.289    561.266     35.023    551.110    558.078    554.299    551.110    551.110
 36.970    556.000    561.100     -5.100    550.827    557.707    554.220    550.827    550.827
 37.070    550.000    561.089    -11.089    550.546    557.428    554.207    550.546    550.546
 37.170    575.674    561.318     14.356    550.266    557.296    554.288    550.266    550.266
 37.270    502.000    561.947    -59.947    549.988    557.421    554.515    549.988    549.988
 37.370    563.000    563.262     -0.262    549.712    557.981    554.993    549.712    549.712
 37.470    529.000    565.696    -36.696    549.438    559.203    555.932    549.438    549.438
 37.570    566.806    569.802     -2.996    549.166    561.264    557.704    549.166    549.166
 37.670    590.380    576.107     14.273    548.895    564.125    560.878    548.895    548.895
 37.770    570.000    584.809    -14.809    548.626    567.317    566.120    548.626    548.626
 37.870    541.798    595.378    -53.580    548.359    569.815    573.925    548.359    548.359
 37.970    614.702    606.426      8.276    548.094    570.397    584.126    548.094    548.094
 38.070    590.355    616.116    -25.761    547.830    568.679    595.272    547.830    547.830
 38.170    671.000    622.060     48.940    547.569    565.505    604.130    547.569    547.569
 38.270    673.140    621.239     51.902    547.309    561.979    606.577    547.309    547.309
 38.370    625.000    612.716     12.284    547.051    558.776    600.999    547.051    547.051
 38.470    599.323    599.662     -0.339    546.795    556.212    590.252    546.795    546.795
 38.570    557.000    586.332    -29.332    546.541    554.339    578.540    546.541    546.541
 38.670    516.000    575.241    -59.241    546.288    553.033    568.500    546.288    546.288
 38.770    623.000    567.133     55.867    546.038    552.124    561.049    546.038    546.038
 38.870    585.877    561.724     24.153    545.789    551.468    556.047    545.789    545.789
 38.970    516.000    558.308    -42.308    545.542    550.964    552.887    545.542    545.542
 39.070    551.000    556.163     -5.163    545.297    550.553    550.908    545.297    545.297
 39.170    547.699    554.750     -7.051    545.053    550.199    549.606    545.053    545.053
 39.270    536.949    553.740    -16.791    544.812    549.882    548.671    544.812    544.812
 39.370    545.381    552.956     -7.574    544.572    549.591    547.937    544.572    544.572
 39.470    505.000    552.311    -47.311    544.335    549.322    547.325    544.335    544.335
 39.570    546.000    551.762     -5.762    544.099    549.070    546.792    544.099    544.099
 39.670    561.029    551.284      9.745    543.865    548.833    546.316    543.865    543.865
 39.770    542.000    550.863     -8.863    543.633    548.611    545.885    543.633    543.633
 39.870    568.478    550.487     17.991    543.403    548.401    545.489    543.403    543.403
 39.970    563.000    550.150     12.850    543.174    548.204    545.120    543.174    543.174
 40.070    532.000    549.845    -17.845    542.948    548.020    544.773    542.948    542.948
 40.170    546.000    549.571     -3.571    542.723    547.848    544.446    542.723    542.723
 40.270    562.000    549.323     12.677    542.500    547.690    544.134    542.500    542.500
 40.370    556.780    549.100      7.680    542.279    547.545    543.836    542.279    542.279
 40.470    549.968    548.902      1.065    542.060    547.414    543.549    542.060    542.060
 40.570    563.884    548.728     15.156    541.843    547.300    543.272    541.843    541.843
 40.670    519.502    548.579    -29.077    541.628    547.203    543.004    541.628    541.628
 40.770    600.598    548.455     52.143    541.414    547.126    542.745    541.414    541.414
 40.870    547.000    548.360     -1.360    541.203    547.071    542.493    541.203    541.203
 40.970    524.000    548.295    -24.295    540.993    547.042    542.247    540.993    540.993
 41.070    599.889    548.265     51.624    540.785    547.043    542.008    540.785    540.785
 41.170    512.000    548.275    -36.275    540.579    547.079    541.775    540.579    540.579
 41.270    514.657    548.331    -33.674    540.375    547.159    541.549    540.375    540.375
 41.370    527.000    548.445    -21.445    540.173    547.291    541.328    540.173    540.173
 41.470    547.000    548.627     -1.627    539.973    547.488    541.113    539.973    539.973
 41.570    564.000    548.897     15.103    539.774    547.768    540.904    539.774    539.774
 41.670    597.649    549.280     48.368    539.578    548.157    540.702    539.578    539.578
 41.770    535.300    549.823    -14.523    539.383    548.700    540.509    539.383    539.383
 41.870    519.000    550.610    -31.610    539.190    549.477    540.325    539.190    539.190
 41.970    539.771    551.803    -12.032    538.999    550.648    540.157    538.999    538.999
 42.070    572.000    553.718     18.282    538.810    552.520    540.012    538.810    538.810
 42.170    540.000    556.909    -16.909    538.623    555.630    539.907    538.623    538.623
 42.270    553.000    562.229     -9.229    538.437    560.808    539.866    538.437    538.437
 42.370    594.000    570.757     23.243    538.254    569.103    539.921    538.254    538.254
 42.470    547.000    583.496    -36.496    538.072    581.487    540.099    538.072    538.072
 42.570    591.000    600.788     -9.788    537.892    598.295    540.411    537.892    537.892
 42.670    597.000    621.517    -24.517    537.715    618.442    540.826    537.715    537.715
 42.770    604.019    642.202    -38.182    537.539    638.548    541.241    537.539    537.539
 42.870    636.511    656.762    -20.251    537.364    652.702    541.482    537.364    537.364
 42.970    621.000    659.005    -38.005    537.192    654.887    541.371    537.192    537.192
 43.070    634.000    647.694    -13.694    537.022    643.901    540.872    537.022    537.022
 43.170    674.976    627.923     47.053    536.853    624.693    540.131    536.853    536.853
 43.270    563.000    606.398    -43.398    536.686    603.779    539.342    536.686    536.686
 43.370    556.000    587.527    -31.527    536.521    585.441    538.633    536.521    536.521
 43.470    503.000    573.079    -70.079    536.358    571.403    538.052    536.358    536.358
 43.570    608.454    563.075     45.379    536.197    561.681    537.603    536.197    536.197
 43.670    576.567    556.641     19.925    536.038    555.429    537.258    536.038    536.038
 43.770    566.000    552.669     13.331    535.880    551.568    536.987    535.880    535.880
 43.870    529.000    550.213    -21.213    535.725    549.180    536.762    535.725    535.725
 43.970    526.279    548.622    -22.344    535.571    547.632    536.564    535.571    535.571
 44.070    537.000    547.518    -10.518    535.419    546.557    536.382    535.419    535.419
 44.170    550.000    546.697      3.303    535.269    545.757    536.211    535.269    535.269
 44.270    567.000    546.058     20.942    535.120    545.132    536.048    535.120    535.120
 44.370    541.000    545.547     -4.547    534.974    544.632    535.891    534.974    534.974
 44.470    521.000    545.133    -24.133    534.829    544.225    535.738    534.829    534.829
 44.570    551.741    544.795      6.946    534.686    543.892    535.591    534.686    534.686
 44.670    549.622    544.520      5.101    534.545    543.619    535.447    534.545    534.545
 44.770    513.000    544.299    -31.299    534.406    543.398    535.307    534.406    534.406
 44.870    561.000    544.122     16.878    534.268    543.220    535.172    534.268    534.268
 44.970    527.000    543.985    -16.985    534.133    543.079    535.039    534.133    534.133
 45.070    520.763    543.884    -23.121    533.999    542.973    534.911    533.999    533.999
 45.170    532.000    543.815    -11.815    533.867    542.897    534.785    533.867    533.867
 45.270    532.000    543.777    -11.777    533.737    542.850    534.664    533.737    533.737
 45.370    530.016    543.768    -13.751    533.608    542.831    534.545    533.608    533.608
 45.470    507.800    543.787    -35.987    533.482    542.838    534.430    533.482    533.482
 45.570    533.000    543.833    -10.833    533.357    542.871    534.319    533.357    533.357
 45.670    533.000    543.908    -10.908    533.234    542.931    534.211    533.234    533.234
 45.770    505.523    544.013    -38.489    533.112    543.017    534.107    533.112    533.112
 45.870    574.738    544.147     30.591    532.993    543.132    534.008    532.993    532.993
 45.970    586.000    544.314     41.686    532.875    543.277    533.912    532.875    532.875
 46.070    556.000    544.516     11.484    532.759    543.454    533.820    532.759    532.759
 46.170    541.000    544.755     -3.755    532.645    543.666    533.733    532.645    532.645
 46.270    534.000    545.037    -11.037    532.532    543.917    533.651    532.532    532.532
 46.370    563.000    545.366     17.634    532.421    544.212    533.574    532.421    532.421
 46.470    505.000    545.749    -40.749    532.312    544.557    533.503    532.312    532.312
 46.570    518.000    546.194    -28.194    532.205    544.959    533.438    532.205    532.205
 46.670    523.000    546.712    -23.712    532.099    545.430    533.380    532.099    532.099
 46.770    493.000    547.320    -54.320    531.996    545.983    533.331    531.996    531.996
 46.870    528.661    548.040    -19.379    531.893    546.640    533.291    531.893    531.893
 46.970    564.000    548.914     15.086    531.793    547.441    533.264    531.793    531.793
 47.070    533.000    550.014    -17.014    531.694    548.452    533.253    531.694    531.694
 47.170    539.000    551.476    -12.476    531.597    549.802    533.268    531.597    531.597
 47.270    569.000    553.539     15.461    531.502    551.715    533.322    531.502    531.502
 47.370    571.000    556.587     14.413    531.408    554.551    533.438    531.408    531.408
 47.470    538.000    561.156    -23.156    531.317    558.815    533.649    531.317    531.317
 47.570    605.006    567.866     37.139    531.226    565.087    533.991    531.226    531.226
 47.670    579.000    577.228      1.772    531.138    573.850    534.495    531.138    531.138
 47.770    595.000    589.342      5.658    531.051    585.196    535.168    531.051    531.051
 47.870    598.339    603.523     -5.183    530.966    598.480    535.970    530.966    530.966
 47.970    636.000    617.893     18.107    530.882    611.938    536.791    530.882    530.882
 48.070    626.000    629.214     -3.214    530.800    622.522    537.440    530.800    530.800
 48.170    630.503    633.846     -3.343    530.720    626.808    537.704    530.720    530.720
 48.270    672.330    630.340     41.991    530.641    623.433    537.498    530.641    530.641
 48.370    635.000    620.914     14.086    530.564    614.481    536.956    530.564    530.564
 48.470    655.250    609.424     45.826    530.489    603.573    536.307    530.489    530.489
 48.570    663.000    598.916     64.084    530.415    593.573    535.735    530.415    530.415
 48.670    621.000    591.036     29.964    530.343    586.022    535.340    530.343    530.343
 48.770    571.000    586.341    -15.341    530.273    581.442    535.160    530.273    530.273
 48.870    590.812    584.722      6.090    530.204    579.722    535.195    530.204    530.204
 48.970    553.874    585.778    -31.904    530.136    580.479    535.429    530.136    530.136
 49.070    612.000    589.123     22.877    530.071    583.336    535.852    530.071    530.071
 49.170    626.000    594.612     31.388    530.006    588.138    536.474    530.006    530.006
 49.270    600.000    602.553     -2.553    529.944    595.141    537.350    529.944    529.944
 49.370    661.391    614.076     47.315    529.883    605.332    538.619    529.883    529.883
 49.470    650.125    631.875     18.250    529.823    621.092    540.594    529.823    529.823
 49.570    652.000    661.511     -9.511    529.765    647.344    543.913    529.765    529.765
 49.670    771.495    713.072     58.423    529.709    693.020    549.729    529.709    529.709
 49.770    761.928    802.201    -40.273    529.654    771.975    559.826    529.654    529.654
 49.870    932.394    948.592    -16.197    529.601    901.657    576.452    529.601    529.601
 49.970   1099.000   1169.934    -70.934    529.549   1097.741    601.627    529.549    529.549
 50.070   1441.000   1471.033    -30.033    529.499   1364.493    635.898    529.499    529.499
 50.170   1801.000   1830.804    -29.804    529.450   1683.250    676.861    529.450    529.450
 50.270   2259.504   2191.872     67.631    529.403   2003.201    717.965    529.403    529.403
 50.370   2390.749   2460.998    -70.249    529.357   2241.760    748.567    529.357    529.357
 50.470   2595.390   2540.002     55.387    529.313   2311.941    757.447    529.313    529.313
 50.570   2413.000   2393.827     19.173    529.270   2182.669    740.579    529.270    529.270
 50.670   2036.000   2084.866    -48.866    529.228   1909.229    705.046    529.228    529.228
 50.770   1667.000   1718.083    -51.083    529.189   1584.661    662.781    529.189    529.189
 50.870   1296.634   1377.740    -81.106    529.150   1283.678    623.353    529.150    529.150
 50.970   1111.000   1108.968      2.032    529.113   1046.308    591.879    529.113    529.113
 51.070    920.161    922.884     -2.724    529.078    882.405    569.633    529.078    529.078
 51.170    774.000    808.295    -34.295    529.043    781.977    555.419    529.043    529.043
 51.270    709.961    744.263    -34.302    529.011    726.293    547.027    529.011    529.011
 51.370    700.000    709.625     -9.625    528.979    696.316    542.330    528.979    528.979
 51.470    673.000    688.147    -15.147    528.950    677.349    539.786    528.950    528.950
 51.570    641.000    670.536    -29.536    528.921    661.006    538.485    528.921    528.921
 51.670    665.350    653.812     11.538    528.894    644.773    537.961    528.894    528.894
 51.770    630.000    638.383     -8.383    528.868    629.293    537.980    528.868    528.868
 51.870    602.321    625.303    -22.982    528.844    615.786    538.376    528.844    528.844
 51.970    664.000    615.152     48.848    528.821    605.030    538.954    528.821    528.821
 52.070    637.000    607.858     29.142    528.799    597.229    539.435    528.799    528.799
 52.170    625.000    602.875     22.125    528.779    592.155    539.504    528.779    528.779
 52.270    583.000    599.577    -16.577    528.760    589.373    538.967    528.760    528.760
 52.370    605.000    597.617      7.383    528.742    588.461    537.900    528.742    528.742
 52.470    625.000    597.003     27.997    528.726    589.160    536.570    528.726    528.726
 52.570    627.000    598.018     28.982    528.711    591.484    535.247    528.711    528.711
 52.670    605.000    601.239      3.761    528.697    595.826    534.112    528.697    528.697
 52.770    632.000    607.692     24.308    528.684    603.122    533.256    528.684    528.684
 52.870    620.000    619.090      0.910    528.673    615.061    532.703    528.673    528.673
 52.970    637.000    638.005     -1.005    528.663    634.263    532.405    528.663    528.663
 53.070    729.000    668.080     60.920    528.655    664.296    532.438    528.655    528.655
 53.170    704.000    713.317     -9.317    528.647    709.172    532.790    528.647    528.647
 53.270    724.101    777.119    -53.018    528.641    772.305    533.452    528.641    528.641
 53.370    815.000    860.650    -45.650    528.636    854.871    534.411    528.636    528.636
 53.470    972.000    960.776     11.224    528.632    953.793    535.613    528.632    528.632
 53.570   1072.000   1067.905      4.095    528.630   1059.613    536.924    528.630    528.630
 53.670   1176.000   1164.366     11.634    528.629   1154.896    538.108    528.629    528.629
 53.770   1235.000   1226.277      8.723    528.628   1216.078    538.847    528.628    528.628
 53.870   1232.000   1233.452     -1.452    528.629   1223.235    538.876    528.629    528.629
 53.970   1253.553   1183.274     70.279    528.632   1173.784    538.158    528.632    528.632
 54.070   1084.000   1092.993     -8.993    528.635   1084.746    536.919    528.635    528.635
 54.170   1010.000    987.056     22.944    528.640    980.248    535.480    528.640    528.640
 54.270    889.000    885.001      3.999    528.645    879.578    534.096    528.645    528.645
 54.370    802.000    798.120      3.880    528.652    793.878    532.915    528.652    528.652
 54.470    785.319    730.767     54.552    528.660    727.449    531.994    528.660    528.660
 54.570    671.112    682.515    -11.403    528.669    679.870    531.326    528.669    528.669
 54.670    679.000    650.238     28.762    528.680    648.056    530.869    528.680    528.680
 54.770    652.000    629.880     22.120    528.691    628.005    530.571    528.691    528.691
 54.870    611.000    617.675     -6.675    528.703    616.001    530.381    528.703    528.703
 54.970    603.000    610.734     -7.734    528.717    609.194    530.260    528.717    528.717
 55.070    630.000    607.132     22.868    528.731    605.684    530.182    528.731    528.731
 55.170    581.552    605.730    -24.178    528.747    604.347    530.131    528.747    528.747
 55.270    681.000    605.923     75.077    528.763    604.589    530.099    528.763    528.763
 55.370    616.000    607.438      8.562    528.781    606.139    530.081    528.781    528.781
 55.470    614.000    610.199      3.801    528.800    608.926    530.074    528.800    528.800
 55.570    617.000    614.268      2.732    528.819    613.012    530.076    528.819    528.819
 55.670    628.725    619.844      8.881    528.840    618.598    530.088    528.840    528.840
 55.770    603.000    627.337    -24.337    528.862    626.091    530.108    528.862    528.862
 55.870    656.000    637.528     18.472    528.884    636.277    530.136    528.884    528.884
 55.970    643.000    651.869     -8.869    528.908    650.628    530.149    528.908    528.908
 56.070    624.697    673.100    -48.403    528.933    671.838    530.193    528.933    528.933
 56.170    720.000    705.765     14.235    528.958    704.449    530.270    528.958    528.958
 56.270    781.956    756.892     25.065    528.985    755.490    530.378    528.985    528.985
 56.370    822.000    836.151    -14.151    529.012    834.617    530.531    529.012    529.012
 56.470   1000.462    954.910     45.552    529.040    953.185    530.742    529.040    529.040
 56.570   1166.094   1123.706     42.388    529.070   1121.715    531.028    529.070    529.070
 56.670   1312.000   1348.097    -36.097    529.100   1345.760    531.397    529.100    529.100
 56.770   1596.000   1623.555    -27.555    529.131   1620.801    531.842    529.131    529.131
 56.870   1952.000   1930.264     21.736    529.163   1927.053    532.338    529.163    529.163
 56.970   2173.377   2228.606    -55.230    529.195   2224.957    532.834    529.195    529.195
 57.070   2512.000   2458.779     53.221    529.229   2454.793    533.249    529.229    529.229
 57.170   2535.000   2556.037    -21.037    529.264   2551.897    533.498    529.264    529.264
 57.270   2582.483   2487.549     94.934    529.299   2483.466    533.540    529.299    529.299
 57.370   2288.210   2278.022     10.188    529.335   2274.145    533.411    529.335    529.335
 57.470   2072.092   1989.526     82.566    529.372   1985.907    533.201    529.372    529.372
 57.570   1691.000   1683.983      7.017    529.410   1680.585    533.003    529.410    529.410
 57.670   1326.000   1404.609    -78.609    529.448   1401.331    532.890    529.448    529.448
 57.770   1114.000   1174.514    -60.514    529.487   1171.201    532.928    529.487    529.487
 57.870    911.000   1000.845    -89.845    529.527    997.279    533.186    529.527    529.527
 57.970    895.000    880.042     14.958    529.568    875.900    533.774    529.568    529.568
 58.070    821.058    803.175     17.883    529.610    797.960    534.865    529.610    529.610
 58.170    711.000    760.445    -49.445    529.652    753.393    536.725    529.652    529.652
 58.270    810.000    744.031     65.969    529.695    734.031    539.702    529.695    529.695
 58.370    744.000    749.096     -5.096    529.739    734.668    544.162    529.739    529.739
 58.470    734.000    773.322    -39.322    529.783    752.727    550.362    529.783    529.783
 58.570    837.000    815.578     21.422    529.828    787.101    558.279    529.828    529.828
 58.670    881.000    874.300      6.700    529.874    836.710    567.430    529.874    529.874
 58.770    876.000    945.920    -69.920    529.921    899.054    576.747    529.921    529.921
 58.870   1031.000   1023.756      7.244    529.968    969.110    584.575    529.968    529.968
 58.970   1133.000   1098.523     34.477    530.016   1039.484    589.023    530.016    530.016
 59.070   1157.000   1161.478     -4.478    530.064   1102.674    588.849    530.064    530.064
 59.170   1201.000   1207.488     -6.488    530.113   1153.330    584.267    530.113    530.113
 59.270   1285.000   1233.946     51.054    530.163   1187.389    576.731    530.163    530.163
 59.370   1303.000   1238.597     64.403    530.213   1200.830    568.002    530.213    530.213
 59.470   1266.000   1222.016     43.984    530.264   1192.807    559.501    530.264    530.264
 59.570   1218.000   1191.614     26.386    530.315   1169.817    552.135    530.315    530.315
 59.670   1206.000   1159.902     46.098    530.367   1143.948    546.326    530.367    530.367
 59.770   1190.314   1138.822     51.492    530.419   1127.116    542.101    530.419    530.419
 59.870   1166.000   1136.474     29.526    530.472   1127.655    539.231    530.472    530.472
 59.970   1192.000   1157.593     34.407    530.526   1150.628    537.388    530.526    530.526
 60.070   1126.000   1204.637    -78.637    530.580   1198.803    536.264    530.580    530.580
 60.170   1282.648   1276.472      6.176    530.635   1271.292    535.618    530.635    530.635
 60.270   1408.078   1365.310     42.769    530.690   1360.488    535.275    530.690    530.690
 60.370   1384.000   1454.508    -70.508    530.745   1449.880    535.107    530.745    530.745
 60.470   1620.000   1519.340    100.660    530.801   1514.850    535.018    530.801    530.801
 60.570   1580.000   1534.058     45.942    530.858   1529.727    534.937    530.858    530.858
 60.670   1560.000   1485.940     74.060    530.915   1481.824    534.823    530.915    530.915
 60.770   1432.000   1384.173     47.827    530.972   1380.311    534.680    530.972    530.972
 60.870   1302.388   1252.277     50.111    531.030   1248.666    534.536    531.030    531.030
 60.970   1138.000   1114.467     23.533    531.088   1111.062    534.426    531.088    531.088
 61.070   1033.000    988.562     44.438    531.147    985.287    534.380    531.147    531.147
 61.170    890.000    885.004      4.996    531.206    881.755    534.429    531.206    531.206
 61.270    853.000    808.098     44.902    531.265    804.738    534.606    531.265    531.265
 61.370    739.191    757.963    -18.772    531.325    754.309    534.960    531.325    531.325
 61.470    795.000    732.744     62.256    531.385    728.540    535.565    531.385    531.385
 61.570    765.861    730.560     35.301    531.445    725.445    536.526    531.445    531.445
 61.670    789.000    750.668     38.332    531.506    744.147    537.980    531.506    531.506
 61.770    758.168    793.566    -35.397    531.567    784.997    540.071    531.567    531.567
 61.870    811.204    860.074    -48.870    531.628    848.699    542.916    531.628    531.628
 61.970    988.801    949.731     39.069    531.690    934.756    546.553    531.690    531.690
 62.070   1073.000   1058.941     14.059    531.752   1039.676    550.878    531.752    531.752
 62.170   1199.000   1179.268     19.732    531.814   1155.327    555.594    531.814    531.814
 62.270   1277.000   1296.226    -19.226    531.877   1267.760    560.168    531.877    531.877
 62.370   1449.000   1389.508     59.492    531.940   1357.428    563.845    531.940    531.940
 62.470   1397.000   1437.309    -40.309    532.003   1403.343    565.814    532.003    532.003
 62.570   1394.446   1426.033    -31.587    532.066   1392.410    565.567    532.066    532.066
 62.670   1351.000   1358.675     -7.675    532.129   1327.500    563.219    532.129    532.129
 62.770   1299.021   1252.644     46.378    532.193   1225.360    559.425    532.193    532.193
 62.870   1063.000   1129.809    -66.809    532.257   1107.034    555.005    532.257    532.257
 62.970    976.000   1008.522    -32.522    532.321    990.183    550.648    532.321    532.321
 63.070    858.983    900.902    -41.919    532.385    886.472    546.812    532.385    532.385
 63.170    785.000    813.094    -28.094    532.449    801.814    543.728    532.449    532.449
 63.270    681.000    746.482    -65.482    532.514    737.541    541.454    532.514    532.514
 63.370    651.616    699.227    -47.611    532.578    691.878    539.924    532.578    532.578
 63.470    621.544    667.847    -46.303    532.643    661.470    539.015    532.643    532.643
 63.570    640.274    648.564     -8.289    532.708    642.669    538.596    532.708    532.708
 63.670    620.000    638.216    -18.216    532.773    632.414    538.565    532.773    532.773
 63.770    627.623    634.722     -7.099    532.838    628.669    538.877    532.838    532.838
 63.870    646.000    637.194      8.806    532.903    630.526    539.554    532.903    532.903
 63.970    647.842    645.844      1.998    532.968    638.092    540.697    532.968    532.968
 64.070    659.000    661.754     -2.754    533.033    652.265    542.493    533.033    533.033
 64.170    697.000    686.543     10.457    533.099    674.393    545.209    533.099    533.099
 64.270    735.000    721.907     13.093    533.164    705.843    549.176    533.164    533.164
 64.370    757.600    769.021    -11.421    533.229    747.446    554.735    533.229    533.229
 64.470    870.678    827.839     42.840    533.294    798.894    562.152    533.294    533.294
 64.570    842.000    896.351    -54.351    533.360    858.102    571.504    533.360    533.360
 64.670    988.673    969.892     18.780    533.425    920.645    582.551    533.425    533.425
 64.770   1065.871   1040.774     25.098    533.490    979.508    594.625    533.490    533.490
 64.870   1183.000   1098.932     84.068    533.555   1025.806    606.549    533.555    533.555
 64.970   1140.957   1134.402      6.555    533.621   1051.233    616.666    533.621    533.621
 65.070   1213.000   1140.953     72.047    533.686   1051.454    623.080    533.686    533.686
 65.170   1122.000   1118.419      3.581    533.751   1027.821    624.268    533.751    533.751
 65.270   1084.610   1072.537     12.074    533.816    986.420    619.876    533.816    533.816
 65.370   1052.000   1012.637     39.363    533.880    935.499    610.987    533.880    533.880
 65.470    979.562    948.349     31.213    533.945    882.784    599.499    533.945    533.945
 65.570    953.979    886.960     67.018    534.010    833.691    587.284    534.010    534.010
 65.670    811.000    832.494    -21.494    534.074    790.843    575.742    534.074    534.074
 65.770    764.742    786.187    -21.445    534.138    754.620    565.728    534.138    534.138
 65.870    686.000    747.671    -61.671    534.202    724.272    557.627    534.202    534.202
 65.970    697.000    716.124    -19.124    534.266    698.954    551.460    534.266    534.266
 66.070    688.000    690.779     -2.779    534.330    678.124    547.006    534.330    534.330
 66.170    667.000    670.937     -3.937    534.394    661.418    543.929    534.394    534.394
 66.270    699.256    655.896     43.360    534.457    648.493    541.871    534.457    534.457
 66.370    657.082    644.993     12.090    534.520    639.001    540.520    534.520    534.520
 66.470    588.739    637.658    -48.919    534.583    632.614    539.632    534.583    534.583
 66.570    602.000    633.441    -31.441    534.646    629.052    539.038    534.646    534.646
 66.670    633.000    632.017      0.983    534.708    628.097    538.630    534.708    534.708
 66.770    636.000    633.214      2.786    534.770    629.644    538.342    534.770    534.770
 66.870    584.000    637.089    -53.089    534.832    633.786    538.137    534.832    534.832
 66.970    617.000    644.061    -27.061    534.894    640.960    537.997    534.894    534.894
 67.070    621.459    655.102    -33.644    534.955    652.144    537.915    534.955    534.955
 67.170    686.000    671.981     14.019    535.016    669.104    537.894    535.016    535.016
 67.270    718.000    697.518     20.482    535.077    694.651    537.946    535.077    535.077
 67.370    785.630    735.794     49.836    535.137    732.844    538.088    535.137    535.137
 67.470    732.807    792.143    -59.336    535.197    788.989    538.350    535.197    535.197
 67.570    919.031    872.789     46.242    535.257    869.279    538.765    535.257    535.257
 67.670   1009.000    983.956     25.044    535.316    979.904    539.365    535.316    535.316
 67.770   1136.314   1130.427      5.887    535.375   1125.624    540.177    535.375    535.375
 67.870   1382.089   1313.684     68.405    535.434   1307.915    541.208    535.434    535.434
 67.970   1495.000   1529.921    -34.921    535.492   1522.995    542.434    535.492    535.492
 68.070   1848.670   1768.222     80.448    535.550   1760.014    543.793    535.550    535.550
 68.170   1919.000   2009.086    -90.086    535.607   1999.586    545.173    535.607    535.607
 68.270   2218.000   2223.842     -5.842    535.664   2213.204    546.408    535.664    535.664
 68.370   2347.624   2377.174    -29.550    535.721   2365.754    547.297    535.721    535.721
 68.470   2493.000   2436.598     56.402    535.777   2424.932    547.652    535.777    535.777
 68.570   2403.000   2387.643     15.357    535.832   2376.340    547.392    535.832    535.832
 68.670   2191.000   2242.482    -51.482    535.887   2232.070    546.585    535.887    535.887
 68.770   2074.517   2032.493     42.024    535.942   2023.314    545.410    535.942    535.942
 68.870   1782.000   1793.148    -11.148    535.996   1785.348    544.069    535.996    535.996
 68.970   1560.000   1553.907      6.093    536.049   1547.467    542.732    536.049    536.049
 69.070   1280.000   1335.162    -55.162    536.103   1329.955    541.513    536.103    536.103
 69.170   1154.000   1148.620      5.380    536.155   1144.460    540.479    536.155    536.155
 69.270    951.000    998.716    -47.716    536.207    995.393    539.657    536.207    536.207
 69.370    923.949    884.402     39.547    536.259    881.715    539.040    536.259    536.259
 69.470    858.404    801.131     57.273    536.309    798.907    538.601    536.309    536.309
 69.570    736.000    742.741     -6.741    536.360    740.843    538.306    536.360    536.360
 69.670    756.195    702.941     53.253    536.410    701.267    538.118    536.410    536.410
 69.770    684.294    676.251      8.043    536.459    674.727    538.006    536.459    536.459
 69.870    634.000    658.399    -24.399    536.507    656.977    537.945    536.507    536.507
 69.970    659.897    646.345     13.552    536.555    644.994    537.919    536.555    536.555
 70.070    606.000    638.082    -32.082    536.603    636.778    537.916    536.603    536.603
 70.170    611.293    632.363    -21.070    536.649    631.091    537.928    536.649    536.649
 70.270    611.000    628.460    -17.460    536.695    627.208    537.952    536.695    536.695
 70.370    619.000    625.972     -6.972    536.741    624.731    537.985    536.741    536.741
 70.470    667.088    624.711     42.377    536.785    623.471    538.026    536.785    536.785
 70.570    672.000    624.636     47.364    536.829    623.389    538.076    536.829    536.829
 70.670    596.096    625.845    -29.749    536.873    624.580    538.135    536.873    536.873
 70.770    651.009    628.603     22.406    536.915    627.307    538.206    536.915    536.915
 70.870    657.000    633.407     23.593    536.957    632.066    538.292    536.957    536.957
 70.970    615.000    641.103    -26.103    536.999    639.688    538.403    536.999    536.999
 71.070    627.000    652.998    -25.998    537.039    651.474    538.548    537.039    537.039
 71.170    720.067    671.003     49.064    537.079    669.316    538.744    537.079    537.079
 71.270    697.000    697.709     -0.709    537.118    695.785    539.011    537.118    537.118
 71.370    706.000    736.354    -30.354    537.156    734.090    539.377    537.156    537.156
 71.470    798.000    790.591      7.409    537.194    787.853    539.872    537.194    537.194
 71.570    929.975    864.004     65.971    537.231    860.630    540.526    537.231    537.231
 71.670    943.000    959.367    -16.367    537.267    955.169    541.361    537.267    537.267
 71.770   1076.000   1077.698     -1.698    537.302   1072.482    542.387    537.302    537.302
 71.870   1283.155   1217.254     65.901    537.336   1210.842    543.590    537.336    537.336
 71.970   1378.924   1372.589      6.335    537.370   1364.850    544.925    537.370    537.370
 72.070   1461.000   1533.783    -72.783    537.402   1524.670    546.311    537.402    537.402
 72.170   1645.199   1686.018    -40.819    537.434   1675.610    547.627    537.434    537.434
 72.270   1875.459   1810.199     65.260    537.465   1798.737    548.717    537.465    537.465
 72.370   1855.289   1886.093    -30.804    537.496   1873.984    549.413    537.496    537.496
 72.470   1915.208   1898.747     16.461    537.525   1886.518    549.593    537.525    537.525
 72.570   1920.771   1845.320     75.452    537.553   1833.514    549.234    537.553    537.553
 72.670   1821.000   1736.639     84.361    537.581   1725.705    548.425    537.581    537.581
 72.770   1604.000   1591.872     12.128    537.608   1582.096    547.324    537.608    537.608
 72.870   1407.000   1431.202    -24.202    537.634   1422.703    546.094    537.634    537.634
 72.970   1274.000   1271.282      2.718    537.658   1264.049    544.870    537.658    537.658
 73.070   1060.026   1123.869    -63.843    537.682   1117.797    543.744    537.682    537.682
 73.170   1018.565    996.005     22.560    537.706    990.936    542.770    537.706    537.706
 73.270    913.396    890.714     22.682    537.728    886.473    541.967    537.728    537.728
 73.370    839.019    807.904     31.116    537.749    804.315    541.337    537.749    537.749
 73.470    707.952    745.361    -37.409    537.769    742.265    540.864    537.769    537.769
 73.570    751.000    699.735     51.265    537.788    696.991    540.532    537.788    537.788
 73.670    690.000    667.364     22.636    537.807    664.850    540.320    537.807    537.807
 73.770    668.000    644.854     23.146    537.824    642.465    540.212    537.824    537.824
 73.870    612.000    629.402    -17.402    537.840    627.043    540.199    537.840    537.840
 73.970    629.000    618.896     10.104    537.856    616.476    540.277    537.856    537.856
 74.070    661.000    611.861     49.139    537.870    609.287    540.447    537.870    537.870
 74.170    653.000    607.326     45.674    537.883    604.502    540.712    537.883    537.883
 74.270    628.000    604.676     23.324    537.895    601.503    541.078    537.895    537.895
 74.370    626.000    603.510     22.490    537.907    599.888    541.542    537.907    537.907
 74.470    569.791    603.530    -33.739    537.917    599.369    542.096    537.917    537.917
 74.570    612.000    604.459      7.541    537.926    599.688    542.720    537.926    537.926
 74.670    627.556    605.986     21.570    537.934    600.567    543.382    537.934    537.934
 74.770    692.000    607.735     84.265    537.941    601.676    544.034    537.941    537.941
 74.870    690.000    609.254     80.746    537.947    602.628    544.612    537.947    537.947
 74.970    572.208    610.062    -37.854    537.952    603.009    545.048    537.952    537.952
 75.070    679.000    609.770     69.230    537.956    602.483    545.287    537.956    537.956
 75.170    678.000    608.239     69.761    537.959    600.929    545.312    537.959    537.959
 75.270    647.000    605.669     41.331    537.960    598.510    545.159    537.960    537.960
 75.370    678.000    602.527     75.473    537.961    595.615    544.908    537.961    537.961
 75.470    698.000    599.400     98.600    537.960    592.732    544.657    537.960    537.960
 75.570    646.000    596.891     49.109    537.958    590.363    544.509    537.958    537.958
 75.670    621.000    595.584     25.416    537.955    588.990    544.566    537.955    537.955
 75.770    559.003    596.050    -37.047    537.951    589.079    544.931    537.951    537.951
 75.870    618.000    598.841     19.159    537.946    591.083    545.707    537.946    537.946
 75.970    622.574    604.483     18.092    537.940    595.426    546.992    537.940    537.940
 76.070    659.000    613.425     45.575    537.932    602.471    548.874    537.932    537.932
 76.170    686.000    625.982     60.018    537.923    612.469    551.416    537.923    537.923
 76.270    604.304    642.238    -37.934    537.914    625.486    554.637    537.914    537.914
 76.370    668.000    661.952      6.048    537.903    641.323    558.495    537.903    537.903
 76.470    725.000    684.457     40.543    537.890    659.437    562.866    537.890    537.890
 76.570    752.489    708.576     43.913    537.877    678.869    567.531    537.877    537.877
 76.670    683.436    732.559    -49.123    537.862    698.199    572.162    537.862    537.862
 76.770    757.862    754.084      3.778    537.846    715.547    576.319    537.846    537.846
 76.870    821.000    770.451     50.549    537.829    728.719    579.494    537.829    537.829
 76.970    742.000    779.101    -37.101    537.811    735.642    581.203    537.811    537.811
 77.070    774.241    778.443     -4.202    537.791    735.027    581.147    537.791    537.791
 77.170    776.615    768.525      8.090    537.770    726.908    579.333    537.770    537.770
 77.270    705.145    751.000    -45.856    537.748    712.627    576.076    537.748    537.748
 77.370    730.000    728.434      1.566    537.725    694.260    571.862    537.725    537.725
 77.470    738.499    703.488     35.011    537.700    673.965    567.193    537.700    537.700
 77.570    697.251    678.411     18.841    537.675    653.564    562.498    537.675    537.675
 77.670    646.512    654.866     -8.354    537.647    634.405    558.091    537.647    537.647
 77.770    614.000    633.933    -19.933    537.619    617.363    554.176    537.619    537.619
 77.870    610.259    616.179     -5.920    537.589    602.898    550.861    537.589    537.589
 77.970    630.387    601.735     28.652    537.558    591.114    548.172    537.558    537.558
 78.070    590.000    590.419     -0.419    537.526    581.865    546.074    537.526    537.526
 78.170    559.000    581.845    -22.845    537.492    574.838    544.495    537.492    537.492
 78.270    550.000    575.533    -25.533    537.458    569.642    543.345    537.458    537.458
 78.370    527.000    570.994    -43.994    537.421    565.881    542.531    537.421    537.421
 78.470    581.000    567.784     13.216    537.384    563.195    541.971    537.384    537.384
 78.570    596.665    565.539     31.126    537.345    561.287    541.595    537.345    537.345
 78.670    555.000    563.979     -8.979    537.305    559.930    541.352    537.305    537.305
 78.770    583.337    562.904     20.433    537.263    558.962    541.204    537.263    537.263
 78.870    537.822    562.182    -24.360    537.220    558.273    541.127    537.220    537.220
 78.970    535.000    561.728    -26.728    537.176    557.795    541.107    537.176    537.176
 79.070    540.619    561.498    -20.880    537.130    557.491    541.136    537.130    537.130
 79.170    587.141    561.476     25.664    537.083    557.345    541.213    537.083    537.083
 79.270    597.248    561.665     35.583    537.035    557.358    541.341    537.035    537.035
 79.370    569.000    562.085      6.915    536.985    557.541    541.529    536.985    536.985
 79.470    609.000    562.775     46.225    536.934    557.916    541.792    536.934    536.934
 79.570    566.000    563.789      2.211    536.882    558.514    542.155    536.882    536.882
 79.670    569.000    565.205      3.795    536.828    559.374    542.656    536.828    536.828
 79.770    544.000    567.131    -23.131    536.773    560.547    543.353    536.773    536.773
 79.870    550.153    569.713    -19.560    536.716    562.096    544.329    536.716    536.716
 79.970    554.000    573.154    -19.154    536.658    564.102    545.706    536.658    536.658
 80.070    578.000    577.723      0.277    536.599    566.672    547.644    536.599    536.599
 80.170    550.000    583.761    -33.761    536.538    569.938    550.354    536.538    536.538
 80.270    596.000    591.686      4.314    536.476    574.068    554.085    536.476    536.476
 80.370    583.000    601.968    -18.968    536.412    579.256    559.115    536.412    536.412
 80.470    601.000    615.105    -14.105    536.347    585.723    565.719    536.347    536.347
 80.570    665.851    631.571     34.280    536.281    593.711    574.130    536.281    536.281
 80.670    692.000    651.757     40.243    536.213    603.475    584.484    536.213    536.213
 80.770    684.000    675.875      8.125    536.143    615.244    596.764    536.143    536.143
 80.870    723.370    703.833     19.537    536.073    629.161    610.737    536.073    536.073
 80.970    752.000    735.099     16.901    536.000    645.195    625.900    536.000    536.000
 81.070    777.000    768.592      8.408    535.927    663.065    641.454    535.927    535.927
 81.170    803.000    802.645      0.355    535.852    682.196    656.309    535.852    535.852
 81.270    873.699    835.103     38.596    535.775    701.727    669.167    535.775    535.775
 81.370    829.000    863.609    -34.609    535.697    720.609    678.723    535.697    535.697
 81.470    943.066    886.050     57.016    535.618    737.757    683.948    535.618    535.618
 81.570    869.638    900.951    -31.313    535.537    752.211    684.324    535.537    535.537
 81.670    934.000    907.619     26.381    535.454    763.221    679.911    535.454    535.454
 81.770    851.155    906.112    -54.957    535.370    770.294    671.255    535.370    535.370
 81.870    926.000    897.151     28.849    535.285    773.234    659.275    535.285    535.285
 81.970    907.000    881.965     25.035    535.198    772.111    645.130    535.198    535.198
 82.070    896.000    862.003     33.997    535.110    767.157    630.037    535.110    535.110
 82.170    900.000    838.678     61.322    535.020    758.687    615.092    535.020    535.020
 82.270    817.651    813.286      4.365    534.929    747.158    601.137    534.929    534.929
 82.370    765.000    787.047    -22.047    534.836    733.238    588.723    534.836    534.836
 82.470    726.050    761.058    -35.008    534.742    717.755    578.120    534.742    534.742
 82.570    724.000    736.165    -12.165    534.647    701.510    569.371    534.647    534.647
 82.670    672.000    712.863    -40.863    534.550    685.126    562.351    534.550    534.550
 82.770    654.245    691.355    -37.110    534.451    669.030    556.834    534.451    534.451
 82.870    663.000    671.701     -8.701    534.351    653.550    552.554    534.351    534.351
 82.970    645.947    653.973     -8.026    534.249    639.013    549.256    534.249    534.249
 83.070    554.000    638.299    -84.299    534.146    625.767    546.717    534.146    534.146
 83.170    630.000    624.827      5.173    534.042    614.138    544.763    534.042    534.042
 83.270    581.000    613.679    -32.679    533.936    604.379    543.260    533.936    533.936
 83.370    559.897    604.914    -45.017    533.828    596.647    542.112    533.828    533.828
 83.470    599.000    598.525      0.475    533.719    591.000    541.252    533.719    533.719
 83.570    554.140    594.433    -40.293    533.608    587.409    540.634    533.608    533.608
 83.670    585.000    592.486     -7.486    533.496    585.756    540.220    533.496    533.496
 83.770    525.000    592.451    -67.451    533.383    585.838    539.982    533.383    533.383
 83.870    599.000    594.009      4.991    533.268    587.369    539.888    533.268    533.268
 83.970    550.000    596.745    -46.745    533.151    589.969    539.900    533.151    533.151
 84.070    580.000    600.151    -20.151    533.033    593.176    539.975    533.033    533.033
 84.170    609.459    603.761      5.698    532.914    596.559    540.077    532.914    532.914
 84.270    567.000    606.924    -39.924    532.792    599.525    540.149    532.792    532.792
 84.370    635.000    609.038     25.962    532.670    601.522    540.141    532.670    532.670
 84.470    560.000    609.614    -49.614    532.546    602.103    540.012    532.546    532.546
 84.570    634.778    608.394     26.384    532.420    601.030    539.740    532.420    532.420
 84.670    596.191    605.414     -9.223    532.293    598.338    539.330    532.293    532.293
 84.770    600.000    600.978     -0.978    532.165    594.299    538.807    532.165    532.165
 84.870    578.566    595.539    -16.973    532.035    589.327    538.214    532.035    532.035
 84.970    585.000    589.582     -4.582    531.903    583.860    537.597    531.903    531.903
 85.070    572.000    583.548    -11.548    531.770    578.296    536.999    531.770    531.770
 85.170    556.000    577.796    -21.796    531.635    572.952    536.460    531.635    531.635
 85.270    543.000    572.596    -29.596    531.499    568.063    536.016    531.499    531.499
 85.370    578.000    568.130      9.870    531.362    563.779    535.699    531.362    531.362
 85.470    543.857    564.502    -20.644    531.223    560.176    535.537    531.223    531.223
 85.570    548.323    561.750    -13.427    531.082    557.265    535.557    531.082    531.082
 85.670    535.000    559.865    -24.865    530.940    555.015    535.781    530.940    530.940
 85.770    531.189    558.811    -27.621    530.797    553.370    536.228    530.797    530.797
 85.870    537.000    558.529    -21.529    530.652    552.261    536.910    530.652    530.652
 85.970    536.876    558.958    -22.082    530.505    551.622    537.831    530.505    530.505
 86.070    580.302    560.039     20.263    530.357    551.408    538.978    530.357    530.357
 86.170    535.000    561.724    -26.724    530.207    551.596    540.323    530.207    530.207
 86.270    536.000    563.969    -27.969    530.056    552.192    541.819    530.056    530.056
 86.370    575.000    566.742      8.258    529.904    553.238    543.392    529.904    529.904
 86.470    587.394    570.018     17.376    529.750    554.803    544.946    529.750    529.750
 86.570    579.000    573.774      5.226    529.595    556.986    546.361    529.595    529.595
 86.670    592.355    577.994     14.361    529.438    559.905    547.500    529.438    529.438
 86.770    551.017    582.672    -31.655    529.279    563.692    548.228    529.279    529.279
 86.870    612.000    587.825     24.175    529.119    568.471    548.436    529.119    529.119
 86.970    597.000    593.511      3.489    528.958    574.348    548.078    528.958    528.958
 87.070    611.000    599.820     11.180    528.795    581.382    547.181    528.795    528.795
 87.170    589.000    606.835    -17.835    528.631    589.568    545.837    528.631    528.631
 87.270    638.820    614.585     24.236    528.465    598.805    544.174    528.465    528.465
 87.370    652.000    622.986     29.014    528.298    608.880    542.323    528.298    528.298
 87.470    654.000    631.813     22.187    528.130    619.448    540.402    528.130    528.130
 87.570    592.671    640.677    -48.006    527.960    630.026    538.508    527.960    527.960
 87.670    692.000    649.030     42.970    527.788    639.991    536.716    527.788    527.788
 87.770    630.000    656.194    -26.194    527.615    648.613    535.077    527.615    527.615
 87.870    683.000    661.441     21.559    527.441    655.137    533.623    527.441    527.441
 87.970    650.000    664.151    -14.151    527.265    658.931    532.363    527.265    527.265
 88.070    763.000    663.974     99.026    527.088    659.649    531.295    527.088    527.088
 88.170    672.000    660.951     11.049    526.909    657.346    530.404    526.909    526.909
 88.270    671.000    655.496     15.504    526.729    652.456    529.670    526.729    526.729
 88.370    717.000    648.272     68.728    526.547    645.664    529.069    526.547    526.547
 88.470    682.571    640.043     42.528    526.364    637.755    528.580    526.364    526.364
 88.570    628.000    631.572     -3.572    526.180    629.510    528.183    526.180    526.180
 88.670    638.000    623.544     14.456    525.994    621.631    527.862    525.994    525.994
 88.770    649.000    616.539     32.461    525.807    614.712    527.602    525.807    525.807
 88.870    607.000    611.003     -4.003    525.619    609.207    527.394    525.619    525.619
 88.970    602.000    607.227     -5.227    525.429    605.416    527.230    525.429    525.429
 89.070    565.507    605.338    -39.831    525.238    603.473    527.102    525.238    525.238
 89.170    581.000    605.303    -24.303    525.045    603.352    527.005    525.045    525.045
 89.270    619.975    606.933     13.042    524.851    604.872    526.930    524.851    524.851
 89.370    612.000    609.901      2.099    524.655    607.714    526.870    524.655    524.655
 89.470    583.000    613.759    -30.759    524.459    611.437    526.815    524.459    524.459
 89.570    589.000    617.954    -28.954    524.261    615.505    526.753    524.261    524.261
 89.670    594.000    621.868    -27.868    524.061    619.307    526.671    524.061    524.061
 89.770    626.809    624.862      1.948    523.860    622.220    526.556    523.860    523.860
 89.870    675.571    626.367     49.204    523.658    623.687    526.397    523.658    523.658
 89.970    606.139    625.990    -19.851    523.455    623.322    526.185    523.455    523.455
 90.070    588.898    623.603    -34.706    523.250    620.997    525.918    523.250    523.250
 90.170    584.581    619.360    -34.779    523.044    616.862    525.602    523.044    523.044
 90.270    656.000    613.627     42.373    522.836    611.274    525.246    522.836    522.836
 90.370    598.000    606.880     -8.880    522.628    604.696    524.864    522.628    522.628
 90.470    579.000    599.602    -20.602    522.418    597.601    524.466    522.418    522.418
 90.570    599.000    592.228      6.772    522.207    590.411    524.064    522.207    522.207
 90.670    611.236    585.112     26.124    521.994    583.473    523.668    521.994    521.994
 90.770    577.096    578.525     -1.429    521.780    577.050    523.284    521.780    521.780
 90.870    545.591    572.650    -27.059    521.565    571.323    522.916    521.565    521.565
 90.970    587.965    567.597     20.369    521.349    566.397    522.567    521.349    521.349
 91.070    547.000    563.405    -16.405    521.131    562.312    522.238    521.131    521.131
 91.170    510.988    560.063    -49.075    520.912    559.056    521.930    520.912    520.912
 91.270    566.000    557.522      8.478    520.692    556.582    521.640    520.692    520.692
 91.370    541.373    555.716    -14.343    520.471    554.825    521.366    520.471    520.471
 91.470    604.113    554.572     49.542    520.249    553.714    521.109    520.249    520.249
 91.570    576.000    554.027     21.973    520.025    553.188    520.864    520.025    520.025
 91.670    502.722    554.039    -51.317    519.800    553.206    520.632    519.800    519.800
 91.770    567.969    554.593     13.375    519.574    553.753    520.412    519.574    519.574
 91.870    554.085    555.708     -1.623    519.347    554.848    520.203    519.347    519.347
 91.970    581.480    557.436     24.044    519.118    556.540    520.008    519.118    519.118
 92.070    504.892    559.862    -54.970    518.889    558.916    519.828    518.889    518.889
 92.170    534.219    563.104    -28.886    518.658    562.089    519.664    518.658    518.658
 92.270    565.000    567.305     -2.305    518.426    566.199    519.520    518.426    518.426
 92.370    567.000    572.621     -5.621    518.193    571.400    519.399    518.193    518.193
 92.470    542.000    579.216    -37.216    517.959    577.852    519.303    517.959    517.959
 92.570    562.000    587.240    -25.240    517.724    585.706    519.235    517.724    517.724
 92.670    630.335    596.820     33.515    517.488    595.084    519.194    517.488    517.488
 92.770    570.000    608.038    -38.038    517.251    606.071    519.182    517.251    517.251
 92.870    644.000    620.918     23.082    517.012    618.693    519.196    517.012    517.012
 92.970    635.000    635.411     -0.411    516.773    632.903    519.232    516.773    516.773
 93.070    593.328    651.375    -58.047    516.532    648.568    519.285    516.532    516.532
 93.170    652.000    668.574    -16.574    516.291    665.456    519.346    516.291    516.291
 93.270    665.000    686.659    -21.659    516.048    683.231    519.407    516.048    516.048
 93.370    712.000    705.185      6.815    515.804    701.456    519.458    515.804    515.804
 93.470    730.000    723.632      6.368    515.560    719.622    519.490    515.560    515.560
 93.570    715.000    741.482    -26.482    515.314    737.216    519.496    515.314    515.314
 93.670    811.964    758.327     53.637    515.067    753.833    519.476    515.067    515.067
 93.770    759.000    773.974    -14.974    514.820    769.268    519.439    514.820    514.820
 93.870    812.921    788.490     24.431    514.571    783.572    519.403    514.571    514.571
 93.970    780.000    802.150    -22.150    514.322    796.990    519.395    514.322    514.322
 94.070    771.441    815.308    -43.867    514.071    809.846    519.449    514.071    514.071
 94.170    844.961    828.268     16.693    513.820    822.409    519.596    513.820    513.820
 94.270    860.000    841.198     18.802    513.568    834.818    519.866    513.568    513.568
 94.370    864.000    854.125      9.875    513.315    847.081    520.280    513.315    513.315
 94.470    955.000    867.022     87.978    513.061    859.158    520.848    513.061    513.061
 94.570    836.762    879.882    -43.120    512.806    871.045    521.569    512.806    512.806
 94.670    864.000    892.679    -28.679    512.550    882.733    522.425    512.550    512.550
 94.770    910.000    905.347      4.653    512.294    894.188    523.385    512.294    512.294
 94.870    892.483    917.646    -25.163    512.036    905.219    524.399    512.036    512.036
 94.970    961.689    929.056     32.634    511.778    915.369    525.405    511.778    511.778
 95.070    974.497    938.732     35.764    511.519    923.871    526.326    511.519    511.519
 95.170   1000.000    945.563     54.437    511.259    929.697    527.077    511.259    511.259
 95.270    906.017    948.320    -42.303    510.999    931.703    527.576    510.999    510.999
 95.370    912.139    945.910    -33.771    510.737    928.866    527.750    510.737    510.737
 95.470    995.000    937.668     57.332    510.475    920.568    527.553    510.475    510.475
 95.570    932.000    923.593      8.407    510.212    906.811    526.980    510.212    510.212
 95.670    945.676    904.398     41.278    509.949    888.280    526.061    509.949    509.949
 95.770    898.000    881.384     16.616    509.685    866.209    524.859    509.685    509.685
 95.870    830.093    856.192    -26.099    509.420    842.160    523.455    509.420    509.420
 95.970    803.000    830.578    -27.578    509.154    817.804    521.933    509.154    509.154
 96.070    859.000    806.256     52.744    508.888    794.776    520.373    508.888    508.888
 96.170    738.401    784.821    -46.420    508.621    774.600    518.845    508.621    508.621
 96.270    813.000    767.707     45.293    508.354    758.653    517.407    508.354    508.354
 96.370    748.000    756.177     -8.177    508.086    748.155    516.102    508.086    508.086
 96.470    765.285    751.314     13.972    507.817    744.158    514.962    507.817    507.817
 96.570    732.000    754.016    -22.016    507.548    747.542    514.004    507.548    507.548
 96.670    826.000    764.991     61.009    507.278    759.007    513.236    507.278    507.278
 96.770    781.000    784.742     -3.742    507.008    779.058    512.657    507.008    507.008
 96.870    785.000    813.546    -28.546    506.737    807.981    512.258    506.737    506.737
 96.970    895.000    851.428     43.572    506.466    845.812    512.027    506.466    506.466
 97.070    943.000    898.117     44.883    506.194    892.297    511.949    506.194    506.194
 97.170    940.000    952.992    -12.992    505.922    946.835    512.004    505.922    505.922
 97.270   1039.000   1015.038     23.962    505.650   1008.432    512.171    505.650    505.650
 97.370   1073.000   1082.783     -9.783    505.376   1075.642    512.425    505.376    505.376
 97.470   1226.336   1154.261     72.075    505.103   1146.528    512.738    505.103    505.103
 97.570   1187.332   1226.980    -39.648    504.829   1218.632    513.076    504.829    504.829
 97.670   1315.000   1297.936     17.064    504.555   1288.986    513.404    504.555    504.555
 97.770   1322.323   1363.660    -41.337    504.280   1354.163    513.680    504.280    504.280
 97.870   1463.322   1420.394     42.928    504.005   1410.449    513.863    504.005    504.005
 97.970   1434.966   1464.437    -29.471    503.730   1454.181    513.910    503.730    503.730
 98.070   1509.768   1492.651     17.117    503.455   1482.258    513.788    503.455    503.455
 98.170   1516.000   1503.033     12.967    503.179   1492.695    513.475    503.179    503.179
 98.270   1575.000   1495.131     79.869    502.903   1485.042    512.970    502.903    502.903
 98.370   1420.321   1470.110    -49.789    502.626   1460.448    512.285    502.626    502.626
 98.470   1487.394   1430.420     56.974    502.350   1421.332    511.451    502.350    502.350
 98.570   1388.223   1379.517      8.706    502.073   1371.111    510.505    502.073    502.073
 98.670   1401.166   1321.035     80.131    501.796   1313.381    509.485    501.796    501.796
 98.770   1251.745   1258.611     -6.866    501.519   1251.741    508.430    501.519    501.519
 98.870   1198.000   1195.630      2.370    501.242   1189.545    507.371    501.242    501.242
 98.970   1127.000   1135.103     -8.103    500.965   1129.775    506.335    500.965    500.965
 99.070   1043.304   1079.612    -36.308    500.687   1074.995    505.344    500.687    500.687
 99.170   1026.000   1031.322     -5.322    500.410   1027.354    504.413    500.410    500.410
 99.270   1029.000    992.000     37.000    500.133    988.609    503.552    500.133    500.133
 99.370    954.000    963.047     -9.047    499.855    960.158    502.765    499.855    499.855
 99.470    955.000    945.555      9.445    499.577    943.091    502.055    499.577    499.577
 99.570    948.000    940.292      7.708    499.300    938.181    501.417    499.300    499.300
 99.670    882.715    947.730    -65.015    499.022    945.904    500.847    499.022    499.022
 99.770    973.000    968.059      4.941    498.745    966.459    500.339    498.745    498.745
 99.870   1064.338   1001.193     63.146    498.468    999.765    499.884    498.468    498.468
 99.970   1045.000   1046.756     -1.756    498.190   1045.457    499.474    498.190    498.190
100.070   1078.592   1104.071    -25.479    497.913   1102.866    499.103    497.913    497.913
100.170   1164.000   1172.129     -8.129    497.636   1170.989    498.763    497.636    497.636
100.270   1305.000   1249.546     55.454    497.360   1248.448    498.447    497.360    497.360
100.370   1309.000   1334.520    -25.520    497.083   1333.450    498.151    497.083    497.083
100.470   1483.000   1424.804     58.196    496.807   1423.750    497.869    496.807    496.807
100.570   1494.000   1517.700    -23.700    496.531   1516.655    497.597    496.531    496.531
100.670   1520.965   1610.135    -89.171    496.255   1609.096    497.332    496.255    496.255
100.770   1743.000   1698.837     44.163    495.979   1697.803    497.072    495.979    495.979
100.870   1803.000   1780.611     22.389    495.704   1779.580    496.815    495.704    495.704
100.970   1798.000   1852.656    -54.656    495.429   1851.628    496.560    495.429    495.429
101.070   1963.000   1912.800     50.200    495.154   1911.773    496.306    495.154    495.154
101.170   2058.147   1959.538     98.609    494.880   1958.508    496.056    494.880    494.880
101.270   2046.000   1991.878     54.122    494.607   1990.840    495.809    494.607    494.607
101.370   2025.135   2009.122     16.013    494.333   2008.068    495.568    494.333    494.333
101.470   2112.000   2010.745    101.255    494.061   2009.664    495.334    494.061    494.061
101.570   1938.220   1996.493    -58.273    493.788   1995.376    495.109    493.788    493.788
101.670   1906.924   1966.674    -59.749    493.516   1965.508    494.892    493.516    493.516
101.770   1904.000   1922.471    -18.471    493.245   1921.245    494.685    493.245    493.245
101.870   1869.000   1866.091      2.909    492.975   1864.792    494.486    492.975    492.975
101.970   1840.000   1800.620     39.380    492.704   1799.239    494.294    492.704    492.704
102.070   1816.744   1729.637     87.108    492.435   1728.166    494.107    492.435    492.435
102.170   1604.000   1656.744    -52.744    492.166   1655.180    493.922    492.166    492.166
102.270   1554.000   1585.167    -31.167    491.898   1583.510    493.735    491.898    491.898
102.370   1490.241   1517.481    -27.240    491.631   1515.736    493.543    491.631    491.631
102.470   1415.209   1455.594    -40.385    491.364   1453.771    493.341    491.364    491.364
102.570   1366.000   1400.578    -34.578    491.098   1398.692    493.126    491.098    491.098
102.670   1329.000   1352.796    -23.796    490.833   1350.863    492.896    490.833    490.833
102.770   1289.000   1311.937    -22.937    490.569   1309.976    492.650    490.569    490.569
102.870   1244.355   1277.098    -32.744    490.305   1275.128    492.388    490.305    490.305
102.970   1215.620   1246.886    -31.267    490.043   1244.926    492.108    490.043    490.043
103.070   1154.000   1219.572    -65.572    489.781   1217.642    491.812    489.781    489.781
103.170   1095.000   1193.296    -98.296    489.520   1191.414    491.500    489.520    489.520
103.270   1079.000   1166.324    -87.324    489.261   1164.509    491.172    489.261    489.261
103.370   1157.000   1137.295     19.705    489.002   1135.562    490.830    489.002    489.002
103.470   1066.000   1105.401    -39.401    488.744   1103.765    490.475    488.744    488.744
103.570   1004.000   1070.440    -66.440    488.487   1068.910    490.110    488.487    488.487
103.670   1094.429   1032.734     61.695    488.232   1031.317    489.739    488.232    488.232
103.770    960.000    992.967    -32.967    487.977    991.666    489.365    487.977    487.977
103.870    946.870    952.014     -5.144    487.724    950.829    488.991    487.724    487.724
103.970    856.779    910.794    -54.015    487.472    909.721    488.621    487.472    487.472
104.070    810.426    870.180    -59.754    487.221    869.214    488.257    487.221    487.221
104.170    838.000    830.951      7.049    486.971    830.085    487.902    486.971    486.971
104.270    822.000    793.757     28.243    486.722    792.982    487.555    486.722    486.722
104.370    765.000    759.124      5.876    486.475    758.431    487.220    486.475    486.475
104.470    778.065    727.428     50.637    486.229    726.808    486.895    486.229    486.229
104.570    715.000    698.903     16.097    485.985    698.347    486.581    485.985    485.985
104.670    677.299    673.651      3.647    485.741    673.149    486.277    485.741    485.741
104.770    683.000    651.656     31.344    485.500    651.200    485.985    485.500    485.500
104.870    663.000    632.802     30.198    485.259    632.383    485.702    485.259    485.259
104.970    673.000    616.896     56.104    485.021    616.508    485.428    485.021    485.021
105.070    636.000    603.696     32.304    484.783    603.332    485.163    484.783    484.783
105.170    652.000    592.929     59.071    484.548    592.584    484.906    484.548    484.548
105.270    630.000    584.319     45.681    484.314    583.985    484.656    484.314    484.314
105.370    687.000    577.596    109.404    484.081    577.271    484.413    484.081    484.081
105.470    609.000    572.519     36.481    483.850    572.197    484.177    483.850    483.850
105.570    577.000    568.877      8.123    483.621    568.554    483.946    483.621    483.621
105.670    574.000    566.500      7.500    483.394    566.171    483.723    483.394    483.394
105.770    597.000    565.256     31.744    483.168    564.916    483.505    483.168    483.168
105.870    539.882    565.053    -25.171    482.944    564.698    483.294    482.944    482.944
105.970    593.000    565.833     27.167    482.722    565.458    483.090    482.722    482.722
106.070    579.000    567.572     11.428    482.502    567.171    482.894    482.502    482.502
106.170    574.000    570.265      3.735    482.284    569.832    482.705    482.284    482.284
106.270    586.000    573.926     12.074    482.067    573.454    482.525    482.067    482.067
106.370    629.849    578.566     51.283    481.853    578.049    482.354    481.853    481.853
106.470    564.000    584.240    -20.240    481.641    583.669    482.192    481.641    481.641
106.570    611.000    590.972     20.028    481.430    590.340    482.040    481.430    481.430
106.670    588.000    598.758    -10.758    481.222    598.056    481.898    481.222    481.222
106.770    598.000    607.576     -9.576    481.016    606.797    481.766    481.016    481.016
106.870    648.000    617.370     30.630    480.812    616.507    481.643    480.812    480.812
106.970    632.000    628.042      3.958    480.610    627.089    481.528    480.610    480.610
107.070    681.558    639.447     42.110    480.410    638.399    481.420    480.410    480.410
107.170    642.000    651.391     -9.391    480.213    650.246    481.317    480.213    480.213
107.270    640.000    663.627    -23.627    480.018    662.385    481.217    480.018    480.018
107.370    725.067    675.863     49.204    479.825    674.526    481.117    479.825    479.825
107.470    686.000    687.763     -1.763    479.635    686.337    481.013    479.635    479.635
107.570    693.928    698.958     -5.030    479.447    697.454    480.904    479.447    479.447
107.670    674.000    709.073    -35.073    479.262    707.502    480.785    479.262    479.262
107.770    691.000    717.752    -26.752    479.079    716.132    480.652    479.079    479.079
107.870    708.729    724.709    -15.981    478.898    723.059    480.503    478.898    478.898
107.970    769.943    729.776     40.168    478.720    728.117    480.337    478.720    478.720
108.070    720.000    732.935    -12.935    478.545    731.290    480.152    478.545    478.545
108.170    732.738    734.336     -1.597    478.373    732.724    479.949    478.373    478.373
108.270    714.000    734.267    -20.267    478.203    732.708    479.731    478.203    478.203
108.370    750.000    733.116     16.884    478.035    731.625    479.499    478.035    478.035
108.470    711.000    731.309    -20.309    477.871    729.897    479.259    477.871    477.871
108.570    712.000    729.258    -17.258    477.709    727.935    479.013    477.709    477.709
108.670    737.000    727.324      9.676    477.551    726.095    478.764    477.551    477.551
108.770    736.844    725.790     11.054    477.395    724.656    478.516    477.395    477.395
108.870    695.113    724.847    -29.735    477.242    723.808    478.272    477.242    477.242
108.970    747.787    724.586     23.201    477.092    723.639    478.033    477.092    477.092
109.070    739.828    724.995     14.833    476.945    724.136    477.802    476.945    476.945
109.170    751.000    725.963     25.037    476.801    725.185    477.579    476.801    476.801
109.270    686.000    727.281    -41.281    476.660    726.579    477.366    476.660    476.660
109.370    706.000    728.659    -22.659    476.522    728.026    477.163    476.522    476.522
109.470    768.734    729.743     38.991    476.388    729.171    476.970    476.388    476.388
109.570    679.512    730.145    -50.634    476.257    729.628    476.787    476.257    476.257
109.670    783.000    729.488     53.512    476.129    729.018    476.614    476.129    476.129
109.770    737.000    727.448      9.552    476.004    727.021    476.449    476.004    476.004
109.870    753.000    723.806     29.194    475.883    723.416    476.292    475.883    475.883
109.970    704.000    718.474    -14.474    475.765    718.116    476.144    475.765    475.765
110.070    771.605    711.503     60.102    475.650    711.172    476.002    475.650    475.650
110.170    657.071    703.065    -45.994    475.539    702.760    475.867    475.539    475.539
110.270    734.165    693.424     40.741    475.432    693.139    475.739    475.432    475.432
110.370    633.000    682.889    -49.889    475.328    682.622    475.616    475.328    475.328
110.470    680.000    671.786      8.214    475.228    671.535    475.499    475.228    475.228
110.570    693.000    660.432     32.568    475.131    660.194    475.388    475.131    475.131
110.670    668.000    649.117     18.883    475.038    648.892    475.282    475.038    475.038
110.770    595.118    638.099    -42.981    474.949    637.884    475.181    474.949    474.949
110.870    654.165    627.596     26.569    474.864    627.388    475.085    474.864    474.864
110.970    663.933    617.784     46.149    474.782    617.584    474.994    474.782    474.782
111.070    611.000    608.802      2.198    474.705    608.608    474.908    474.705    474.705
111.170    645.614    600.747     44.867    474.631    600.558    474.828    474.631    474.631
111.270    573.479    593.679    -20.200    474.561    593.494    474.752    474.561    474.561
111.370    598.000    587.622     10.378    474.496    587.441    474.681    474.496    474.496
111.470    630.000    582.569     47.431    474.434    582.393    474.613    474.434    474.434
111.570    579.672    578.502      1.170    474.377    578.328    474.552    474.377    474.377
111.670    610.000    575.365     34.635    474.324    575.192    474.496    474.324    474.324
111.770    533.044    573.093    -40.049    474.275    572.920    474.445    474.275    474.275
111.870    593.000    571.611     21.389    474.230    571.438    474.399    474.230    474.230
111.970    611.879    570.838     41.040    474.190    570.665    474.358    474.190    474.190
112.070    519.327    570.694    -51.367    474.154    570.520    474.322    474.154    474.154
112.170    604.051    571.101     32.951    474.122    570.925    474.290    474.122    474.122
112.270    591.000    571.996     19.004    474.095    571.820    474.263    474.095    474.095
112.370    605.075    573.309     31.766    474.073    573.131    474.241    474.073    474.073
112.470    595.000    574.983     20.017    474.055    574.804    474.224    474.055    474.055
112.570    531.000    576.974    -45.974    474.041    576.793    474.211    474.041    474.041
112.670    564.000    579.250    -15.250    474.033    579.067    474.204    474.033    474.033
112.770    616.000    581.791     34.209    474.029    581.607    474.201    474.029    474.029
112.870    639.192    584.594     54.598    474.030    584.408    474.203    474.030    474.030
112.970    590.000    587.667      2.333    474.035    587.480    474.210    474.035    474.035
113.070    579.110    591.035    -11.925    474.046    590.846    474.223    474.046    474.046
113.170    596.910    594.736      2.173    474.061    594.544    474.241    474.061    474.061
113.270    587.000    598.824    -11.824    474.082    598.628    474.264    474.082    474.082
113.370    566.589    603.369    -36.779    474.107    603.169    474.293    474.107    474.107
113.470    651.958    608.463     43.495    474.138    608.258    474.328    474.138    474.138
113.570    569.000    614.225    -45.225    474.173    614.013    474.369    474.173    474.173
113.670    614.000    620.806     -6.806    474.214    620.586    474.417    474.214    474.214
113.770    618.000    628.399    -10.399    474.260    628.170    474.471    474.260    474.260
113.870    660.075    637.250     22.825    474.312    637.009    474.533    474.312    474.312
113.970    645.000    647.671     -2.671    474.369    647.415    474.601    474.369    474.369
114.070    627.401    660.055    -32.654    474.431    659.781    474.678    474.431    474.431
114.170    691.717    674.891     16.826    474.498    674.596    474.763    474.498    474.498
114.270    640.676    692.786    -52.109    474.572    692.465    474.856    474.572    474.572
114.370    691.000    714.479    -23.479    474.650    714.128    474.958    474.650    474.650
114.470    686.000    740.865    -54.865    474.735    740.479    475.069    474.735    474.735
114.570    757.000    773.007    -16.007    474.825    772.580    475.189    474.825    474.825
114.670    825.318    812.153     13.165    474.921    811.679    475.320    474.921    474.921
114.770    820.017    859.740    -39.724    475.022    859.212    475.460    475.022    475.022
114.870    940.194    917.398     22.796    475.130    916.809    475.610    475.130    475.130
114.970    970.000    986.933    -16.933    475.243    986.276    475.771    475.243    475.243
115.070   1070.402   1070.310      0.092    475.362   1069.577    475.941    475.362    475.362
115.170   1126.000   1169.609    -43.609    475.487   1168.793    476.121    475.487    475.487
115.270   1334.000   1286.970     47.030    475.619   1286.063    476.311    475.619    475.619
115.370   1461.000   1424.518     36.482    475.756   1423.514    476.511    475.756    475.756
115.470   1624.000   1584.273     39.727    475.900   1583.165    476.719    475.900    475.900
115.570   1842.615   1768.039     74.576    476.050   1766.822    476.936    476.050    476.050
115.670   1934.112   1977.284    -43.172    476.206   1975.955    477.161    476.206    476.206
115.770   2247.610   2213.010     34.600    476.369   2211.567    477.393    476.369    476.369
115.870   2369.646   2475.619   -105.973    476.538   2474.061    477.631    476.538    476.538
115.970   2997.000   2764.785    232.215    476.713   2763.114    477.874    476.713    476.713
116.070   3236.000   3079.333    156.667    476.895   3077.554    478.122    476.895    476.895
116.170   3508.232   3417.145     91.087    477.084   3415.264    478.375    477.084    477.084
116.270   3838.000   3775.078     62.922    477.279   3773.104    478.630    477.279    477.279
116.370   4262.029   4148.920    113.109    477.481   4146.863    478.889    477.481    477.481
116.470   4532.000   4533.371     -1.371    477.690   4531.244    479.151    477.690    477.690
116.570   4994.000   4922.060     71.940    477.906   4919.877    479.416    477.906    477.906
116.670   5276.000   5307.593    -31.593    478.129   5305.368    479.687    478.129    478.129
116.770   5712.642   5681.645     30.997    478.358   5679.395    479.962    478.358    478.358
116.870   5949.000   6035.113    -86.113    478.595   6032.852    480.244    478.595    478.595
116.970   6519.568   6358.347    161.221    478.838   6356.091    480.534    478.838    478.838
117.070   6789.000   6641.511    147.489    479.089   6639.272    480.831    479.089    479.089
117.170   6980.757   6875.078    105.678    479.347   6872.871    481.138    479.347    479.347
117.270   7111.000   7050.491     60.509    479.612   7048.325    481.453    479.612    479.612
117.370   7152.654   7160.897     -8.243    479.885   7158.780    481.777    479.885    479.885
117.470   7206.000   7201.869      4.131    480.165   7199.802    482.110    480.165    480.165
117.570   7193.631   7171.910     21.721    480.452   7169.895    482.449    480.452    480.452
117.670   7178.000   7072.606    105.394    480.747   7070.638    482.795    480.747    480.747
117.770   6900.000   6908.607     -8.607    481.050   6906.680    483.145    481.050    481.050
117.870   6563.000   6686.789   -123.789    481.360   6684.897    483.497    481.360    481.360
117.970   6169.000   6415.711   -246.711    481.678   6413.848    483.850    481.678    481.678
118.070   6168.982   6104.847     64.134    482.003   6103.007    484.201    482.003    482.003
118.170   5804.719   5763.933     40.786    482.337   5762.114    484.549    482.337    482.337
118.270   5324.000   5402.472    -78.472    482.678   5400.673    484.892    482.678    482.678
118.370   4910.000   5029.388   -119.388    483.028   5027.610    485.228    483.028    483.028
118.470   4713.000   4652.798     60.202    483.385   4651.045    485.559    483.385    483.385
118.570   4394.000   4279.867    114.133    483.751   4278.144    485.883    483.751    483.751
118.670   3905.185   3916.724    -11.539    484.125   3915.035    486.203    484.125    484.125
118.770   3505.000   3568.420    -63.420    484.507   3566.770    486.519    484.507    484.507
118.870   3204.000   3238.925    -34.925    484.897   3237.319    486.834    484.897    484.897
118.970   2995.000   2931.166     63.834    485.296   2929.608    487.151    485.296    485.296
119.070   2748.985   2647.088    101.898    485.703   2645.581    487.471    485.703    485.703
119.170   2381.000   2387.749     -6.749    486.118   2386.297    487.797    486.118    486.118
119.270   2087.926   2153.432    -65.506    486.543   2152.035    488.132    486.543    486.543
119.370   1978.437   1943.765     34.673    486.975   1942.423    488.477    486.975    486.975
119.470   1756.345   1757.846     -1.502    487.417   1756.558    488.834    487.417    487.417
119.570   1532.000   1594.367    -62.367    487.867   1593.132    489.205    487.867    487.867
119.670   1447.246   1451.726     -4.480    488.326   1450.539    489.592    488.326    488.326
119.770   1357.984   1328.131     29.854    488.795   1326.988    489.996    488.795    488.795
119.870   1299.083   1221.695     77.388    489.272   1220.591    490.418    489.272    489.272
119.970   1171.035   1130.518     40.518    489.758   1129.445    490.858    489.758    489.758
120.070    994.425   1052.745    -58.320    490.253   1051.697    491.318    490.253    490.253
120.170    930.932    986.625    -55.693    490.758    985.593    491.798    490.758    490.758
120.270    953.053    930.542     22.511    491.271    929.517    492.298    491.271    491.271
120.370    910.721    883.036     27.685    491.795    882.010    492.819    491.795    491.795
120.470    858.000    842.818     15.182    492.327    841.780    493.361    492.327    492.327
120.570    803.000    808.765     -5.765    492.869    807.705    493.923    492.869    492.869
120.670    812.000    779.915     32.085    493.421    778.824    494.506    493.421    493.421
120.770    746.000    755.457     -9.457    493.982    754.324    495.109    493.982    493.982
120.870    693.000    734.713    -41.713    494.553    733.527    495.733    494.553    494.553
120.970    688.000    717.120    -29.120    495.133    715.872    496.378    495.133    495.133
121.070    694.000    702.219     -8.219    495.724    700.897    497.043    495.724    495.724
121.170    672.000    689.634    -17.634    496.324    688.228    497.729    496.324    496.324
121.270    715.210    679.059     36.151    496.935    677.558    498.436    496.935    496.935
121.370    662.046    670.245     -8.199    497.555    668.637    499.165    497.555    497.555
121.470    656.195    662.989     -6.794    498.186    661.264    499.914    498.186    498.186
121.570    626.000    657.125    -31.125    498.827    655.270    500.686    498.827    498.827
121.670    667.759    652.514     15.245    499.478    650.518    501.480    499.478    499.478
121.770    659.892    649.040     10.852    500.140    646.890    502.297    500.140    500.140
121.870    627.000    646.602    -19.602    500.812    644.285    503.137    500.812    500.812
121.970    606.580    645.112    -38.532    501.494    642.615    504.002    501.494    501.494
122.070    613.000    644.490    -31.490    502.187    641.798    504.891    502.187    502.187
122.170    649.283    644.659      4.624    502.891    641.759    505.805    502.891    502.891
122.270    661.000    645.547     15.453    503.606    642.423    506.745    503.606    503.606
122.370    615.901    647.080    -31.178    504.331    643.718    507.711    504.331    504.331
122.470    671.365    649.181     22.184    505.067    645.568    508.701    505.067    505.067
122.570    679.634    651.773     27.861    505.815    647.896    509.714    505.815    505.815
122.670    602.778    654.772    -51.995    506.573    650.620    510.750    506.573    506.573
122.770    630.314    658.089    -27.776    507.343    653.653    511.806    507.343    507.343
122.870    704.188    661.630     42.558    508.123    656.905    512.878    508.123    508.123
122.970    659.000    665.294     -6.294    508.915    660.277    513.965    508.915    508.915
123.070    686.000    668.975     17.025    509.719    663.668    515.061    509.719    509.719
123.170    650.000    672.562    -22.562    510.533    666.970    516.163    510.533    510.533
123.270    652.405    675.941    -23.536    511.360    670.076    517.266    511.360    511.360
123.370    698.356    678.997     19.358    512.198    672.875    518.363    512.198    512.198
123.470    651.000    681.621    -30.621    513.047    675.263    519.451    513.047    513.047
123.570    670.000    683.711    -13.711    513.909    677.143    520.525    513.909    513.909
123.670    740.000    685.180     54.820    514.782    678.434    521.578    514.782    514.782
123.770    686.000    685.959      0.041    515.667    679.070    522.608    515.667    515.667
123.870    688.000    686.007      1.993    516.564    679.013    523.611    516.564    516.564
123.970    736.550    685.305     51.245    517.474    678.248    524.585    517.474    517.474
124.070    717.054    683.863     33.191    518.395    676.783    525.529    518.395    518.395
124.170    687.000    681.713      5.287    519.329    674.652    526.444    519.329    519.329
124.270    698.000    678.906     19.094    520.275    671.905    527.329    520.275    520.275
124.370    667.000    675.508     -8.508    521.234    668.608    528.186    521.234    521.234
124.470    683.199    671.594     11.604    522.205    664.832    529.018    522.205    522.205
124.570    686.000    667.246     18.754    523.189    660.657    529.826    523.189    523.189
124.670    628.000    662.546    -34.546    524.185    656.163    530.615    524.185    524.185
124.770    704.000    657.578     46.422    525.194    651.428    531.388    525.194    525.194
124.870    682.760    652.421     30.339    526.216    646.530    532.149    526.216    526.216
124.970    683.000    647.140     35.860    527.251    641.529    532.901    527.251    527.251
