neutron_powder_diffraction_0192
R_wp: 3.930
Temperature (K): 1074.000
Counts: 83537.00
Wavelength (Ã…): 2.52098
COMMENTS
Test file for demonstrating the .xyy file format in Reel1.0
END OF HEADER
   tth       Y_obs     Y_calc      Y_res    Background    Phase_1_Nuc    Phase_1_Mag    Phase_2_Nuc    Phase_2_Mag
  9.970    604.481    579.397     25.084    578.695    579.366    578.695    578.725    578.695
 10.070    599.000    579.402     19.598    578.642    579.371    578.642    578.672    578.642
 10.170    593.000    579.411     13.589    578.584    579.380    578.584    578.615    578.584
 10.270    568.844    579.427    -10.583    578.522    579.394    578.522    578.554    578.522
 10.370    579.000    579.459     -0.459    578.455    579.416    578.455    578.497    578.455
 10.470    632.000    579.493     52.507    578.384    579.449    578.384    578.428    578.384
 10.570    596.000    579.541     16.459    578.308    579.496    578.308    578.352    578.308
 10.670    593.150    579.607     13.542    578.228    579.563    578.228    578.272    578.228
 10.770    614.387    579.700     34.687    578.143    579.655    578.143    578.187    578.143
 10.870    586.000    579.828      6.172    578.054    579.782    578.054    578.099    578.054
 10.970    601.000    580.004     20.996    577.961    579.958    577.961    578.005    577.961
 11.070    582.000    580.245      1.755    577.863    580.198    577.863    577.908    577.863
 11.170    574.000    580.577     -6.577    577.761    580.530    577.761    577.806    577.761
 11.270    568.000    581.042    -13.042    577.655    580.994    577.655    577.701    577.655
 11.370    589.000    581.714      7.286    577.545    581.660    577.545    577.596    577.545
 11.470    600.000    582.738     17.262    577.431    582.683    577.431    577.483    577.431
 11.570    560.000    584.546    -24.546    577.313    584.489    577.313    577.365    577.313
 11.670    607.801    588.317     19.484    577.190    588.258    577.190    577.243    577.190
 11.770    654.000    596.718     57.282    577.064    596.654    577.064    577.117    577.064
 11.870    634.000    613.913     20.087    576.934    613.839    576.934    576.987    576.934
 11.970    685.000    642.988     42.012    576.800    642.898    576.800    576.854    576.800
 12.070    664.000    680.075    -16.075    576.663    679.962    576.663    576.716    576.663
 12.170    721.976    709.065     12.911    576.521    708.936    576.521    576.575    576.521
 12.270    646.000    709.868    -63.868    576.376    709.738    576.376    576.430    576.376
 12.370    690.000    681.638      8.362    576.227    681.523    576.227    576.282    576.227
 12.470    661.750    644.110     17.640    576.075    644.017    576.075    576.130    576.075
 12.570    629.000    614.102     14.898    575.919    614.025    575.919    575.974    575.919
 12.670    588.741    596.040     -7.299    575.759    595.973    575.759    575.814    575.759
 12.770    595.000    587.017      7.983    575.596    586.955    575.596    575.652    575.596
 12.870    591.000    582.810      8.190    575.429    582.750    575.429    575.485    575.429
 12.970    601.000    580.659     20.341    575.259    580.600    575.259    575.316    575.259
 13.070    552.873    579.327    -26.454    575.086    579.267    575.086    575.143    575.086
 13.170    616.876    578.365     38.511    574.909    578.304    574.909    574.969    574.909
 13.270    565.000    577.610    -12.610    574.729    577.547    574.729    574.790    574.729
 13.370    570.000    576.990     -6.990    574.546    576.926    574.546    574.608    574.546
 13.470    565.000    576.463    -11.463    574.360    576.400    574.360    574.422    574.360
 13.570    535.311    576.005    -40.694    574.170    575.941    574.170    574.233    574.170
 13.670    577.000    575.596      1.404    573.977    575.532    573.977    574.041    573.977
 13.770    573.000    575.223     -2.223    573.781    575.159    573.781    573.845    573.781
 13.870    578.000    574.879      3.121    573.583    574.814    573.583    573.647    573.583
 13.970    553.000    574.556    -21.556    573.381    574.491    573.381    573.445    573.381
 14.070    582.000    574.252      7.748    573.176    574.187    573.176    573.241    573.176
 14.170    593.000    573.961     19.039    572.968    573.895    572.968    573.033    572.968
 14.270    559.000    573.676    -14.676    572.757    573.610    572.757    572.823    572.757
 14.370    562.000    573.399    -11.399    572.544    573.332    572.544    572.610    572.544
 14.470    557.000    573.127    -16.127    572.328    573.060    572.328    572.394    572.328
 14.570    535.000    572.859    -37.859    572.108    572.792    572.108    572.175    572.108
 14.670    574.000    572.595      1.405    571.887    572.528    571.887    571.954    571.887
 14.770    614.714    572.333     42.381    571.662    572.266    571.662    571.729    571.662
 14.870    567.000    572.073     -5.073    571.435    572.005    571.435    571.503    571.435
 14.970    545.996    571.814    -25.818    571.205    571.746    571.205    571.273    571.205
 15.070    532.000    571.556    -39.556    570.973    571.488    570.973    571.041    570.973
 15.170    560.000    571.298    -11.298    570.738    571.229    570.738    570.807    570.738
 15.270    544.198    571.040    -26.842    570.501    570.971    570.501    570.570    570.501
 15.370    572.443    570.782      1.661    570.261    570.712    570.261    570.331    570.261
 15.470    547.000    570.524    -23.524    570.019    570.453    570.019    570.089    570.019
 15.570    553.000    570.264    -17.264    569.774    570.194    569.774    569.844    569.774
 15.670    560.000    570.004    -10.004    569.527    569.933    569.527    569.598    569.527
 15.770    594.948    569.744     25.203    569.278    569.671    569.278    569.351    569.278
 15.870    535.000    569.482    -34.482    569.026    569.409    569.026    569.100    569.026
 15.970    578.000    569.219      8.781    568.772    569.145    568.772    568.846    568.772
 16.070    532.000    568.954    -36.954    568.516    568.880    568.516    568.591    568.516
 16.170    551.000    568.689    -17.689    568.258    568.614    568.258    568.333    568.258
 16.270    576.000    568.421      7.579    567.998    568.346    567.998    568.073    567.998
 16.370    595.000    568.153     26.847    567.735    568.077    567.735    567.811    567.735
 16.470    550.000    567.883    -17.883    567.471    567.807    567.471    567.547    567.471
 16.570    583.606    567.612     15.994    567.204    567.535    567.204    567.281    567.204
 16.670    533.000    567.342    -34.342    566.936    567.265    566.936    567.013    566.936
 16.770    510.000    567.069    -57.069    566.665    566.991    566.665    566.743    566.665
 16.870    504.000    566.793    -62.793    566.393    566.715    566.393    566.471    566.393
 16.970    575.000    566.516      8.484    566.119    566.438    566.119    566.197    566.119
 17.070    591.000    566.238     24.762    565.842    566.159    565.842    565.922    565.842
 17.170    581.000    565.958     15.042    565.565    565.879    565.565    565.644    565.565
 17.270    522.672    565.677    -43.006    565.285    565.597    565.285    565.365    565.285
 17.370    546.000    565.395    -19.395    565.003    565.314    565.003    565.084    565.003
 17.470    572.836    565.111      7.724    564.720    565.030    564.720    564.801    564.720
 17.570    562.000    564.826     -2.826    564.435    564.744    564.435    564.517    564.435
 17.670    581.318    564.540     16.778    564.149    564.457    564.149    564.231    564.149
 17.770    549.000    564.252    -15.252    563.860    564.169    563.860    563.943    563.860
 17.870    552.000    563.963    -11.963    563.571    563.880    563.571    563.654    563.571
 17.970    592.651    563.674     28.977    563.279    563.589    563.279    563.364    563.279
 18.070    551.000    563.387    -12.387    562.986    563.297    562.986    563.076    562.986
 18.170    572.072    563.097      8.975    562.692    563.005    562.692    562.784    562.692
 18.270    541.000    562.804    -21.804    562.396    562.711    562.396    562.489    562.396
 18.370    558.000    562.509     -4.509    562.099    562.416    562.099    562.192    562.099
 18.470    528.000    562.213    -34.213    561.800    562.119    561.800    561.894    561.800
 18.570    538.000    561.916    -23.916    561.500    561.822    561.500    561.595    561.500
 18.670    563.000    561.619      1.381    561.199    561.523    561.199    561.294    561.199
 18.770    555.000    561.320     -6.320    560.896    561.224    560.896    560.992    560.896
 18.870    525.000    561.020    -36.020    560.592    560.923    560.592    560.689    560.592
 18.970    562.000    560.719      1.281    560.287    560.621    560.287    560.385    560.287
 19.070    559.000    560.418     -1.418    559.981    560.320    559.981    560.079    559.981
 19.170    593.000    560.129     32.871    559.673    560.030    559.673    559.772    559.673
 19.270    545.000    559.836    -14.836    559.365    559.736    559.365    559.464    559.365
 19.370    565.541    559.533      6.008    559.055    559.432    559.055    559.155    559.055
 19.470    589.021    559.228     29.793    558.744    559.126    558.744    558.845    558.744
 19.570    573.000    558.922     14.078    558.432    558.819    558.432    558.534    558.432
 19.670    579.000    558.615     20.385    558.119    558.512    558.119    558.222    558.119
 19.770    591.000    558.309     32.691    557.805    558.204    557.805    557.909    557.805
 19.870    541.000    558.001    -17.001    557.490    557.896    557.490    557.595    557.490
 19.970    559.000    557.693      1.307    557.174    557.587    557.174    557.280    557.174
 20.070    514.510    557.384    -42.874    556.857    557.277    556.857    556.964    556.857
 20.170    566.000    557.075      8.925    556.539    556.968    556.539    556.647    556.539
 20.270    600.000    556.766     43.234    556.220    556.657    556.220    556.329    556.220
 20.370    612.000    556.457     55.543    555.901    556.347    555.901    556.011    555.901
 20.470    563.000    556.147      6.853    555.580    556.036    555.580    555.691    555.580
 20.570    545.000    555.837    -10.837    555.259    555.725    555.259    555.371    555.259
 20.670    578.974    555.527     23.447    554.937    555.414    554.937    555.051    554.937
 20.770    560.449    555.217      5.233    554.615    555.102    554.615    554.729    554.615
 20.870    566.646    554.907     11.740    554.292    554.791    554.292    554.407    554.292
 20.970    531.000    554.597    -23.597    553.968    554.480    553.968    554.084    553.968
 21.070    563.000    554.287      8.713    553.643    554.169    553.643    553.761    553.643
 21.170    564.106    553.978     10.128    553.318    553.859    553.318    553.437    553.318
 21.270    585.908    553.669     32.239    552.992    553.549    552.992    553.112    552.992
 21.370    543.175    553.361    -10.185    552.666    553.239    552.666    552.787    552.666
 21.470    567.000    553.053     13.947    552.339    552.930    552.339    552.462    552.339
 21.570    536.875    552.757    -15.883    552.011    552.633    552.011    552.136    552.011
 21.670    591.582    552.540     39.042    551.683    552.414    551.683    551.809    551.683
 21.770    557.429    552.258      5.171    551.355    552.131    551.355    551.482    551.355
 21.870    536.000    551.959    -15.959    551.026    551.830    551.026    551.155    551.026
 21.970    527.000    551.681    -24.681    550.697    551.551    550.697    550.827    550.697
 22.070    561.609    551.414     10.195    550.367    551.282    550.367    550.499    550.367
 22.170    535.000    551.126    -16.126    550.037    550.992    550.037    550.171    550.037
 22.270    592.611    550.881     41.730    549.707    550.743    549.707    549.845    549.707
 22.370    553.000    550.611      2.389    549.376    550.471    549.376    549.517    549.376
 22.470    543.000    550.328     -7.328    549.045    550.185    549.045    549.188    549.045
 22.570    563.580    550.047     13.533    548.714    549.903    548.714    548.858    548.714
 22.670    531.000    549.772    -18.772    548.383    549.626    548.383    548.529    548.383
 22.770    513.000    549.504    -36.504    548.051    549.356    548.051    548.199    548.051
 22.870    536.711    549.244    -12.533    547.719    549.094    547.719    547.870    547.719
 22.970    506.000    548.994    -42.994    547.387    548.841    547.387    547.540    547.387
 23.070    545.000    548.755     -3.755    547.055    548.601    547.055    547.210    547.055
 23.170    594.255    548.532     45.723    546.722    548.375    546.722    546.880    546.722
 23.270    542.000    548.327     -6.327    546.390    548.167    546.390    546.550    546.390
 23.370    545.000    548.145     -3.145    546.057    547.983    546.057    546.220    546.057
 23.470    592.864    547.994     44.871    545.725    547.829    545.725    545.890    545.725
 23.570    504.000    547.883    -43.883    545.392    547.715    545.392    545.560    545.392
 23.670    521.000    547.825    -26.825    545.060    547.655    545.060    545.231    545.060
 23.770    560.000    547.841     12.159    544.727    547.668    544.727    544.901    544.727
 23.870    580.192    547.963     32.229    544.394    547.787    544.394    544.572    544.394
 23.970    572.000    548.248     23.752    544.062    548.069    544.062    544.243    544.062
 24.070    539.938    548.838     -8.900    543.729    548.657    543.729    543.914    543.729
 24.170    529.188    550.124    -20.936    543.397    549.940    543.397    543.585    543.397
 24.270    515.644    553.099    -37.455    543.065    552.913    543.065    543.257    543.065
 24.370    589.000    559.738     29.262    542.732    559.553    542.732    542.929    542.732
 24.470    606.604    572.630     33.974    542.400    572.450    542.400    542.601    542.400
 24.570    636.786    592.861     43.925    542.069    592.691    542.069    542.274    542.069
 24.670    600.932    616.410    -15.477    541.737    616.252    541.737    541.947    541.737
 24.770    655.312    631.861     23.451    541.406    631.709    541.406    541.621    541.406
 24.870    666.000    628.057     37.943    541.074    627.898    541.074    541.295    541.074
 24.970    559.669    608.011    -48.342    540.744    607.832    540.744    540.970    540.744
 25.070    567.000    584.283    -17.283    540.413    584.081    540.413    540.645    540.413
 25.170    572.000    565.833      6.167    540.083    565.612    540.083    540.321    540.083
 25.270    581.298    554.645     26.653    539.753    554.409    539.753    539.998    539.753
 25.370    585.186    548.859     36.327    539.423    548.612    539.423    539.675    539.423
 25.470    574.000    546.003     27.997    539.094    545.746    539.094    539.354    539.094
 25.570    570.000    544.448     25.552    538.765    544.182    538.765    539.033    538.765
 25.670    563.000    543.438     19.562    538.436    543.162    538.436    538.713    538.436
 25.770    513.398    542.689    -29.291    538.108    542.404    538.108    538.395    538.108
 25.870    580.000    542.100     37.900    537.780    541.804    537.780    538.077    537.780
 25.970    547.000    541.625      5.375    537.453    541.317    537.453    537.761    537.453
 26.070    559.743    541.242     18.501    537.126    540.922    537.126    537.446    537.126
 26.170    534.966    540.921     -5.955    536.800    540.588    536.800    537.133    536.800
 26.270    559.000    540.638     18.362    536.474    540.291    536.474    536.821    536.474
 26.370    574.000    540.409     33.591    536.149    540.047    536.149    536.511    536.149
 26.470    519.570    540.226    -20.656    535.824    539.847    535.824    536.203    535.824
 26.570    518.000    540.097    -22.097    535.500    539.700    535.500    535.897    535.500
 26.670    542.000    540.028      1.972    535.176    539.611    535.176    535.593    535.176
 26.770    548.000    540.038      7.962    534.853    539.599    534.853    535.292    534.853
 26.870    513.000    540.141    -27.141    534.531    539.678    534.531    534.993    534.531
 26.970    570.000    540.322     29.678    534.209    539.832    534.209    534.698    534.209
 27.070    557.000    540.626     16.374    533.888    540.106    533.888    534.407    533.888
 27.170    518.000    541.095    -23.095    533.567    540.542    533.567    534.120    533.567
 27.270    598.000    541.786     56.214    533.247    541.196    533.247    533.837    533.247
 27.370    573.000    542.789     30.211    532.928    542.156    532.928    533.560    532.928
 27.470    589.000    544.265     44.735    532.610    543.584    532.610    533.289    532.610
 27.570    580.071    546.640     33.430    532.292    545.904    532.292    533.026    532.292
 27.670    552.000    551.359      0.641    531.975    550.560    531.975    532.771    531.975
 27.770    571.000    563.210      7.790    531.659    562.335    531.659    532.526    531.659
 27.870    598.000    593.969      4.031    531.343    593.001    531.343    532.294    531.343
 27.970    660.000    661.450     -1.450    531.029    660.363    531.029    532.076    531.029
 28.070    787.000    772.958     14.042    530.715    771.725    530.715    531.877    530.715
 28.170    909.000    897.005     11.995    530.402    895.609    530.402    531.701    530.402
 28.270    880.000    958.231    -78.231    530.090    956.673    530.090    531.553    530.090
 28.370    964.000    906.796     57.204    529.778    905.074    529.778    531.442    529.778
 28.470    756.000    795.875    -39.875    529.468    793.939    529.468    531.380    529.468
 28.570    684.000    709.869    -25.869    529.158    707.630    529.158    531.386    529.158
 28.670    671.000    692.110    -21.110    528.849    689.453    528.849    531.492    528.849
 28.770    709.442    737.752    -28.310    528.542    734.518    528.542    531.757    528.542
 28.870    780.431    806.708    -26.276    528.235    802.649    528.235    532.282    528.235
 28.970    805.000    839.287    -34.287    527.929    833.989    527.929    533.229    527.929
 29.070    775.000    800.137    -25.137    527.624    792.940    527.624    534.834    527.624
 29.170    712.477    720.108     -7.631    527.320    710.070    527.320    537.370    527.320
 29.270    641.000    646.732     -5.732    527.016    632.683    527.016    541.073    527.016
 29.370    603.772    601.509      2.263    526.714    582.253    526.714    545.973    526.714
 29.470    587.162    581.833      5.329    526.413    556.635    526.413    551.610    526.413
 29.570    631.000    575.892     55.108    526.113    545.393    526.113    556.609    526.113
 29.670    627.000    573.309     53.691    525.814    540.360    525.814    558.760    525.814
 29.770    574.000    568.823      5.177    525.516    537.645    525.516    556.691    525.516
 29.870    610.000    562.109     47.891    525.219    535.877    525.219    551.448    525.219
 29.970    576.000    554.937     21.063    524.923    534.634    524.923    545.224    524.923
 30.070    536.000    548.705    -12.705    524.628    533.776    524.628    539.555    524.628
 30.170    561.255    543.985     17.270    524.334    533.279    524.334    535.038    524.334
 30.270    550.729    540.926      9.803    524.042    533.255    524.042    531.710    524.042
 30.370    510.135    539.765    -29.630    523.750    534.150    523.750    529.361    523.750
 30.470    561.000    541.387     19.613    523.460    537.124    523.460    527.716    523.460
 30.570    558.000    547.669     10.331    523.170    544.295    523.170    526.532    523.170
 30.670    569.409    560.705      8.704    522.882    557.931    522.882    525.633    522.882
 30.770    618.000    580.252     37.748    522.595    577.902    522.595    524.908    522.595
 30.870    580.564    600.487    -19.923    522.309    598.452    522.309    524.292    522.309
 30.970    591.534    609.695    -18.161    522.025    607.914    522.025    523.750    522.025
 31.070    618.000    600.121     17.879    521.741    598.557    521.741    523.260    521.741
 31.170    604.000    578.956     25.044    521.459    577.576    521.459    522.809    521.459
 31.270    576.000    557.908     18.092    521.178    556.682    521.178    522.388    521.178
 31.370    539.000    543.034     -4.034    520.898    541.933    520.898    521.991    520.898
 31.470    579.669    534.674     44.996    520.619    533.675    520.619    521.614    520.619
 31.570    529.669    530.604     -0.935    520.342    529.690    520.342    521.253    520.342
 31.670    561.000    528.655     32.345    520.066    527.814    520.066    520.905    520.066
 31.770    569.657    527.598     42.059    519.791    526.819    519.791    520.568    519.791
 31.870    555.299    526.921     28.378    519.518    526.196    519.518    520.240    519.518
 31.970    543.000    526.450     16.550    519.245    525.773    519.245    519.921    519.245
 32.070    494.748    526.122    -31.374    518.974    525.486    518.974    519.609    518.974
 32.170    491.509    525.911    -34.402    518.705    525.312    518.705    519.303    518.705
 32.270    539.629    525.812     13.817    518.436    525.246    518.436    519.002    518.436
 32.370    542.185    525.826     16.359    518.169    525.288    518.169    518.706    518.169
 32.470    569.000    525.960     43.040    517.903    525.448    517.903    518.415    517.903
 32.570    546.351    526.232     20.118    517.639    525.743    517.639    518.127    517.639
 32.670    523.000    526.669     -3.669    517.376    526.200    517.376    517.844    517.376
 32.770    545.000    527.309     17.691    517.114    526.858    517.114    517.564    517.114
 32.870    520.000    528.209     -8.209    516.854    527.776    516.854    517.287    516.854
 32.970    553.000    529.455     23.545    516.595    529.036    516.595    517.012    516.595
 33.070    522.000    531.179     -9.179    516.338    530.773    516.338    516.741    516.338
 33.170    493.844    533.620    -39.776    516.081    533.227    516.081    516.473    516.081
 33.270    515.720    537.336    -21.616    515.827    536.954    515.827    516.206    515.827
 33.370    566.000    543.826     22.174    515.573    543.453    515.573    515.943    515.573
 33.470    607.535    556.957     50.579    515.321    556.591    515.321    515.681    515.321
 33.570    609.000    584.942     24.058    515.071    584.579    515.071    515.422    515.071
 33.670    624.000    640.510    -16.510    514.822    640.145    514.822    515.165    514.822
 33.770    777.000    734.889     42.111    514.574    734.516    514.574    514.910    514.574
 33.870    834.000    863.984    -29.984    514.328    863.600    514.328    514.658    514.328
 33.970    933.782    992.903    -59.122    514.083    992.516    514.083    514.407    514.083
 34.070   1024.000   1055.956    -31.956    513.840   1055.582    513.840    514.158    513.840
 34.170    972.000   1008.592    -36.592    513.598   1008.250    513.598    513.911    513.598
 34.270    860.265    885.714    -25.449    513.358    885.400    513.358    513.666    513.358
 34.370    719.456    753.410    -33.954    513.119    753.113    513.119    513.423    513.119
 34.470    627.000    652.052    -25.052    512.881    651.760    512.881    513.182    512.881
 34.570    583.000    589.986     -6.986    512.645    589.694    512.645    512.942    512.645
 34.670    574.407    557.607     16.800    512.411    557.316    512.411    512.705    512.411
 34.770    538.537    541.975     -3.438    512.178    541.685    512.178    512.469    512.178
 34.870    536.000    534.087      1.913    511.947    533.799    511.947    512.235    511.947
 34.970    502.041    529.463    -27.423    511.717    529.177    511.717    512.003    511.717
 35.070    475.000    526.299    -51.299    511.489    526.015    511.489    511.772    511.489
 35.170    475.086    523.919    -48.833    511.262    523.637    511.262    511.543    511.262
 35.270    494.000    522.043    -28.043    511.037    521.763    511.037    511.316    511.037
 35.370    521.756    520.524      1.232    510.813    520.245    510.813    511.091    510.813
 35.470    535.000    519.266     15.734    510.591    518.989    510.591    510.867    510.591
 35.570    473.000    518.208    -45.208    510.370    517.932    510.370    510.646    510.370
 35.670    480.030    517.303    -37.273    510.151    517.028    510.151    510.426    510.151
 35.770    528.000    516.519     11.481    509.933    516.245    509.933    510.207    509.933
 35.870    539.379    515.831     23.548    509.718    515.558    509.718    509.991    509.718
 35.970    508.000    515.223     -7.223    509.503    514.950    509.503    509.776    509.503
 36.070    552.738    514.680     38.058    509.290    514.408    509.290    509.562    509.290
 36.170    547.000    514.192     32.808    509.079    513.920    509.079    509.351    509.079
 36.270    479.000    513.752    -34.752    508.870    513.480    508.870    509.141    508.870
 36.370    477.620    513.355    -35.734    508.662    513.083    508.662    508.933    508.662
 36.470    514.698    512.997      1.701    508.455    512.725    508.455    508.727    508.455
 36.570    518.022    512.677      5.345    508.250    512.405    508.250    508.522    508.250
 36.670    482.000    512.396    -30.396    508.047    512.124    508.047    508.319    508.047
 36.770    537.922    512.162     25.760    507.845    511.890    507.845    508.118    507.845
 36.870    532.000    511.995     20.005    507.645    511.722    507.645    507.918    507.645
 36.970    512.000    511.950      0.050    507.447    511.677    507.447    507.720    507.447
 37.070    499.000    512.151    -13.151    507.250    511.877    507.250    507.524    507.250
 37.170    528.254    512.827     15.427    507.055    512.553    507.055    507.330    507.055
 37.270    521.765    514.289      7.475    506.862    514.014    506.862    507.137    506.862
 37.370    547.000    516.777     30.223    506.670    516.501    506.670    506.946    506.670
 37.470    544.237    520.175     24.062    506.479    519.899    506.479    506.757    506.479
 37.570    515.000    523.708     -8.708    506.291    523.432    506.291    506.570    506.291
 37.670    508.289    525.917    -17.628    506.104    525.642    506.104    506.384    506.104
 37.770    542.000    525.592     16.408    505.918    525.317    505.918    506.200    505.918
 37.870    483.948    523.036    -39.088    505.735    522.762    505.735    506.017    505.735
 37.970    508.520    519.567    -11.047    505.553    519.293    505.553    505.837    505.553
 38.070    496.000    516.225    -20.225    505.372    515.950    505.372    505.658    505.372
 38.170    507.917    513.450     -5.533    505.193    513.172    505.193    505.481    505.193
 38.270    506.000    511.367     -5.367    505.016    511.085    505.016    505.306    505.016
 38.370    513.000    509.922      3.078    504.841    509.636    504.841    505.132    504.841
 38.470    562.000    508.963     53.037    504.667    508.673    504.667    504.960    504.667
 38.570    507.000    508.329     -1.329    504.495    508.035    504.495    504.790    504.495
 38.670    508.000    507.894      0.106    504.324    507.598    504.324    504.621    504.324
 38.770    540.595    507.570     33.024    504.156    507.272    504.156    504.455    504.156
 38.870    491.000    507.308    -16.308    503.989    507.007    503.989    504.290    503.989
 38.970    464.000    507.079    -43.079    503.823    506.776    503.823    504.127    503.823
 39.070    494.000    506.873    -12.873    503.659    506.567    503.659    503.965    503.659
 39.170    516.000    506.682      9.318    503.497    506.374    503.497    503.806    503.497
 39.270    487.261    506.505    -19.244    503.337    506.194    503.337    503.648    503.337
 39.370    467.000    506.338    -39.338    503.178    506.025    503.178    503.492    503.178
 39.470    534.000    506.182     27.818    503.021    505.865    503.021    503.337    503.021
 39.570    491.000    506.034    -15.034    502.865    505.715    502.865    503.185    502.865
 39.670    476.032    505.895    -29.863    502.712    505.573    502.712    503.034    502.712
 39.770    527.740    505.765     21.975    502.559    505.439    502.559    502.885    502.559
 39.870    490.414    505.642    -15.227    502.409    505.313    502.409    502.738    502.409
 39.970    507.263    505.528      1.735    502.260    505.196    502.260    502.592    502.260
 40.070    450.000    505.422    -55.422    502.113    505.087    502.113    502.449    502.113
 40.170    485.000    505.325    -20.325    501.968    504.986    501.968    502.307    501.968
 40.270    502.000    505.238     -3.238    501.824    504.895    501.824    502.167    501.824
 40.370    524.000    505.161     18.839    501.682    504.815    501.682    502.029    501.682
 40.470    486.701    505.095    -18.395    501.542    504.745    501.542    501.892    501.542
 40.570    516.980    505.043     11.937    501.403    504.689    501.403    501.757    501.403
 40.670    496.000    505.004     -9.004    501.266    504.647    501.266    501.625    501.266
 40.770    505.000    504.983      0.017    501.131    504.621    501.131    501.494    501.131
 40.870    515.609    504.981     10.628    500.997    504.615    500.997    501.364    500.997
 40.970    478.221    505.002    -26.781    500.865    504.631    500.865    501.237    500.865
 41.070    492.000    505.051    -13.051    500.735    504.676    500.735    501.111    500.735
 41.170    537.000    505.135     31.865    500.607    504.755    500.607    500.988    500.607
 41.270    540.617    505.261     35.356    500.480    504.876    500.480    500.866    500.480
 41.370    490.000    505.441    -15.441    500.354    505.051    500.354    500.746    500.354
 41.470    495.000    505.692    -10.692    500.231    505.297    500.231    500.627    500.231
 41.570    477.368    506.040    -28.672    500.109    505.639    500.109    500.511    500.109
 41.670    462.906    506.532    -43.626    499.989    506.126    499.989    500.397    499.989
 41.770    468.404    507.274    -38.870    499.870    506.863    499.870    500.284    499.870
 41.870    520.283    508.518     11.765    499.753    508.101    499.753    500.173    499.753
 41.970    552.637    510.830     41.807    499.638    510.408    499.638    500.064    499.638
 42.070    505.837    515.305     -9.468    499.525    514.878    499.525    499.957    499.525
 42.170    567.220    523.645     43.576    499.413    523.215    499.413    499.852    499.413
 42.270    557.000    537.738     19.262    499.303    537.308    499.303    499.749    499.303
 42.370    548.000    558.490    -10.490    499.194    558.062    499.194    499.648    499.194
 42.470    569.000    584.128    -15.128    499.087    583.706    499.087    499.549    499.087
 42.570    582.706    608.734    -26.028    498.982    608.318    498.982    499.451    498.982
 42.670    633.604    622.767     10.836    498.879    622.353    498.879    499.356    498.879
 42.770    629.091    618.972     10.119    498.777    618.551    498.777    499.262    498.777
 42.870    553.000    599.555    -46.555    498.677    599.117    498.677    499.171    498.677
 42.970    611.207    573.579     37.628    498.578    573.118    498.578    499.081    498.578
 43.070    592.274    549.363     42.911    498.481    548.879    498.481    498.994    498.481
 43.170    507.000    531.091    -24.091    498.386    530.587    498.386    498.908    498.386
 43.270    515.000    519.302     -4.302    498.292    518.780    498.292    498.825    498.292
 43.370    520.000    512.547      7.453    498.201    512.011    498.201    498.744    498.201
 43.470    492.000    508.939    -16.939    498.110    508.389    498.110    498.665    498.110
 43.570    502.000    507.007     -5.007    498.022    506.443    498.022    498.588    498.022
 43.670    488.000    505.883    -17.883    497.935    505.307    497.935    498.513    497.935
 43.770    500.026    505.146     -5.120    497.849    504.557    497.849    498.440    497.849
 43.870    482.000    504.613    -22.613    497.765    504.010    497.765    498.369    497.765
 43.970    478.479    504.204    -25.725    497.683    503.588    497.683    498.301    497.683
 44.070    501.619    503.884     -2.265    497.603    503.252    497.603    498.235    497.603
 44.170    494.000    503.629     -9.629    497.524    502.983    497.524    498.171    497.524
 44.270    479.000    503.427    -24.427    497.447    502.764    497.447    498.110    497.447
 44.370    472.000    503.267    -31.267    497.371    502.587    497.371    498.051    497.371
 44.470    537.897    503.142     34.756    497.297    502.445    497.297    497.995    497.297
 44.570    489.000    503.047    -14.047    497.225    502.331    497.225    497.941    497.225
 44.670    498.000    502.977     -4.977    497.154    502.242    497.154    497.890    497.154
 44.770    447.000    502.931    -55.931    497.085    502.174    497.085    497.841    497.085
 44.870    505.868    502.905      2.963    497.017    502.127    497.017    497.795    497.017
 44.970    518.000    502.899     15.101    496.951    502.098    496.951    497.753    496.951
 45.070    498.662    502.911     -4.249    496.887    502.085    496.887    497.713    496.887
 45.170    542.407    502.941     39.466    496.824    502.089    496.824    497.676    496.824
 45.270    508.000    502.988      5.012    496.762    502.109    496.762    497.642    496.762
 45.370    508.000    503.053      4.947    496.703    502.144    496.703    497.612    496.703
 45.470    521.054    503.136     17.918    496.645    502.196    496.645    497.585    496.645
 45.570    526.000    503.238     22.762    496.588    502.264    496.588    497.562    496.588
 45.670    543.443    503.360     40.083    496.533    502.350    496.533    497.543    496.533
 45.770    478.863    503.503    -24.640    496.480    502.454    496.480    497.528    496.480
 45.870    514.209    503.669     10.540    496.428    502.579    496.428    497.517    496.428
 45.970    498.000    503.860     -5.860    496.378    502.726    496.378    497.511    496.378
 46.070    499.000    504.080     -5.080    496.329    502.898    496.329    497.510    496.329
 46.170    527.000    504.332     22.668    496.282    503.098    496.282    497.515    496.282
 46.270    533.000    504.621     28.379    496.236    503.331    496.236    497.525    496.236
 46.370    470.000    504.953    -34.953    496.192    503.602    496.192    497.542    496.192
 46.470    518.000    505.336     12.664    496.150    503.918    496.150    497.566    496.150
 46.570    491.000    505.780    -14.780    496.109    504.290    496.109    497.598    496.109
 46.670    501.000    506.304     -5.304    496.069    504.734    496.069    497.638    496.069
 46.770    543.000    506.935     36.065    496.031    505.277    496.031    497.687    496.031
 46.870    528.000    507.732     20.268    495.995    505.978    495.995    497.747    495.995
 46.970    553.000    508.827     44.173    495.960    506.966    495.960    497.819    495.960
 47.070    539.229    510.494     28.734    495.926    508.513    495.926    497.904    495.926
 47.170    533.041    513.247     19.794    495.894    511.131    495.894    498.005    495.894
 47.270    537.000    517.894     19.106    495.864    515.625    495.864    498.123    495.864
 47.370    498.005    525.417    -27.412    495.835    522.975    495.835    498.262    495.835
 47.470    510.000    536.570    -26.570    495.807    533.930    495.807    498.424    495.807
 47.570    580.532    551.204     29.328    495.781    548.337    495.781    498.615    495.781
 47.670    602.000    567.560     34.440    495.756    564.433    495.756    498.839    495.756
 47.770    543.000    581.860    -38.860    495.733    578.437    495.733    499.102    495.733
 47.870    640.000    589.093     50.907    495.712    585.334    495.712    499.414    495.712
 47.970    591.584    586.306      5.278    495.691    582.160    495.691    499.785    495.691
 48.070    584.000    575.510      8.490    495.673    570.908    495.673    500.232    495.673
 48.170    531.150    561.615    -30.464    495.655    556.462    495.655    500.777    495.655
 48.270    524.203    548.867    -24.664    495.640    543.028    495.640    501.457    495.640
 48.370    525.209    539.607    -14.399    495.625    532.882    495.625    502.336    495.625
 48.470    496.024    534.478    -38.455    495.612    526.561    495.612    503.520    495.612
 48.570    558.000    533.124     24.876    495.600    523.532    495.600    505.186    495.600
 48.670    504.000    534.923    -30.923    495.590    522.898    495.590    507.611    495.590
 48.770    533.000    539.501     -6.501    495.581    523.885    495.581    511.193    495.581
 48.870    523.000    546.900    -23.900    495.574    526.030    495.574    516.439    495.574
 48.970    602.384    557.516     44.867    495.568    529.190    495.568    523.889    495.568
 49.070    587.214    571.943     15.272    495.563    533.530    495.563    533.969    495.563
 49.170    544.494    590.914    -46.420    495.560    539.702    495.560    546.763    495.560
 49.270    664.205    615.651     48.554    495.558    549.490    495.558    561.708    495.558
 49.370    676.000    649.028     26.972    495.558    567.363    495.558    577.205    495.558
 49.470    708.973    698.014     10.959    495.559    603.234    495.559    590.311    495.559
 49.570    777.899    777.347      0.551    495.561    675.608    495.561    597.252    495.561
 49.670    925.000    912.040     12.960    495.564    812.027    495.564    595.497    495.564
 49.770   1127.000   1131.974     -4.974    495.569   1041.652    495.569    585.770    495.569
 49.870   1412.153   1452.935    -40.782    495.575   1376.968    495.575    571.383    495.575
 49.970   1778.989   1850.195    -71.206    495.583   1789.712    495.583    555.895    495.583
 50.070   2283.000   2241.608     41.392    495.592   2195.362    495.592    541.705    495.592
 50.170   2503.000   2500.222      2.778    495.602   2465.817    495.602    529.969    495.602
 50.270   2521.000   2515.385      5.615    495.613   2490.119    495.613    520.965    495.613
 50.370   2281.000   2276.030      4.970    495.626   2257.383    495.626    514.448    495.626
 50.470   1846.000   1881.755    -35.755    495.640   1867.672    495.640    509.929    495.640
 50.570   1495.509   1464.411     31.098    495.656   1453.383    495.656    506.869    495.656
 50.670   1175.497   1118.013     57.485    495.672   1109.026    495.672    504.800    495.672
 50.770    809.000    879.208    -70.208    495.690    871.623    495.690    503.372    495.690
 50.870    689.174    739.352    -50.178    495.709    732.777    495.709    502.349    495.709
 50.970    664.000    668.174     -4.174    495.729    662.367    495.729    501.585    495.729
 51.070    649.000    634.037     14.963    495.751    628.836    495.751    500.991    495.751
 51.170    626.000    614.432     11.568    495.774    609.722    495.774    500.518    495.774
 51.270    621.000    598.175     22.825    495.798    593.868    495.798    500.134    495.798
 51.370    629.744    582.401     47.343    495.823    578.429    495.823    499.818    495.823
 51.470    587.000    567.858     19.142    495.850    564.167    495.850    499.558    495.850
 51.570    572.000    555.769     16.231    495.878    552.316    495.878    499.343    495.878
 51.670    502.773    546.731    -43.958    495.907    543.481    495.907    499.165    495.907
 51.770    546.000    540.639      5.361    495.937    537.562    495.937    499.019    495.937
 51.870    602.000    536.958     65.042    495.968    534.030    495.968    498.900    495.968
 51.970    555.000    535.056     19.944    496.000    532.256    496.000    498.804    496.000
 52.070    571.921    534.428     37.493    496.034    531.737    496.034    498.727    496.034
 52.170    497.021    534.793    -37.772    496.069    532.196    496.069    498.669    496.069
 52.270    557.000    536.110     20.890    496.105    533.592    496.105    498.625    496.105
 52.370    544.000    538.620      5.380    496.142    536.168    496.142    498.595    496.142
 52.470    564.000    543.011     20.989    496.180    540.614    496.180    498.578    496.180
 52.570    580.000    550.763     29.237    496.219    548.412    496.219    498.571    496.219
 52.670    605.055    564.646     40.409    496.260    562.331    496.260    498.574    496.260
 52.770    616.000    589.142     26.858    496.302    586.855    496.302    498.587    496.302
 52.870    681.000    630.291     50.709    496.344    628.023    496.344    498.609    496.344
 52.970    657.000    694.336    -37.336    496.388    692.081    496.388    498.638    496.388
 53.070    800.000    784.868     15.132    496.433    782.620    496.433    498.675    496.433
 53.170    932.000    898.965     33.035    496.479    896.718    496.479    498.719    496.479
 53.270    993.000   1023.568    -30.568    496.526   1021.321    496.526    498.771    496.526
 53.370   1104.000   1133.804    -29.804    496.574   1131.554    496.574    498.829    496.574
 53.470   1109.000   1197.390    -88.390    496.623   1195.137    496.623    498.893    496.623
 53.570   1151.000   1190.726    -39.726    496.673   1188.463    496.673    498.965    496.673
 53.670   1033.000   1116.778    -83.778    496.724   1114.496    496.724    499.042    496.724
 53.770    961.482   1002.338    -40.855    496.776   1000.024    496.776    499.126    496.776
 53.870    881.552    878.930      2.622    496.830    876.575    496.830    499.217    496.830
 53.970    805.048    769.250     35.798    496.884    766.845    496.884    499.314    496.884
 54.070    659.000    684.283    -25.283    496.939    681.822    496.939    499.418    496.939
 54.170    642.000    625.469     16.531    496.995    622.948    496.995    499.528    496.995
 54.270    558.000    588.480    -30.480    497.052    585.894    497.052    499.646    497.052
 54.370    595.000    566.965     28.035    497.111    564.308    497.111    499.772    497.111
 54.470    561.000    555.127      5.873    497.170    552.395    497.170    499.905    497.170
 54.570    586.000    548.819     37.181    497.230    546.005    497.230    500.046    497.230
 54.670    497.643    545.540    -47.897    497.291    542.636    497.291    500.196    497.291
 54.770    582.437    543.970     38.467    497.353    540.969    497.353    500.355    497.353
 54.870    562.000    543.486     18.514    497.416    540.378    497.416    500.524    497.416
 54.970    547.000    543.818      3.182    497.479    540.595    497.479    500.704    497.479
 55.070    577.000    544.866     32.134    497.544    541.515    497.544    500.895    497.544
 55.170    547.946    546.612      1.334    497.610    543.124    497.610    501.098    497.610
 55.270    544.000    549.098     -5.098    497.676    545.459    497.676    501.315    497.676
 55.370    560.000    552.415      7.585    497.743    548.612    497.743    501.547    497.743
 55.470    566.000    556.736      9.264    497.812    552.754    497.812    501.795    497.812
 55.570    508.000    562.393    -54.393    497.881    558.214    497.881    502.060    497.881
 55.670    616.000    570.070     45.930    497.951    565.676    497.951    502.345    497.951
 55.770    563.000    581.242    -18.242    498.021    576.611    498.021    502.652    498.021
 55.870    615.000    599.005     15.995    498.093    594.112    498.093    502.984    498.093
 55.970    648.000    629.370     18.630    498.165    624.187    498.165    503.343    498.165
 56.070    662.005    682.747    -20.742    498.239    677.242    498.239    503.733    498.239
 56.170    736.000    774.662    -38.662    498.313    768.795    498.313    504.158    498.313
 56.270    923.000    924.063     -1.063    498.388    917.793    498.388    504.622    498.388
 56.370   1143.664   1147.696     -4.032    498.463   1140.976    498.463    505.132    498.463
 56.470   1390.000   1450.517    -60.517    498.540   1443.301    498.540    505.695    498.540
 56.570   1721.000   1814.796    -93.796    498.617   1807.039    498.617    506.317    498.617
 56.670   2251.228   2192.142     59.086    498.695   2183.796    498.695    507.010    498.695
 56.770   2468.000   2503.563    -35.563    498.773   2494.577    498.773    507.785    498.773
 56.870   2603.000   2658.495    -55.495    498.853   2648.798    498.853    508.657    498.853
 56.970   2603.000   2602.489      0.511    498.933   2591.970    498.933    509.644    498.933
 57.070   2410.017   2357.791     52.227    499.014   2346.281    499.014    510.769    499.014
 57.170   2079.281   2004.596     74.685    499.095   1991.883    499.095    512.062    499.095
 57.270   1657.988   1630.567     27.421    499.178   1616.404    499.178    513.568    499.178
 57.370   1272.000   1299.173    -27.173    499.261   1283.265    499.261    515.350    499.261
 57.470   1059.000   1042.156     16.844    499.344   1024.120    499.344    517.510    499.344
 57.570    881.000    864.373     16.627    499.428    843.673    499.428    520.213    499.428
 57.670    711.000    753.992    -42.992    499.513    729.824    499.513    523.731    499.513
 57.770    745.785    693.322     52.464    499.599    664.448    499.599    528.499    499.599
 57.870    661.000    666.682     -5.682    499.685    631.201    499.685    535.178    499.685
 57.970    668.517    664.090      4.427    499.772    619.160    499.772    544.702    499.772
 58.070    670.000    681.588    -11.588    499.859    623.159    499.859    558.278    499.859
 58.170    737.000    719.681     17.319    499.948    642.321    499.948    577.287    499.948
 58.270    818.000    780.977     37.023    500.036    677.926    500.036    603.054    500.036
 58.370    882.000    867.637     14.363    500.126    731.223    500.126    636.494    500.126
 58.470    946.763    978.977    -32.213    500.215    801.496    500.215    677.641    500.215
 58.570   1122.416   1109.511     12.905    500.306    884.657    500.306    725.100    500.306
 58.670   1298.000   1247.959     50.041    500.397    972.890    500.397    775.407    500.397
 58.770   1331.583   1378.411    -46.829    500.488   1056.493    500.488    822.358    500.488
 58.870   1507.034   1483.430     23.605    500.580   1126.907    500.580    857.071    500.580
 58.970   1564.000   1547.175     16.825    500.673   1177.348    500.673    870.488    500.673
 59.070   1561.000   1558.683      2.317    500.766   1200.997    500.766    858.462    500.766
 59.170   1558.132   1517.175     40.957    500.860   1193.253    500.860    824.809    500.860
 59.270   1524.000   1435.248     88.752    500.954   1157.772    500.954    778.461    500.954
 59.370   1330.000   1334.575     -4.575    501.048   1107.274    501.048    728.370    501.048
 59.470   1294.000   1237.432     56.568    501.143   1057.693    501.143    680.879    501.143
 59.570   1172.000   1162.297      9.703    501.239   1023.921    501.239    639.576    501.239
 59.670   1163.000   1124.268     38.732    501.335   1019.576    501.335    605.944    501.335
 59.770   1099.000   1134.314    -35.314    501.431   1055.602    501.431    580.009    501.431
 59.870   1175.000   1194.912    -19.912    501.528   1135.359    501.528    560.891    501.528
 59.970   1316.418   1295.704     20.714    501.625   1249.811    501.625    547.276    501.625
 60.070   1413.000   1412.247      0.753    501.723   1375.908    501.723    537.781    501.723
 60.170   1505.081   1508.674     -3.593    501.821   1479.012    501.821    531.189    501.821
 60.270   1586.000   1547.047     38.953    501.920   1522.143    501.920    526.553    501.920
 60.370   1545.384   1505.311     40.073    502.019   1483.911    502.019    523.201    502.019
 60.470   1420.000   1390.794     29.206    502.118   1372.068    502.118    520.691    502.118
 60.570   1299.000   1233.020     65.980    502.217   1216.395    502.217    518.750    502.217
 60.670   1120.000   1065.806     54.194    502.317   1050.862    502.317    517.213    502.317
 60.770    939.385    915.276     24.109    502.418    901.687    502.418    515.986    502.418
 60.870    805.000    795.981      9.019    502.518    783.475    502.518    515.016    502.518
 60.970    753.722    711.855     41.867    502.619    700.195    502.619    514.274    502.619
 61.070    632.805    659.830    -27.026    502.721    648.800    502.721    513.744    502.721
 61.170    653.214    634.311     18.902    502.822    623.706    502.822    513.415    502.822
 61.270    683.042    630.887     52.155    502.924    620.514    502.924    513.277    502.924
 61.370    681.790    648.365     33.425    503.026    638.049    503.026    513.310    503.026
 61.470    682.000    688.922     -6.922    503.129    678.518    503.129    513.483    503.129
 61.570    751.579    756.546     -4.967    503.231    745.962    503.231    513.743    503.231
 61.670    869.857    854.128     15.729    503.334    843.352    503.334    514.007    503.334
 61.770    960.278    979.886    -19.608    503.437    969.020    503.437    514.169    503.437
 61.870   1109.755   1124.199    -14.444    503.541   1113.456    503.541    514.121    503.541
 61.970   1292.000   1267.972     24.028    503.644   1257.633    503.644    513.803    503.644
 62.070   1343.000   1383.780    -40.780    503.748   1374.110    503.748    513.240    503.748
 62.170   1405.647   1442.350    -36.703    503.852   1433.528    503.852    512.520    503.852
 62.270   1346.843   1425.874    -79.031    503.956   1417.973    503.956    511.745    503.956
 62.370   1299.000   1339.238    -40.238    504.061   1332.237    504.061    510.995    504.061
 62.470   1251.677   1206.502     45.176    504.165   1200.317    504.165    510.321    504.165
 62.570   1040.000   1057.262    -17.262    504.270   1051.780    504.270    509.748    504.270
 62.670    878.000    915.953    -37.953    504.375    911.053    504.375    509.285    504.375
 62.770    839.640    797.716     41.925    504.480    793.286    504.480    508.924    504.480
 62.870    681.000    708.399    -27.399    504.585    704.343    504.585    508.653    504.585
 62.970    630.746    646.742    -15.996    504.690    642.984    504.690    508.456    504.690
 63.070    612.955    607.485      5.470    504.795    603.968    504.795    508.316    504.795
 63.170    593.000    584.276      8.724    504.901    580.955    504.901    508.221    504.901
 63.270    517.000    571.591    -54.591    505.006    568.437    505.006    508.157    505.006
 63.370    620.000    565.594     54.406    505.112    562.584    505.112    508.117    505.112
 63.470    576.000    564.231     11.769    505.217    561.346    505.217    508.095    505.217
 63.570    601.000    566.994     34.006    505.323    564.221    505.323    508.087    505.323
 63.670    576.000    574.643      1.357    505.429    571.968    505.429    508.090    505.429
 63.770    582.000    588.921     -6.921    505.534    586.332    505.534    508.102    505.534
 63.870    651.000    612.182     38.818    505.640    609.669    505.640    508.122    505.640
 63.970    697.000    646.795     50.205    505.746    644.347    505.746    508.150    505.746
 64.070    671.000    694.255    -23.255    505.852    691.862    505.852    508.183    505.852
 64.170    811.827    754.122     57.705    505.957    751.774    505.957    508.223    505.957
 64.270    773.000    823.014    -50.014    506.063    820.708    506.063    508.267    506.063
 64.370    892.000    893.955     -1.955    506.169    891.688    506.169    508.316    506.169
 64.470    976.065    956.569     19.496    506.274    954.345    506.274    508.369    506.274
 64.570   1018.000    999.255     18.745    506.380    997.081    506.380    508.427    506.380
 64.670   1024.000   1013.691     10.309    506.486   1011.575    506.486    508.488    506.486
 64.770   1008.000    998.547      9.453    506.591    996.496    506.591    508.552    506.591
 64.870    910.381    959.062    -48.680    506.696    957.076    506.696    508.619    506.696
 64.970    918.720    904.203     14.517    506.802    902.279    506.802    508.690    506.802
 65.070    811.000    843.733    -32.733    506.907    841.865    506.907    508.763    506.907
 65.170    787.435    785.579      1.856    507.012    783.758    507.012    508.838    507.012
 65.270    757.000    734.346     22.654    507.117    732.563    507.117    508.917    507.117
 65.370    713.000    691.529     21.471    507.221    689.777    507.221    508.997    507.221
 65.470    655.000    656.813     -1.813    507.326    655.084    507.326    509.080    507.326
 65.570    579.977    629.288    -49.311    507.431    627.575    507.431    509.164    507.431
 65.670    572.000    607.959    -35.959    507.535    606.260    507.535    509.251    507.535
 65.770    587.000    591.836     -4.836    507.639    590.147    507.639    509.340    507.639
 65.870    578.869    580.001     -1.132    507.743    578.321    507.743    509.430    507.743
 65.970    565.000    571.672     -6.672    507.847    570.000    507.847    509.522    507.847
 66.070    543.000    566.203    -23.203    507.950    564.538    507.950    509.616    507.950
 66.170    549.218    563.064    -13.846    508.053    561.406    508.053    509.712    508.053
 66.270    536.285    561.830    -25.545    508.156    560.176    508.156    509.809    508.156
 66.370    562.000    562.185     -0.185    508.259    560.535    508.259    509.908    508.259
 66.470    563.000    563.962     -0.962    508.362    562.315    508.362    510.009    508.362
 66.570    568.000    567.206      0.794    508.464    565.561    508.464    510.110    508.464
 66.670    581.000    572.296      8.704    508.566    570.650    508.566    510.213    508.566
 66.770    581.000    580.145      0.855    508.668    578.495    508.668    510.319    508.668
 66.870    588.000    592.539     -4.539    508.769    590.883    508.769    510.426    508.769
 66.970    597.000    612.602    -15.602    508.871    610.937    508.871    510.535    508.871
 67.070    677.000    645.288     31.712    508.971    643.609    508.971    510.646    508.971
 67.170    647.832    697.664    -49.832    509.072    695.970    509.072    510.758    509.072
 67.270    724.000    778.624    -54.624    509.172    776.911    509.172    510.872    509.172
 67.370    911.000    897.606     13.394    509.272    895.873    509.272    510.988    509.272
 67.470    994.000   1062.109    -68.109    509.372   1060.356    509.372    511.106    509.372
 67.570   1361.000   1274.239     86.761    509.471   1272.470    509.471    511.227    509.471
 67.670   1521.000   1527.053     -6.053    509.570   1525.277    509.570    511.349    509.570
 67.770   1871.019   1801.767     69.252    509.668   1799.996    509.668    511.474    509.668
 67.870   2021.000   2066.827    -45.827    509.766   2065.074    509.766    511.601    509.766
 67.970   2289.000   2280.305      8.695    509.864   2278.583    509.864    511.730    509.864
 68.070   2422.000   2398.684     23.316    509.961   2396.998    509.961    511.863    509.961
 68.170   2306.884   2393.397    -86.513    510.058   2391.734    510.058    511.998    510.058
 68.270   2163.000   2265.900   -102.900    510.154   2264.234    510.154    512.137    510.154
 68.370   2105.000   2046.766     58.234    510.250   2045.060    510.250    512.279    510.250
 68.470   1879.000   1779.857     99.143    510.345   1778.078    510.345    512.425    510.345
 68.570   1511.000   1506.404      4.596    510.440   1504.529    510.440    512.574    510.440
 68.670   1305.000   1256.905     48.095    510.535   1254.921    510.535    512.729    510.535
 68.770   1021.000   1049.079    -28.079    510.629   1046.979    510.629    512.888    510.629
 68.870    887.000    888.981     -1.981    510.722    886.765    510.722    513.052    510.722
 68.970    772.000    773.910     -1.910    510.815    771.581    510.815    513.222    510.815
 69.070    724.000    696.090     27.910    510.908    693.650    510.908    513.399    510.908
 69.170    646.000    646.054     -0.054    511.000    643.505    511.000    513.583    511.000
 69.270    625.730    615.031     10.698    511.092    612.370    511.092    513.774    511.092
 69.370    583.000    596.120    -13.120    511.182    593.342    511.182    513.975    511.182
 69.470    592.000    584.518      7.482    511.273    581.615    511.273    514.185    511.273
 69.570    630.000    577.195     52.805    511.363    574.159    511.363    514.406    511.363
 69.670    562.000    572.395    -10.395    511.452    569.213    511.452    514.639    511.452
 69.770    542.000    569.160    -27.160    511.541    565.818    511.541    514.886    511.541
 69.870    600.000    566.997     33.003    511.629    563.480    511.629    515.149    511.629
 69.970    584.000    565.661     18.339    511.717    561.950    511.717    515.429    511.717
 70.070    575.000    565.036      9.964    511.803    561.111    511.803    515.729    511.803
 70.170    546.000    565.089    -19.089    511.890    560.926    511.890    516.052    511.890
 70.270    543.000    565.850    -22.850    511.976    561.422    511.976    516.402    511.976
 70.370    565.000    567.437     -2.437    512.061    562.714    512.061    516.782    512.061
 70.470    578.258    570.108      8.150    512.145    565.053    512.145    517.196    512.145
 70.570    557.000    574.365    -17.365    512.229    568.937    512.229    517.652    512.229
 70.670    581.000    581.117     -0.117    512.312    575.264    512.312    518.156    512.312
 70.770    588.000    591.902     -3.902    512.394    585.565    512.394    518.719    512.394
 70.870    603.000    609.144     -6.144    512.476    602.248    512.476    519.354    512.476
 70.970    589.000    636.361    -47.361    512.557    628.810    512.557    520.080    512.557
 71.070    627.926    678.175    -50.249    512.638    669.842    512.638    520.929    512.638
 71.170    736.000    739.965     -3.965    512.717    730.672    512.717    521.949    512.717
 71.270    838.142    826.987     11.155    512.796    816.478    512.796    523.220    512.796
 71.370    880.000    942.954    -62.954    512.875    930.850    512.875    524.865    512.875
 71.470   1040.000   1088.274    -48.274    512.952   1074.005    512.952    527.076    512.952
 71.570   1274.000   1258.295     15.705    513.029   1241.013    513.029    530.135    513.029
 71.670   1410.000   1442.070    -32.070    513.105   1420.542    513.105    534.433    513.105
 71.770   1631.000   1622.028      8.972    513.180   1594.516    513.180    540.480    513.180
 71.870   1799.000   1775.122     23.878    513.255   1739.289    513.255    548.878    513.255
 71.970   1890.000   1876.772     13.228    513.329   1829.642    513.329    560.270    513.329
 72.070   1946.000   1908.612     37.388    513.402   1846.625    513.402    575.234    513.402
 72.170   1850.000   1867.020    -17.020    513.474   1786.241    513.474    594.138    513.474
 72.270   1835.000   1765.202     69.798    513.545   1661.698    513.545    616.970    513.545
 72.370   1667.016   1626.363     40.654    513.616   1496.762    513.616    643.167    513.616
 72.470   1540.907   1474.384     66.522    513.686   1316.584    513.686    671.456    513.686
 72.570   1419.000   1327.929     91.071    513.754   1141.937    513.754    699.729    513.754
 72.670   1172.000   1198.261    -26.261    513.823    987.066    513.823    725.005    513.823
 72.770   1010.000   1089.337    -79.337    513.890    859.526    513.890    743.691    513.890
 72.870   1064.086    999.585     64.501    513.956    761.104    513.956    752.427    513.956
 72.970    876.000    924.839    -48.839    514.022    689.431    514.022    749.419    514.022
 73.070    858.078    861.079     -3.001    514.086    639.814    514.086    735.341    514.086
 73.170    744.000    805.687    -61.687    514.150    606.866    514.150    712.962    514.150
 73.270    705.000    757.314    -52.314    514.213    585.632    514.213    685.888    514.213
 73.370    661.000    715.342    -54.342    514.275    572.167    514.275    657.444    514.275
 73.470    607.000    679.498    -72.498    514.336    563.667    514.336    630.164    514.336
 73.570    591.000    649.642    -58.642    514.397    558.319    514.397    605.718    514.397
 73.670    628.000    625.598      2.402    514.456    555.058    514.456    584.997    514.456
 73.770    586.346    607.049    -20.702    514.514    553.304    514.514    568.264    514.514
 73.870    566.000    593.486    -27.486    514.572    552.754    514.572    555.313    514.572
 73.970    629.000    584.236     44.764    514.628    553.226    514.628    545.651    514.628
 74.070    592.000    578.506     13.494    514.684    554.554    514.684    538.654    514.684
 74.170    589.000    575.443     13.557    514.738    556.516    514.738    533.689    514.738
 74.270    606.000    574.182     31.818    514.792    558.804    514.792    530.199    514.792
 74.370    635.000    573.869     61.131    514.845    561.014    514.845    527.735    514.845
 74.470    592.960    573.699     19.261    514.896    562.673    514.896    525.963    514.896
 74.570    575.772    572.989      2.783    514.947    563.329    514.947    524.650    514.947
 74.670    646.000    571.301     74.699    514.997    562.699    514.997    523.641    514.997
 74.770    643.000    568.547     74.453    515.046    560.795    515.046    522.838    515.046
 74.870    602.910    564.975     37.935    515.093    557.926    515.093    522.179    515.093
 74.970    512.051    561.031    -48.980    515.140    554.578    515.140    521.625    515.140
 75.070    563.000    557.222      5.778    515.186    551.281    515.186    521.151    515.186
 75.170    546.059    554.042     -7.983    515.230    548.550    515.230    520.742    515.230
 75.270    556.000    551.966      4.034    515.274    546.868    515.274    520.384    515.274
 75.370    576.281    551.459     24.822    515.317    546.712    515.317    520.071    515.317
 75.470    533.000    553.006    -20.006    515.358    548.570    515.358    519.795    515.358
 75.570    576.769    557.114     19.655    515.399    552.957    515.399    519.551    515.399
 75.670    559.269    564.285     -5.016    515.438    560.378    515.438    519.335    515.438
 75.770    569.000    574.935     -5.935    515.476    571.252    515.476    519.143    515.476
 75.870    562.241    589.265    -27.024    515.514    585.783    515.514    518.971    515.514
 75.970    637.487    607.101     30.386    515.550    603.800    515.550    518.818    515.550
 76.070    618.000    627.743     -9.743    515.585    624.606    515.585    518.680    515.585
 76.170    612.000    649.865    -37.865    515.619    646.877    515.619    518.556    515.619
 76.270    676.000    671.486      4.514    515.652    668.635    515.652    518.445    515.652
 76.370    697.000    690.062      6.938    515.683    687.338    515.683    518.345    515.683
 76.470    689.000    702.807    -13.807    515.714    700.203    515.714    518.254    515.714
 76.570    696.832    707.384    -10.551    515.744    704.894    515.744    518.171    515.744
 76.670    707.000    702.815      4.185    515.772    700.434    515.772    518.096    515.772
 76.770    711.316    689.960     21.356    515.799    687.683    515.799    518.028    515.799
 76.870    691.387    671.083     20.304    515.825    668.904    515.825    517.965    515.825
 76.970    681.099    648.951     32.149    515.850    646.862    515.850    517.908    515.850
 77.070    607.000    626.111    -19.111    515.874    624.107    515.874    517.856    515.874
 77.170    596.000    604.555     -8.555    515.897    602.628    515.897    517.807    515.897
 77.270    566.000    585.608    -19.608    515.918    583.753    515.918    517.763    515.918
 77.370    555.000    569.946    -14.946    515.938    568.156    515.938    517.721    515.938
 77.470    545.000    557.689    -12.689    515.958    555.959    515.958    517.683    515.958
 77.570    515.549    548.559    -33.010    515.975    546.885    515.975    517.647    515.975
 77.670    508.000    542.047    -34.047    515.992    540.424    515.992    517.613    515.992
 77.770    569.948    537.568     32.380    516.008    535.992    516.008    517.582    516.008
 77.870    517.000    534.567    -17.567    516.022    533.035    516.022    517.552    516.022
 77.970    505.988    532.584    -26.596    516.035    531.094    516.035    517.524    516.035
 78.070    530.000    531.273     -1.273    516.047    529.822    516.047    517.497    516.047
 78.170    520.000    530.394    -10.394    516.058    528.979    516.058    517.472    516.058
 78.270    494.227    529.791    -35.565    516.067    528.411    516.067    517.447    516.067
 78.370    502.000    529.371    -27.371    516.076    528.022    516.076    517.424    516.076
 78.470    530.170    529.064      1.106    516.083    527.744    516.083    517.402    516.083
 78.570    545.000    528.861     16.139    516.088    527.569    516.088    517.380    516.088
 78.670    577.080    528.788     48.292    516.093    527.521    516.093    517.359    516.093
 78.770    534.000    528.831      5.169    516.096    527.587    516.096    517.339    516.096
 78.870    528.830    529.003     -0.173    516.098    527.780    516.098    517.321    516.098
 78.970    555.633    529.327     26.306    516.099    528.122    516.099    517.303    516.099
 79.070    521.000    529.831     -8.831    516.098    528.641    516.098    517.287    516.098
 79.170    488.000    530.542    -42.542    516.097    529.363    516.097    517.274    516.097
 79.270    497.000    531.490    -34.490    516.094    530.318    516.094    517.263    516.094
 79.370    535.570    532.701      2.869    516.089    531.530    516.089    517.257    516.089
 79.470    534.105    534.200     -0.095    516.084    533.025    516.084    517.255    516.084
 79.570    577.553    536.022     41.532    516.077    534.835    516.077    517.259    516.077
 79.670    507.396    538.221    -30.826    516.069    537.015    516.069    517.270    516.069
 79.770    524.000    540.889    -16.889    516.059    539.654    516.059    517.289    516.059
 79.870    560.424    544.175     16.249    516.048    542.902    516.048    517.316    516.048
 79.970    535.000    548.309    -13.309    516.036    546.990    516.036    517.351    516.036
 80.070    534.000    553.628    -19.628    516.023    552.255    516.023    517.392    516.023
 80.170    566.000    560.570      5.430    516.008    559.137    516.008    517.438    516.008
 80.270    555.581    569.625    -14.044    515.992    568.131    515.992    517.485    515.992
 80.370    597.000    581.238     15.762    515.975    579.686    515.975    517.529    515.975
 80.470    582.000    595.691    -13.691    515.956    594.089    515.956    517.563    515.956
 80.570    583.460    612.991    -29.531    515.936    611.356    515.936    517.581    515.936
 80.670    614.000    632.786    -18.786    515.915    631.139    515.915    517.576    515.915
 80.770    639.919    654.318    -14.399    515.892    652.686    515.892    517.544    515.892
 80.870    647.941    676.451    -28.510    515.868    674.860    515.868    517.485    515.868
 80.970    683.000    697.789    -14.789    515.843    696.262    515.843    517.403    515.843
 81.070    712.000    716.888     -4.888    515.816    715.439    515.816    517.305    515.816
 81.170    744.000    732.449     11.551    515.788    731.087    515.788    517.196    515.788
 81.270    774.000    743.442     30.558    515.758    742.169    515.758    517.084    515.758
 81.370    803.357    749.184     54.172    515.728    747.997    515.728    516.973    515.728
 81.470    680.000    749.422    -69.422    515.696    748.315    515.696    516.866    515.696
 81.570    762.000    744.338     17.662    515.662    743.301    515.662    516.765    515.662
 81.670    756.000    734.487     21.513    515.627    733.511    515.627    516.671    515.627
 81.770    716.284    720.757     -4.474    515.591    719.831    515.591    516.585    515.591
 81.870    749.000    704.320     44.680    515.553    703.434    515.553    516.507    515.553
 81.970    727.000    686.477     40.523    515.514    685.623    515.514    516.434    515.514
 82.070    720.863    668.390     52.472    515.474    667.560    515.474    516.367    515.474
 82.170    697.000    650.877     46.123    515.432    650.064    515.432    516.304    515.432
 82.270    620.652    634.367    -13.716    515.389    633.568    515.389    516.243    515.389
 82.370    635.000    619.026     15.974    515.345    618.235    515.345    516.185    515.345
 82.470    649.746    604.922     44.824    515.299    604.137    515.299    516.129    515.299
 82.570    587.000    592.164     -5.164    515.252    591.382    515.252    516.073    515.252
 82.670    630.682    580.919     49.762    515.203    580.138    515.203    516.017    515.203
 82.770    553.310    571.371    -18.061    515.153    570.589    515.153    515.960    515.153
 82.870    577.000    563.684     13.316    515.101    562.900    515.101    515.904    515.101
 82.970    561.184    557.980      3.204    515.049    557.193    515.049    515.847    515.049
 83.070    539.759    554.327    -14.568    514.994    553.537    514.994    515.789    514.994
 83.170    525.573    552.720    -27.147    514.939    551.926    514.939    515.730    514.939
 83.270    531.000    553.064    -22.064    514.882    552.265    514.882    515.670    514.882
 83.370    524.333    555.151    -30.818    514.823    554.347    514.823    515.609    514.823
 83.470    571.000    558.655     12.345    514.763    557.846    514.763    515.547    514.763
 83.570    571.000    563.126      7.874    514.702    562.312    514.702    515.485    514.702
 83.670    580.067    568.008     12.059    514.639    567.189    514.639    515.421    514.639
 83.770    530.468    572.658    -42.190    514.575    571.836    514.575    515.356    514.575
 83.870    562.000    576.405    -14.405    514.510    575.581    514.510    515.290    514.510
 83.970    555.000    578.631    -23.631    514.443    577.805    514.443    515.223    514.443
 84.070    565.000    578.899    -13.899    514.375    578.074    514.375    515.155    514.375
 84.170    587.000    577.080      9.920    514.305    576.258    514.305    515.085    514.305
 84.270    544.000    573.381    -29.381    514.234    572.562    514.234    515.015    514.234
 84.370    602.000    568.256     33.744    514.161    567.441    514.161    514.943    514.161
 84.470    577.852    562.272     15.579    514.088    561.461    514.088    514.871    514.088
 84.570    500.000    555.983    -55.983    514.012    555.175    514.012    514.797    514.012
 84.670    510.396    549.858    -39.463    513.935    549.053    513.935    514.722    513.935
 84.770    561.575    544.253     17.322    513.857    543.450    513.857    514.646    513.857
 84.870    547.000    539.395      7.605    513.778    538.592    513.778    514.569    513.778
 84.970    522.000    535.389    -13.389    513.697    534.586    513.697    514.491    513.697
 85.070    522.104    532.242    -10.138    513.614    531.438    513.614    514.411    513.614
 85.170    523.000    529.888     -6.888    513.530    529.082    513.530    514.331    513.530
 85.270    532.000    528.224      3.776    513.445    527.415    513.445    514.249    513.445
 85.370    518.000    527.131     -9.131    513.359    526.319    513.359    514.166    513.359
 85.470    523.000    526.507     -3.507    513.271    525.690    513.271    514.083    513.271
 85.570    510.000    526.270    -16.270    513.181    525.449    513.181    513.998    513.181
 85.670    529.000    526.379      2.621    513.090    525.552    513.090    513.911    513.090
 85.770    528.000    526.829      1.171    512.998    525.997    512.998    513.824    512.998
 85.870    516.202    527.663    -11.461    512.904    526.823    512.904    513.736    512.904
 85.970    552.000    528.961     23.039    512.809    528.114    512.809    513.647    512.809
 86.070    528.670    530.848     -2.179    512.713    529.992    512.713    513.556    512.713
 86.170    499.000    533.480    -34.480    512.615    532.614    512.615    513.465    512.615
 86.270    516.625    537.037    -20.412    512.515    536.159    512.515    513.372    512.515
 86.370    548.000    541.697      6.303    512.415    540.806    512.415    513.279    512.415
 86.470    569.000    547.616     21.384    512.312    546.711    512.312    513.184    512.312
 86.570    581.000    554.889     26.111    512.209    553.966    512.209    513.089    512.209
 86.670    565.000    563.509      1.491    512.104    562.568    512.104    512.992    512.104
 86.770    594.000    573.336     20.664    511.998    572.375    511.998    512.895    511.998
 86.870    568.249    584.062    -15.813    511.890    583.079    511.890    512.796    511.890
 86.970    579.000    595.196    -16.196    511.781    594.192    511.781    512.697    511.781
 87.070    627.000    606.071     20.929    511.670    605.047    511.670    512.596    511.670
 87.170    579.000    615.871    -36.871    511.558    614.827    511.558    512.495    511.558
 87.270    616.813    623.704     -6.890    511.445    622.643    511.445    512.393    511.445
 87.370    683.000    628.742     54.258    511.330    627.667    511.330    512.290    511.330
 87.470    674.000    630.415     43.585    511.214    629.330    511.214    512.187    511.214
 87.570    606.000    628.579    -22.579    511.097    627.488    511.097    512.082    511.097
 87.670    682.000    623.562     58.438    510.978    622.467    510.978    511.977    510.978
 87.770    625.176    616.058      9.119    510.858    614.961    510.858    511.871    510.858
 87.870    572.698    606.948    -34.250    510.736    605.849    510.736    511.765    510.736
 87.970    622.000    597.188     24.812    510.613    596.087    510.613    511.658    510.613
 88.070    592.000    587.670      4.330    510.489    586.565    510.489    511.550    510.489
 88.170    606.000    579.154     26.846    510.363    578.043    510.363    511.442    510.363
 88.270    578.000    572.245      5.755    510.236    571.126    510.236    511.334    510.236
 88.370    600.000    567.365     32.635    510.108    566.236    510.108    511.225    510.108
 88.470    562.575    564.742     -2.166    509.978    563.602    509.978    511.116    509.978
 88.570    595.950    564.414     31.537    509.847    563.260    509.847    511.006    509.847
 88.670    518.000    566.238    -48.238    509.715    565.069    509.715    510.897    509.715
 88.770    605.000    569.908     35.092    509.581    568.723    509.581    510.787    509.581
 88.870    579.278    574.971      4.306    509.446    573.768    509.446    510.677    509.446
 88.970    597.598    580.854     16.743    509.310    579.632    509.310    510.568    509.310
 89.070    632.606    586.890     45.716    509.172    585.646    509.172    510.459    509.172
 89.170    552.513    592.355    -39.842    509.033    591.088    509.033    510.350    509.033
 89.270    604.000    596.534      7.466    508.892    595.241    508.892    510.242    508.892
 89.370    597.687    598.812     -1.125    508.751    597.489    508.751    510.135    508.751
 89.470    649.000    598.792     50.208    508.608    597.435    508.608    510.027    508.608
 89.570    557.203    596.391    -39.189    508.463    594.997    508.463    509.921    508.463
 89.670    544.000    591.848    -47.848    508.318    590.409    508.318    509.817    508.318
 89.770    561.000    585.634    -24.634    508.171    584.147    508.171    509.715    508.171
 89.870    572.000    578.333     -6.333    508.023    576.793    508.023    509.615    508.023
 89.970    596.000    570.533     25.467    507.873    568.935    507.873    509.516    507.873
 90.070    527.000    562.753    -35.753    507.722    561.093    507.722    509.421    507.722
 90.170    586.658    555.411     31.247    507.570    553.684    507.570    509.329    507.570
 90.270    512.000    548.807    -36.807    507.417    547.010    507.417    509.240    507.417
 90.370    526.000    543.124    -17.124    507.262    541.250    507.262    509.156    507.262
 90.470    532.072    538.436     -6.364    507.107    536.481    507.107    509.077    507.107
 90.570    510.000    534.733    -24.733    506.950    532.689    506.950    509.004    506.950
 90.670    540.140    531.940      8.199    506.791    529.799    506.791    508.940    506.791
 90.770    522.000    529.950     -7.950    506.632    527.702    506.632    508.885    506.632
 90.870    527.000    528.645     -1.645    506.471    526.275    506.471    508.844    506.471
 90.970    526.000    527.916     -1.916    506.309    525.407    506.309    508.819    506.309
 91.070    540.375    527.678     12.697    506.146    525.006    506.146    508.817    506.146
 91.170    477.000    527.882    -50.882    505.981    525.017    505.981    508.845    505.981
 91.270    570.000    528.518     41.482    505.815    525.419    505.815    508.912    505.815
 91.370    528.000    529.624     -1.624    505.649    526.237    505.649    509.032    505.649
 91.470    559.000    531.276     27.724    505.480    527.532    505.480    509.220    505.480
 91.570    498.913    533.569    -34.656    505.311    529.376    505.311    509.498    505.311
 91.670    553.000    536.743     16.257    505.141    531.988    505.141    509.888    505.141
 91.770    550.531    541.004      9.527    504.969    535.542    504.969    510.421    504.969
 91.870    532.000    546.583    -14.583    504.796    540.240    504.796    511.126    504.796
 91.970    561.000    553.732      7.268    504.623    546.299    504.623    512.038    504.623
 92.070    533.000    562.695    -29.695    504.447    553.932    504.447    513.189    504.447
 92.170    577.000    573.681      3.319    504.271    563.316    504.271    514.610    504.271
 92.270    569.000    586.831    -17.831    504.094    574.569    504.094    516.323    504.094
 92.370    621.000    602.183     18.817    503.915    587.718    503.915    518.342    503.915
 92.470    569.000    619.653    -50.653    503.736    602.676    503.736    520.666    503.736
 92.570    627.238    639.000    -11.762    503.555    619.226    503.555    523.275    503.555
 92.670    709.782    659.821     49.961    503.373    637.003    503.373    526.130    503.373
 92.770    665.000    681.542    -16.542    503.191    655.503    503.191    529.162    503.191
 92.870    730.000    703.439     26.561    503.007    674.094    503.007    532.278    503.007
 92.970    694.000    724.689    -30.689    502.822    692.082    502.822    535.351    502.822
 93.070    767.000    744.475     22.525    502.636    708.809    502.636    538.223    502.636
 93.170    751.687    762.119    -10.432    502.448    723.778    502.448    540.708    502.448
 93.270    866.000    777.206     88.794    502.260    736.777    502.260    542.608    502.260
 93.370    807.000    789.632     17.368    502.071    747.882    502.071    543.741    502.071
 93.470    796.033    799.546     -3.513    501.881    757.372    501.881    543.977    501.881
 93.570    858.933    807.289     51.643    501.689    765.631    501.689    543.273    501.689
 93.670    820.000    813.328      6.672    501.497    773.068    501.497    541.685    501.497
 93.770    860.000    818.227     41.773    501.304    780.109    501.304    539.353    501.304
 93.870    852.419    822.654     29.765    501.110    787.232    501.110    536.464    501.110
 93.970    807.000    827.344    -20.344    500.914    794.976    500.914    533.217    500.914
 94.070    862.000    833.002     28.998    500.718    803.864    500.718    529.793    500.718
 94.170    934.000    840.132     93.868    500.521    814.247    500.521    526.345    500.521
 94.270    870.000    848.870     21.130    500.323    826.137    500.323    522.998    500.323
 94.370    864.736    858.869      5.867    500.124    839.095    500.124    519.842    500.124
 94.470    903.000    869.277     33.723    499.924    852.209    499.924    516.939    499.924
 94.570    838.000    878.806    -40.806    499.723    864.154    499.723    514.328    499.723
 94.670    848.127    885.872    -37.745    499.521    873.330    499.521    512.023    499.521
 94.770    906.000    888.829     17.171    499.319    878.089    499.319    510.025    499.319
 94.870    849.584    886.272    -36.689    499.115    877.045    499.115    508.318    499.115
 94.970    902.572    877.377     25.195    498.911    869.394    498.911    506.878    498.911
 95.070    836.467    862.116    -25.649    498.706    855.140    498.706    505.674    498.706
 95.170    867.000    841.285     25.715    498.499    835.110    498.499    504.674    498.499
 95.270    845.000    816.316     28.684    498.292    810.770    498.292    503.845    498.292
 95.370    766.896    789.020    -22.125    498.085    783.960    498.085    503.155    498.085
 95.470    710.766    761.346    -50.580    497.876    756.657    497.876    502.576    497.876
 95.570    743.000    735.217      7.783    497.667    730.809    497.667    502.087    497.667
 95.670    751.411    712.428     38.982    497.457    708.228    497.457    501.666    497.457
 95.770    678.422    694.575    -16.152    497.246    690.527    497.246    501.299    497.246
 95.870    712.342    683.089     29.254    497.034    679.150    497.034    500.972    497.034
 95.970    701.975    679.150     22.825    496.822    675.287    496.822    500.678    496.822
 96.070    663.000    683.736    -20.736    496.609    679.920    496.609    500.409    496.609
 96.170    690.044    697.623     -7.580    496.395    693.833    496.395    500.160    496.395
 96.270    740.918    721.376     19.543    496.180    717.592    496.180    499.928    496.180
 96.370    762.000    755.303      6.697    495.965    751.510    495.965    499.711    495.965
 96.470    783.467    799.390    -15.923    495.749    795.574    495.749    499.507    495.749
 96.570    790.000    853.208    -63.208    495.532    849.357    495.532    499.314    495.532
 96.670    957.000    915.811     41.189    495.315    911.913    495.315    499.132    495.315
 96.770    945.000    985.649    -40.649    495.097    981.694    495.097    498.962    495.097
 96.870    982.000   1060.507    -78.507    494.879   1056.487    494.879    498.801    494.879
 96.970   1199.239   1137.489     61.750    494.660   1133.395    494.660    498.652    494.660
 97.070   1151.757   1213.050    -61.293    494.440   1208.874    494.440    498.513    494.440
 97.170   1278.000   1283.115     -5.115    494.220   1278.850    494.220    498.386    494.220
 97.270   1406.332   1343.317     63.015    493.999   1338.955    493.999    498.271    493.999
 97.370   1408.000   1389.412     18.588    493.777   1384.945    493.777    498.169    493.777
 97.470   1442.000   1417.874     24.126    493.555   1413.292    493.555    498.079    493.555
 97.570   1394.000   1426.543    -32.543    493.333   1421.833    493.333    498.005    493.333
 97.670   1363.309   1415.065    -51.756    493.110   1410.213    493.110    497.947    493.110
 97.770   1427.000   1384.905     42.095    492.887   1379.889    492.887    497.907    492.887
 97.870   1366.308   1338.961     27.347    492.663   1333.759    492.663    497.888    492.663
 97.970   1219.000   1280.998    -61.998    492.438   1275.580    492.438    497.894    492.438
 98.070   1140.709   1215.118    -74.409    492.214   1209.451    492.214    497.928    492.214
 98.170   1122.000   1145.386    -23.386    491.988   1139.432    491.988    497.997    491.988
 98.270   1053.660   1075.595    -21.935    491.763   1069.304    491.763    498.110    491.763
 98.370    967.000   1009.117    -42.117    491.537   1002.430    491.537    498.278    491.537
 98.470    946.000    948.831     -2.831    491.310    941.675    491.310    498.515    491.310
 98.570    922.000    897.102     24.898    491.084    889.386    491.084    498.843    491.084
 98.670    907.682    855.805     51.877    490.856    847.409    490.856    499.288    490.856
 98.770    805.000    826.372    -21.372    490.629    817.144    490.629    499.882    490.629
 98.870    856.671    809.862     46.810    490.401    799.609    490.401    500.670    490.401
 98.970    801.000    807.037     -6.037    490.173    795.514    490.173    501.702    490.173
 99.070    828.000    818.418      9.582    489.945    805.317    489.945    503.043    489.945
 99.170    810.326    844.319    -33.993    489.716    829.258    489.716    504.766    489.716
 99.270    868.000    884.837    -16.837    489.488    867.351    489.488    506.955    489.488
 99.370    955.000    939.807     15.193    489.259    919.341    489.259    509.701    489.259
 99.470   1067.000   1008.722     58.278    489.030    984.625    489.030    513.101    489.030
 99.570   1104.052   1090.686     13.367    488.800   1062.209    488.800    517.250    488.800
 99.670   1144.000   1184.256    -40.256    488.571   1150.566    488.571    522.237    488.571
 99.770   1275.000   1287.379    -12.379    488.341   1247.566    488.341    528.137    488.341
 99.870   1375.363   1397.338    -21.975    488.111   1350.442    488.111    535.000    488.111
 99.970   1435.548   1510.744    -75.196    487.881   1455.790    487.881    542.844    487.881
100.070   1674.896   1623.612     51.284    487.651   1559.647    487.651    551.643    487.651
100.170   1713.000   1731.564    -18.564    487.421   1657.711    487.421    561.322    487.421
100.270   1829.000   1830.160     -1.160    487.191   1745.678    487.191    571.746    487.191
100.370   1936.708   1915.313     21.395    486.961   1819.659    486.961    582.714    486.961
100.470   2024.000   1983.626     40.374    486.731   1876.526    486.731    593.955    486.731
100.570   2073.000   2032.546     40.454    486.501   1914.074    486.501    605.120    486.501
100.670   2153.000   2060.335     92.665    486.270   1930.984    486.270    615.790    486.270
100.770   1970.601   2066.004    -95.403    486.040   1926.756    486.040    625.474    486.040
100.870   2034.000   2049.384    -15.384    485.810   1901.752    485.810    633.641    485.810
100.970   2013.204   2011.356      1.847    485.581   1857.382    485.581    639.761    485.581
101.070   1918.000   1954.087    -36.087    485.351   1796.269    485.351    643.378    485.351
101.170   1845.000   1881.047    -36.047    485.121   1722.187    485.121    644.187    485.121
101.270   1834.000   1796.715     37.285    484.892   1639.702    484.892    642.104    484.892
101.370   1667.743   1706.051    -38.308    484.662   1553.622    484.662    637.280    484.662
101.470   1584.000   1613.926    -29.926    484.433   1468.463    484.433    630.071    484.433
101.570   1459.656   1524.660    -65.004    484.204   1388.059    484.204    620.964    484.204
101.670   1422.000   1441.715    -19.715    483.976   1315.338    483.976    610.496    483.976
101.770   1357.000   1367.548    -10.548    483.747   1252.233    483.747    599.191    483.747
101.870   1311.000   1303.569      7.431    483.519   1199.682    483.519    587.520    483.519
101.970   1225.837   1250.173    -24.335    483.291   1157.683    483.291    575.883    483.291
102.070   1222.000   1206.833     15.167    483.064   1125.382    483.064    564.607    483.064
102.170   1232.050   1172.231     59.819    482.837   1101.212    482.837    553.941    482.837
102.270   1110.143   1144.422    -34.280    482.610   1083.047    482.610    544.066    482.610
102.370   1104.262   1121.052    -16.791    482.383   1068.414    482.383    535.100    482.383
102.470   1083.000   1099.618    -16.618    482.157   1054.752    482.157    527.102    482.157
102.570   1088.000   1077.776     10.224    481.932   1039.702    481.932    520.085    481.932
102.670   1108.000   1053.644     54.356    481.707   1021.412    481.707    514.019    481.707
102.770   1007.498   1026.034    -18.536    481.482    998.750    481.482    508.848    481.482
102.870    999.127    994.528      4.599    481.258    971.378    481.258    504.490    481.258
102.970   1024.066    959.395     64.671    481.035    939.655    481.035    500.856    481.035
103.070    923.000    921.399      1.601    480.812    904.442    480.812    497.847    480.812
103.170    897.937    881.583     16.355    480.589    866.877    480.589    495.370    480.589
103.270    829.000    841.092    -12.092    480.368    828.197    480.368    493.333    480.368
103.370    796.000    801.046     -5.046    480.147    789.599    480.147    491.657    480.147
103.470    820.637    762.449     58.187    479.926    752.163    479.926    490.271    479.926
103.570    710.000    726.148    -16.148    479.706    716.792    479.706    489.113    479.706
103.670    702.000    692.787      9.213    479.487    684.183    479.487    488.137    479.487
103.770    685.696    662.806     22.890    479.269    654.813    479.269    487.300    479.269
103.870    677.000    636.434     40.566    479.051    628.945    479.051    486.572    479.051
103.970    635.210    613.713     21.497    478.835    606.645    478.835    485.929    478.835
104.070    607.000    594.527     12.473    478.619    587.815    478.619    485.352    478.619
104.170    617.000    578.635     38.365    478.403    572.229    478.403    484.826    478.403
104.270    543.213    565.716    -22.503    478.189    559.576    478.189    484.343    478.189
104.370    544.000    555.409    -11.409    477.976    549.502    477.976    483.893    477.976
104.470    566.303    547.342     18.961    477.763    541.641    477.763    483.471    477.763
104.570    583.000    541.153     41.847    477.552    535.637    477.552    483.073    477.552
104.670    521.000    536.521    -15.521    477.341    531.169    477.341    482.695    477.341
104.770    523.000    533.161    -10.161    477.132    527.957    477.132    482.336    477.132
104.870    528.000    530.862     -2.862    476.923    525.792    476.923    481.993    476.923
104.970    536.000    529.453      6.547    476.715    524.502    476.715    481.665    476.715
105.070    525.000    528.816     -3.816    476.509    523.972    476.509    481.350    476.509
105.170    579.000    528.883     50.117    476.304    524.135    476.304    481.047    476.304
105.270    578.761    529.633     49.127    476.100    524.971    476.100    480.756    476.100
105.370    565.000    531.085     33.915    475.897    526.498    475.897    480.476    475.897
105.470    529.000    533.289     -4.289    475.695    528.769    475.695    480.205    475.695
105.570    523.000    536.324    -13.324    475.494    531.862    475.494    479.945    475.494
105.670    528.000    540.286    -12.286    475.295    535.873    475.295    479.693    475.295
105.770    543.000    545.272     -2.272    475.097    540.902    475.097    479.450    475.097
105.870    589.000    551.373     37.627    474.900    547.037    474.900    479.216    474.900
105.970    563.857    558.654      5.204    474.704    554.346    474.704    478.989    474.704
106.070    555.000    567.141    -12.141    474.510    562.856    474.510    478.771    474.510
106.170    545.444    576.813    -31.369    474.318    572.542    474.318    478.559    474.318
106.270    624.319    587.584     36.735    474.126    583.323    474.126    478.355    474.126
106.370    559.000    599.305    -40.305    473.936    595.048    473.936    478.158    473.936
106.470    652.673    611.757     40.916    473.748    607.498    473.748    477.968    473.748
106.570    654.581    624.655     29.926    473.561    620.390    473.561    477.785    473.561
106.670    653.633    637.647     15.986    473.376    633.376    473.376    477.604    473.376
106.770    606.000    650.348    -44.348    473.192    646.062    473.192    477.434    473.192
106.870    650.000    662.327    -12.327    473.010    658.020    473.010    477.271    473.010
106.970    667.000    673.149     -6.149    472.830    668.817    472.830    477.115    472.830
107.070    663.000    682.414    -19.414    472.651    678.054    472.651    476.966    472.651
107.170    660.445    689.804    -29.359    472.474    685.412    472.474    476.823    472.474
107.270    680.000    695.134    -15.134    472.298    690.704    472.298    476.688    472.298
107.370    689.407    698.392     -8.985    472.125    693.921    472.125    476.559    472.125
107.470    716.000    699.752     16.248    471.953    695.235    471.953    476.437    471.953
107.570    744.457    699.541     44.916    471.783    694.973    471.783    476.322    471.783
107.670    712.614    698.179     14.435    471.615    693.566    471.615    476.204    471.615
107.770    665.000    696.148    -31.148    471.448    691.474    471.448    476.103    471.448
107.870    665.000    693.878    -28.878    471.284    689.136    471.284    476.010    471.284
107.970    711.000    691.738     19.262    471.122    686.922    471.122    475.926    471.122
108.070    737.149    689.997     47.152    470.961    685.102    470.961    475.849    470.961
108.170    657.000    688.811    -31.811    470.803    683.829    470.803    475.781    470.803
108.270    628.000    688.208    -60.208    470.647    683.133    470.647    475.721    470.647
108.370    711.518    688.094     23.425    470.492    682.919    470.492    475.671    470.492
108.470    714.000    688.257     25.743    470.340    682.975    470.340    475.629    470.340
108.570    692.439    688.390      4.049    470.190    682.993    470.190    475.597    470.190
108.670    668.000    688.114    -20.114    470.043    682.594    470.043    475.575    470.043
108.770    688.912    687.029      1.883    469.897    681.379    469.897    475.563    469.897
108.870    707.873    684.766     23.107    469.754    678.975    469.754    475.562    469.754
108.970    671.000    681.038    -10.038    469.613    675.098    469.613    475.573    469.613
109.070    696.000    675.692     20.308    469.474    669.592    469.474    475.595    469.474
109.170    706.224    668.724     37.500    469.338    662.454    469.338    475.630    469.338
109.270    675.000    660.270     14.730    469.204    653.818    469.204    475.679    469.204
109.370    601.757    650.575    -48.818    469.073    643.929    469.073    475.741    469.073
109.470    677.738    639.951     37.787    468.944    633.098    468.944    475.819    468.944
109.570    663.000    628.738     34.262    468.817    621.664    468.817    475.912    468.817
109.670    591.762    617.277    -25.515    468.693    609.967    468.693    476.022    468.693
109.770    595.407    605.887    -10.481    468.572    598.326    468.572    476.151    468.572
109.870    610.936    594.854     16.082    468.453    587.024    468.453    476.298    468.453
109.970    589.968    584.420      5.548    468.337    576.304    468.337    476.467    468.337
110.070    594.000    574.779     19.221    468.224    566.354    468.224    476.660    468.224
110.170    579.258    566.052     13.206    468.113    557.297    468.113    476.877    468.113
110.270    592.564    558.364     34.200    468.005    549.254    468.005    477.123    468.005
110.370    584.000    551.783     32.217    467.900    542.289    467.900    477.401    467.900
110.470    581.000    546.298     34.702    467.798    536.386    467.798    477.715    467.798
110.570    555.000    541.879     13.121    467.699    531.511    467.699    478.070    467.699
110.670    503.000    538.475    -35.475    467.602    527.605    467.602    478.473    467.602
110.770    540.000    536.013      3.987    467.509    524.588    467.509    478.934    467.509
110.870    491.183    534.414    -43.231    467.418    522.369    467.418    479.462    467.418
110.970    516.000    533.593    -17.593    467.331    520.850    467.331    480.071    467.331
111.070    537.000    533.470      3.530    467.247    519.933    467.247    480.780    467.247
111.170    532.766    533.972     -1.206    467.165    519.525    467.165    481.607    467.165
111.270    490.843    535.038    -44.195    467.087    519.538    467.087    482.581    467.087
111.370    560.000    536.623     23.377    467.012    519.895    467.012    483.733    467.012
111.470    554.332    538.697     15.635    466.941    520.528    466.941    485.102    466.941
111.570    513.000    541.249    -28.249    466.872    521.379    466.872    486.735    466.872
111.670    512.000    544.287    -32.287    466.807    522.400    466.807    488.685    466.807
111.770    526.000    547.837    -21.837    466.746    523.556    466.746    491.017    466.746
111.870    587.000    551.947     35.053    466.687    524.821    466.687    493.803    466.687
111.970    562.507    556.683      5.825    466.632    526.181    466.632    497.125    466.632
112.070    546.000    562.132    -16.132    466.581    527.630    466.581    501.072    466.581
112.170    608.194    568.396     39.798    466.533    529.175    466.533    505.743    466.533
112.270    622.484    575.592     46.892    466.489    530.830    466.489    511.239    466.489
112.370    609.000    583.849     25.151    466.448    532.619    466.448    517.666    466.448
112.470    559.669    593.301    -33.632    466.411    534.573    466.411    525.127    466.411
112.570    551.000    604.086    -53.086    466.378    536.730    466.378    533.720    466.378
112.670    646.330    616.340     29.989    466.348    539.141    466.348    543.534    466.348
112.770    632.651    630.199      2.452    466.322    541.866    466.322    554.640    466.322
112.870    681.391    645.789     35.601    466.300    544.985    466.300    567.089    466.300
112.970    698.000    663.236     34.764    466.282    548.601    466.282    580.900    466.282
113.070    677.672    682.660     -4.988    466.267    552.849    466.267    596.060    466.267
113.170    732.000    704.183     27.817    466.257    557.905    466.257    612.515    466.257
113.270    697.000    727.939    -30.939    466.251    564.001    466.251    630.166    466.251
113.370    764.000    754.082      9.918    466.248    571.446    466.248    648.860    466.248
113.470    815.136    782.806     32.330    466.250    580.636    466.250    668.392    466.250
113.570    789.617    814.362    -24.745    466.256    592.087    466.256    688.499    466.256
113.670    827.000    849.082    -22.082    466.266    606.456    466.266    708.855    466.266
113.770    863.000    887.407    -24.407    466.280    624.571    466.280    729.074    466.280
113.870    947.000    929.914     17.086    466.298    647.455    466.298    748.708    466.298
113.970    997.000    977.349     19.651    466.321    676.359    466.321    767.253    466.321
114.070   1054.467   1030.659     23.808    466.348    712.778    466.348    784.160    466.348
114.170   1059.463   1091.030    -31.567    466.380    758.468    466.380    798.857    466.380
114.270   1188.000   1159.916     28.084    466.416    815.449    466.416    810.782    466.416
114.370   1179.673   1239.081    -59.408    466.456    885.986    466.456    819.430    466.456
114.470   1300.930   1330.604    -29.674    466.501    972.557    466.501    824.402    466.501
114.570   1430.000   1436.876     -6.876    466.551   1077.795    466.551    825.458    466.551
114.670   1531.000   1560.540    -29.540    466.605   1204.391    466.605    822.547    466.605
114.770   1629.605   1704.384    -74.778    466.664   1354.987    466.664    815.815    466.664
114.870   1823.053   1871.169    -48.116    466.727   1532.022    466.727    805.587    466.727
114.970   2092.589   2063.423     29.166    466.795   1737.565    466.795    792.320    466.795
115.070   2401.000   2283.193    117.807    466.868   1973.125    466.868    776.554    466.868
115.170   2536.000   2531.799      4.201    466.946   2239.450    466.946    758.862    466.946
115.270   2857.820   2809.600     48.220    467.029   2536.335    467.029    739.808    467.029
115.370   3074.000   3115.783    -41.783    467.117   2862.443    467.117    719.922    467.117
115.470   3406.383   3448.207    -41.824    467.210   3215.153    467.210    699.680    467.210
115.570   3904.704   3803.282    101.422    467.308   3590.461    467.308    679.501    467.308
115.670   3935.000   4175.924   -240.924    467.411   3982.931    467.411    659.741    467.411
115.770   4679.100   4559.566    119.534    467.519   4385.702    467.519    640.694    467.519
115.870   4973.907   4946.241     27.666    467.632   4790.575    467.632    622.596    467.632
115.970   5074.000   5326.734   -252.734    467.751   5188.159    467.751    605.624    467.751
116.070   5747.282   5690.814     56.468    467.875   5568.098    467.875    589.904    467.875
116.170   6004.000   6027.552    -23.552    468.004   5919.389    468.004    575.513    468.004
116.270   6295.000   6325.750    -30.750    468.138   6230.801    468.138    562.485    468.138
116.370   6555.000   6574.507    -19.507    468.279   6491.435    468.279    550.814    468.279
116.470   6815.000   6763.912     51.088    468.424   6691.417    468.424    540.467    468.424
116.570   6967.000   6885.847     81.153    468.575   6822.687    468.575    531.380    468.575
116.670   6950.000   6934.772     15.228    468.732   6879.781    468.732    523.474    468.732
116.770   6876.000   6908.330    -32.330    468.894   6860.431    468.894    516.655    468.894
116.870   6845.366   6807.618     37.748    469.063   6765.832    469.063    510.821    469.063
116.970   6687.000   6637.036     49.964    469.236   6600.482    469.236    505.869    469.236
117.070   6571.620   6403.760    167.860    469.416   6371.657    469.416    501.692    469.416
117.170   6304.000   6116.999    187.001    469.602   6088.663    469.602    498.193    469.602
117.270   5767.000   5787.184    -20.184    469.793   5762.024    469.793    495.276    469.793
117.370   5454.154   5425.264     28.889    469.990   5402.772    469.990    492.856    469.990
117.470   4974.000   5042.141    -68.141    470.194   5021.888    470.194    490.855    470.194
117.570   4509.000   4648.121   -139.121    470.403   4629.746    470.403    489.207    470.403
117.670   4411.000   4252.649    158.351    470.619   4235.851    470.619    487.851    470.619
117.770   3742.314   3864.048   -121.733    470.841   3848.579    470.841    486.737    470.841
117.870   3611.000   3489.353    121.647    471.069   3475.009    471.069    485.823    471.069
117.970   3148.242   3134.227     14.015    471.303   3120.841    471.303    485.074    471.303
118.070   2760.834   2802.937    -42.103    471.544   2790.375    471.544    484.460    471.544
118.170   2439.235   2498.410    -59.176    471.791   2486.561    471.791    483.959    471.791
118.270   2299.000   2222.327     76.673    472.045   2211.102    472.045    483.550    472.045
118.370   1971.000   1975.266     -4.266    472.305   1964.594    472.305    483.220    472.305
118.470   1818.738   1756.865     61.873    472.571   1746.688    472.571    482.955    472.571
118.570   1525.000   1566.007    -41.007    472.845   1556.276    472.845    482.746    472.845
118.670   1445.138   1400.993     44.145    473.125   1391.670    473.125    482.587    473.125
118.770   1243.000   1259.724    -16.724    473.411   1250.776    473.411    482.470    473.411
118.870   1073.424   1139.859    -66.435    473.705   1131.259    473.705    482.391    473.705
118.970    983.984   1038.958    -54.974    474.005   1030.681    474.005    482.347    474.005
119.070    912.000    954.598    -42.598    474.312    946.624    474.312    482.335    474.312
119.170    858.000    884.466    -26.466    474.627    876.775    474.627    482.352    474.627
119.270    843.000    826.420     16.580    474.948    818.994    474.948    482.397    474.948
119.370    819.000    778.531     40.469    475.276    771.354    475.276    482.469    475.276
119.470    768.000    739.102     28.898    475.611    732.159    475.611    482.565    475.611
119.570    689.000    706.672    -17.672    475.954    699.946    475.954    482.686    475.954
119.670    663.559    680.000    -16.441    476.304    673.477    476.304    482.831    476.304
119.770    641.997    658.057    -16.060    476.661    651.720    476.661    483.000    476.661
119.870    609.999    639.994    -29.995    477.026    633.829    477.026    483.192    477.026
119.970    581.000    625.122    -44.122    477.398    619.114    477.398    483.407    477.398
120.070    587.913    612.890    -24.977    477.777    607.022    477.777    483.646    477.777
120.170    614.000    602.858     11.142    478.164    597.113    478.164    483.909    478.164
120.270    585.259    594.676     -9.417    478.559    589.039    478.559    484.197    478.559
120.370    570.000    588.072    -18.072    478.961    582.525    478.961    484.509    478.961
120.470    552.000    582.832    -30.832    479.371    577.357    479.371    484.848    479.371
120.570    608.000    578.788     29.212    479.789    573.367    479.789    485.213    479.789
120.670    610.962    575.811     35.151    480.214    570.423    480.214    485.605    480.214
120.770    600.000    573.798     26.202    480.648    568.425    480.648    486.026    480.648
120.870    532.460    572.670    -40.210    481.089    567.289    481.089    486.476    481.089
120.970    579.000    572.362      6.638    481.539    566.952    481.539    486.955    481.539
121.070    569.426    572.819     -3.393    481.996    567.357    481.996    487.465    481.996
121.170    532.134    573.993    -41.859    482.462    568.457    482.462    488.006    482.462
121.270    591.300    575.838     15.463    482.936    570.205    482.936    488.579    482.936
121.370    552.000    578.307    -26.307    483.419    572.554    483.419    489.183    483.419
121.470    593.000    581.350     11.650    483.909    575.455    483.909    489.818    483.909
121.570    584.000    584.911     -0.911    484.408    578.852    484.408    490.483    484.408
121.670    587.000    588.927     -1.927    484.916    582.683    484.916    491.177    484.916
121.770    594.000    593.327      0.673    485.432    586.879    485.432    491.900    485.432
121.870    556.625    598.028    -41.403    485.956    591.360    485.956    492.648    485.956
121.970    629.730    602.943     26.787    486.490    596.039    486.490    493.419    486.490
122.070    625.457    607.971     17.486    487.032    600.820    487.032    494.211    487.032
122.170    632.627    613.006     19.621    487.582    605.601    487.582    495.019    487.582
122.270    613.000    617.936     -4.936    488.142    610.272    488.142    495.839    488.142
122.370    625.000    622.642      2.358    488.711    614.722    488.711    496.667    488.711
122.470    682.000    627.009     54.991    489.288    618.838    489.288    497.498    489.288
122.570    626.000    630.921     -4.921    489.875    622.513    489.875    498.324    489.875
122.670    616.000    634.277    -18.277    490.471    625.649    490.471    499.141    490.471
122.770    663.000    636.985     26.015    491.075    628.164    491.075    499.942    491.075
122.870    620.000    638.979    -18.979    491.690    629.996    491.690    500.719    491.690
122.970    677.000    640.217     36.783    492.313    631.109    492.313    501.468    492.313
123.070    663.000    640.684     22.316    492.946    631.495    492.946    502.182    492.946
123.170    647.479    640.393      7.085    493.588    631.172    493.588    502.856    493.588
123.270    665.875    639.385     26.490    494.240    630.182    494.240    503.489    494.240
123.370    598.000    637.717    -39.717    494.901    628.585    494.901    504.078    494.901
123.470    669.109    635.464     33.645    495.572    626.454    495.572    504.626    495.572
123.570    621.000    632.709    -11.709    496.253    623.872    496.253    505.131    496.253
123.670    636.000    629.542      6.458    496.944    620.922    496.944    505.603    496.944
123.770    661.000    626.054     34.946    497.644    617.690    497.644    506.045    497.644
123.870    587.174    622.331    -35.157    498.354    614.256    498.354    506.463    498.354
123.970    655.000    618.455     36.545    499.075    610.696    499.075    506.865    499.075
124.070    626.677    614.499     12.179    499.805    607.077    499.805    507.255    499.805
124.170    581.633    610.527    -28.893    500.546    603.456    500.546    507.640    500.546
124.270    595.000    606.591    -11.591    501.296    599.882    501.296    508.027    501.296
124.370    553.048    602.734    -49.686    502.057    596.389    502.057    508.421    502.057
124.470    613.000    598.985     14.015    502.829    593.004    502.829    508.826    502.829
124.570    573.000    595.364    -22.364    503.610    589.741    503.610    509.247    503.610
124.670    616.000    591.880     24.120    504.403    586.607    504.403    509.687    504.403
124.770    625.000    588.537     36.463    505.206    583.602    505.206    510.150    505.206
124.870    602.000    585.333     16.667    506.019    580.721    506.019    510.638    506.019
124.970    569.000    582.261    -13.261    506.843    577.957    506.843    511.153    506.843
