neutron_powder_diffraction_0179
R_wp: 3.868
Temperature (K): 1074.100
Counts: 83207.00
Wavelength (Ã…): 2.52098
COMMENTS
Test file for demonstrating the .xyy file format in Reel1.0
END OF HEADER
   tth       Y_obs     Y_calc      Y_res    Background    Phase_1_Nuc    Phase_1_Mag    Phase_2_Nuc    Phase_2_Mag
  9.970    607.956    574.575     33.381    573.887    574.516    573.887    573.946    573.887
 10.070    580.000    574.697      5.303    573.952    574.638    573.952    574.010    573.952
 10.170    575.176    574.818      0.357    574.010    574.759    574.010    574.069    574.010
 10.270    645.000    574.944     70.056    574.063    574.884    574.063    574.122    574.063
 10.370    558.000    575.075    -17.075    574.111    575.015    574.111    574.170    574.111
 10.470    581.000    575.215      5.785    574.153    575.155    574.153    574.212    574.153
 10.570    618.477    575.367     43.110    574.189    575.307    574.189    574.249    574.189
 10.670    576.336    575.537      0.800    574.220    575.476    574.220    574.281    574.220
 10.770    593.943    575.730     18.214    574.246    575.668    574.246    574.307    574.246
 10.870    544.452    575.954    -31.502    574.267    575.893    574.267    574.328    574.267
 10.970    547.000    576.223    -29.223    574.282    576.161    574.282    574.343    574.282
 11.070    596.000    576.552     19.448    574.292    576.489    574.292    574.354    574.292
 11.170    576.000    576.966     -0.966    574.298    576.903    574.298    574.359    574.298
 11.270    538.271    577.504    -39.233    574.298    577.440    574.298    574.359    574.298
 11.370    610.874    578.230     32.644    574.293    578.166    574.293    574.355    574.293
 11.470    624.196    579.286     44.911    574.283    579.220    574.283    574.345    574.283
 11.570    575.106    581.068     -5.962    574.268    581.001    574.268    574.331    574.268
 11.670    630.000    584.734     45.266    574.248    584.664    574.248    574.313    574.248
 11.770    639.000    593.057     45.943    574.223    592.981    574.223    574.288    574.223
 11.870    668.000    610.644     57.356    574.194    610.558    574.194    574.259    574.194
 11.970    668.000    641.235     26.765    574.160    641.132    574.160    574.226    574.160
 12.070    711.000    681.010     29.990    574.121    680.883    574.121    574.187    574.121
 12.170    681.000    712.452    -31.452    574.078    712.307    574.078    574.144    574.078
 12.270    725.748    713.430     12.318    574.030    713.284    574.030    574.096    574.030
 12.370    692.889    683.010      9.878    573.978    682.882    573.978    574.044    573.978
 12.470    646.000    642.946      3.054    573.921    642.839    573.921    573.988    573.921
 12.570    637.000    611.545     25.455    573.859    611.457    573.859    573.926    573.859
 12.670    609.000    593.247     15.753    573.793    593.168    573.793    573.861    573.793
 12.770    546.000    584.490    -38.490    573.723    584.416    573.723    573.791    573.723
 12.870    567.351    580.590    -13.239    573.649    580.517    573.649    573.717    573.649
 12.970    590.000    578.663     11.337    573.570    578.591    573.570    573.639    573.570
 13.070    616.928    577.494     39.434    573.487    577.423    573.487    573.556    573.487
 13.170    564.000    576.666    -12.666    573.400    576.595    573.400    573.469    573.400
 13.270    578.347    576.032      2.314    573.309    575.961    573.309    573.379    573.309
 13.370    541.024    575.525    -34.501    573.214    575.454    573.214    573.284    573.214
 13.470    573.000    575.106     -2.106    573.114    575.034    573.114    573.185    573.114
 13.570    575.000    574.749      0.251    573.011    574.677    573.011    573.082    573.011
 13.670    564.000    574.438    -10.438    572.904    574.366    572.904    572.975    572.904
 13.770    538.000    574.161    -36.161    572.793    574.089    572.793    572.864    572.793
 13.870    570.000    573.909     -3.909    572.678    573.837    572.678    572.750    572.678
 13.970    533.681    573.676    -39.995    572.559    573.604    572.559    572.631    572.559
 14.070    555.000    573.458    -18.458    572.437    573.385    572.437    572.509    572.437
 14.170    571.766    573.250     -1.483    572.310    573.176    572.310    572.383    572.310
 14.270    543.000    573.050    -30.050    572.180    572.976    572.180    572.254    572.180
 14.370    610.000    572.856     37.144    572.047    572.782    572.047    572.121    572.047
 14.470    543.014    572.667    -29.653    571.910    572.593    571.910    571.984    571.910
 14.570    534.330    572.481    -38.151    571.769    572.406    571.769    571.844    571.769
 14.670    544.000    572.297    -28.297    571.625    572.222    571.625    571.700    571.625
 14.770    621.000    572.115     48.885    571.477    572.039    571.477    571.553    571.477
 14.870    610.539    571.941     38.598    571.326    571.860    571.326    571.407    571.326
 14.970    559.000    571.762    -12.762    571.172    571.680    571.172    571.254    571.172
 15.070    550.000    571.581    -21.581    571.014    571.497    571.014    571.097    571.014
 15.170    567.000    571.398     -4.398    570.853    571.314    570.853    570.937    570.853
 15.270    568.830    571.215     -2.384    570.689    571.130    570.689    570.773    570.689
 15.370    542.000    571.030    -29.030    570.521    570.945    570.521    570.606    570.521
 15.470    530.151    570.844    -40.693    570.351    570.759    570.351    570.436    570.351
 15.570    574.000    570.656      3.344    570.177    570.571    570.177    570.262    570.177
 15.670    561.629    570.467     -8.839    570.000    570.381    570.000    570.086    570.000
 15.770    567.340    570.276     -2.936    569.820    570.190    569.820    569.906    569.820
 15.870    551.829    570.084    -18.255    569.637    569.997    569.637    569.724    569.637
 15.970    564.000    569.889     -5.889    569.451    569.801    569.451    569.539    569.451
 16.070    581.000    569.692     11.308    569.262    569.604    569.262    569.350    569.262
 16.170    566.279    569.493     -3.214    569.071    569.405    569.071    569.159    569.071
 16.270    555.634    569.293    -13.658    568.876    569.204    568.876    568.965    568.876
 16.370    561.000    569.090     -8.090    568.679    569.000    568.679    568.768    568.679
 16.470    530.000    568.885    -38.885    568.478    568.794    568.478    568.568    568.478
 16.570    567.000    568.677     -1.677    568.275    568.587    568.275    568.366    568.275
 16.670    566.000    568.469     -2.469    568.070    568.378    568.070    568.161    568.070
 16.770    567.000    568.259     -1.259    567.862    568.168    567.862    567.953    567.862
 16.870    570.045    568.046      1.999    567.651    567.954    567.651    567.743    567.651
 16.970    554.000    567.830    -13.830    567.437    567.737    567.437    567.530    567.437
 17.070    596.000    567.612     28.388    567.221    567.519    567.221    567.315    567.221
 17.170    567.000    567.393     -0.393    567.003    567.299    567.003    567.097    567.003
 17.270    565.035    567.171     -2.136    566.782    567.076    566.782    566.876    566.782
 17.370    585.969    566.947     19.022    566.558    566.851    566.558    566.654    566.558
 17.470    573.000    566.721      6.279    566.333    566.625    566.333    566.428    566.333
 17.570    531.000    566.493    -35.493    566.104    566.396    566.104    566.201    566.104
 17.670    551.000    566.265    -15.265    565.874    566.167    565.874    565.971    565.874
 17.770    545.000    566.033    -21.033    565.641    565.935    565.641    565.739    565.641
 17.870    594.081    565.799     28.282    565.406    565.701    565.406    565.505    565.406
 17.970    591.000    565.563     25.437    565.169    565.464    565.169    565.268    565.169
 18.070    574.000    565.325      8.675    564.929    565.225    564.929    565.029    564.929
 18.170    565.747    565.085      0.662    564.688    564.985    564.688    564.788    564.688
 18.270    560.000    564.844     -4.844    564.444    564.743    564.444    564.545    564.444
 18.370    546.383    564.601    -18.217    564.198    564.498    564.198    564.300    564.198
 18.470    570.000    564.356      5.644    563.950    564.253    563.950    564.053    563.950
 18.570    565.000    564.109      0.891    563.701    564.006    563.701    563.804    563.701
 18.670    531.078    563.861    -32.783    563.449    563.756    563.449    563.553    563.449
 18.770    599.886    563.611     36.275    563.195    563.505    563.195    563.300    563.195
 18.870    570.000    563.359      6.641    562.940    563.253    562.940    563.045    562.940
 18.970    562.000    563.106     -1.106    562.682    562.999    562.682    562.789    562.682
 19.070    535.472    562.851    -27.378    562.423    562.743    562.423    562.530    562.423
 19.170    561.000    562.594     -1.594    562.162    562.486    562.162    562.270    562.162
 19.270    553.000    562.336     -9.336    561.899    562.227    561.899    562.008    561.899
 19.370    551.587    562.077    -10.490    561.634    561.967    561.634    561.744    561.634
 19.470    541.000    561.816    -20.816    561.368    561.705    561.368    561.479    561.368
 19.570    595.662    561.554     34.108    561.100    561.442    561.100    561.212    561.100
 19.670    551.000    561.291    -10.291    560.830    561.178    560.830    560.943    560.830
 19.770    578.000    561.030     16.970    560.559    560.914    560.559    560.675    560.559
 19.870    538.000    560.766    -22.766    560.286    560.648    560.286    560.404    560.286
 19.970    551.000    560.499     -9.499    560.011    560.380    560.011    560.131    560.011
 20.070    582.000    560.231     21.769    559.736    560.111    559.736    559.856    559.736
 20.170    558.000    559.962     -1.962    559.458    559.841    559.458    559.579    559.458
 20.270    541.712    559.694    -17.982    559.179    559.571    559.179    559.302    559.179
 20.370    574.000    559.436     14.564    558.899    559.313    558.899    559.023    558.899
 20.470    573.000    559.175     13.825    558.618    559.050    558.618    558.742    558.618
 20.570    556.000    558.903     -2.903    558.335    558.778    558.335    558.460    558.335
 20.670    570.000    558.630     11.370    558.050    558.504    558.050    558.177    558.050
 20.770    542.000    558.357    -16.357    557.765    558.229    557.765    557.893    557.765
 20.870    516.770    558.083    -41.313    557.478    557.953    557.478    557.607    557.478
 20.970    548.000    557.808     -9.808    557.190    557.677    557.190    557.320    557.190
 21.070    573.000    557.533     15.467    556.900    557.401    556.900    557.033    556.900
 21.170    540.907    557.258    -16.351    556.610    557.124    556.610    556.743    556.610
 21.270    573.000    556.991     16.009    556.318    556.856    556.318    556.453    556.318
 21.370    564.000    556.800      7.200    556.025    556.663    556.025    556.162    556.025
 21.470    547.000    556.547     -9.547    555.732    556.409    555.732    555.870    555.732
 21.570    585.697    556.273     29.423    555.437    556.134    555.437    555.576    555.437
 21.670    555.000    555.999     -0.999    555.141    555.858    555.141    555.282    555.141
 21.770    545.000    555.725    -10.725    554.844    555.583    554.844    554.987    554.844
 21.870    524.109    555.454    -31.345    554.546    555.310    554.546    554.690    554.546
 21.970    572.000    555.204     16.796    554.247    555.058    554.247    554.393    554.247
 22.070    541.122    554.962    -13.840    553.947    554.814    553.947    554.095    553.947
 22.170    565.749    554.697     11.052    553.647    554.547    553.647    553.797    553.647
 22.270    573.000    554.431     18.569    553.345    554.279    553.345    553.497    553.345
 22.370    546.000    554.167     -8.167    553.043    554.014    553.043    553.197    553.043
 22.470    546.000    553.911     -7.911    552.740    553.756    552.740    552.895    552.740
 22.570    574.101    553.700     20.401    552.436    553.543    552.436    552.594    552.436
 22.670    511.000    553.467    -42.467    552.131    553.307    552.131    552.291    552.131
 22.770    549.623    553.223     -3.600    551.826    553.061    551.826    551.988    551.826
 22.870    531.000    552.984    -21.984    551.520    552.820    551.520    551.684    551.520
 22.970    542.000    552.756    -10.756    551.213    552.589    551.213    551.380    551.213
 23.070    631.000    552.540     78.460    550.905    552.371    550.905    551.075    550.905
 23.170    535.052    552.335    -17.282    550.597    552.163    550.597    550.770    550.597
 23.270    575.392    552.145     23.247    550.289    551.970    550.289    550.464    550.289
 23.370    543.000    551.977     -8.977    549.979    551.799    549.979    550.157    549.979
 23.470    560.000    551.836      8.164    549.670    551.656    549.670    549.851    549.670
 23.570    549.000    551.733     -2.733    549.359    551.549    549.359    549.543    549.359
 23.670    564.000    551.678     12.322    549.049    551.492    549.049    549.236    549.049
 23.770    553.000    551.692      1.308    548.737    551.502    548.737    548.928    548.737
 23.870    553.000    551.803      1.197    548.426    551.610    548.426    548.620    548.426
 23.970    555.000    552.064      2.936    548.113    551.867    548.113    548.312    548.113
 24.070    527.621    552.600    -24.979    547.801    552.401    547.801    548.003    547.801
 24.170    589.638    553.765     35.873    547.488    553.562    547.488    547.694    547.488
 24.270    600.564    556.541     44.023    547.175    556.336    547.175    547.385    547.175
 24.370    586.000    563.046     22.954    546.861    562.842    546.861    547.076    546.861
 24.470    593.000    576.310     16.690    546.547    576.110    546.547    546.767    546.547
 24.570    631.514    597.942     33.572    546.233    597.753    546.233    546.458    546.233
 24.670    607.000    623.750    -16.750    545.919    623.574    545.919    546.149    545.919
 24.770    622.000    640.914    -18.914    545.604    640.745    545.604    545.840    545.604
 24.870    608.552    636.693    -28.141    545.289    636.516    545.289    545.531    545.289
 24.970    651.000    614.579     36.421    544.974    614.380    544.974    545.222    544.974
 25.070    575.000    588.841    -13.841    544.659    588.617    544.659    544.914    544.659
 25.170    612.000    569.419     42.581    544.344    569.174    544.344    544.605    544.344
 25.270    611.000    558.122     52.878    544.029    557.862    544.029    544.297    544.029
 25.370    594.000    552.547     41.453    543.713    552.275    543.713    543.990    543.713
 25.470    577.948    549.897     28.052    543.397    549.614    543.397    543.683    543.397
 25.570    548.000    548.471     -0.471    543.082    548.178    543.082    543.376    543.082
 25.670    562.000    547.540     14.460    542.766    547.237    542.766    543.070    542.766
 25.770    563.000    546.845     16.155    542.450    546.531    542.450    542.765    542.450
 25.870    535.431    546.288    -10.858    542.135    545.964    542.135    542.461    542.135
 25.970    510.967    545.827    -34.860    541.819    545.490    541.819    542.157    541.819
 26.070    571.806    545.442     26.364    541.504    545.092    541.504    541.855    541.504
 26.170    611.000    545.119     65.881    541.188    544.754    541.188    541.553    541.188
 26.270    542.000    544.852     -2.852    540.873    544.472    540.873    541.253    540.873
 26.370    534.000    544.661    -10.661    540.557    544.264    540.557    540.954    540.557
 26.470    564.211    544.516     19.695    540.242    544.101    540.242    540.657    540.242
 26.570    584.685    544.402     40.283    539.927    543.967    539.927    540.362    539.927
 26.670    590.000    544.342     45.658    539.613    543.886    539.613    540.069    539.613
 26.770    553.947    544.349      9.597    539.298    543.869    539.298    539.779    539.298
 26.870    512.952    544.438    -31.486    538.984    543.931    538.984    539.491    538.984
 26.970    566.000    544.627     21.373    538.670    544.091    538.670    539.206    538.670
 27.070    533.000    544.934    -11.934    538.356    544.365    538.356    538.925    538.356
 27.170    552.000    545.404      6.596    538.042    544.798    538.042    538.647    538.042
 27.270    564.000    546.102     17.898    537.729    545.455    537.729    538.375    537.729
 27.370    593.000    547.121     45.879    537.416    546.428    537.416    538.108    537.416
 27.470    579.000    548.590     30.410    537.103    547.844    537.103    537.847    537.103
 27.570    564.000    550.949     13.051    536.791    550.144    536.791    537.594    536.791
 27.670    581.000    555.632     25.368    536.479    554.757    536.479    537.349    536.479
 27.770    551.000    567.457    -16.457    536.167    566.501    536.167    537.116    536.167
 27.870    555.914    598.309    -42.396    535.856    597.253    535.856    536.895    535.856
 27.970    620.012    666.209    -46.197    535.546    665.026    535.546    536.690    535.546
 28.070    780.000    778.591      1.409    535.235    777.252    535.235    536.504    535.235
 28.170    917.000    903.626     13.374    534.926    902.113    534.926    536.342    534.926
 28.270    942.501    965.248    -22.747    534.616    963.559    534.616    536.210    534.616
 28.370    873.734    913.296    -39.562    534.308    911.426    534.308    536.118    534.308
 28.470    773.000    801.295    -28.295    533.999    799.191    533.999    536.079    533.999
 28.570    701.180    714.480    -13.300    533.692    712.046    533.692    536.115    533.692
 28.670    688.000    696.875     -8.875    533.384    693.984    533.384    536.261    533.384
 28.770    692.000    743.741    -51.741    533.078    740.221    533.078    536.579    533.078
 28.870    790.123    814.296    -24.173    532.772    809.894    532.772    537.161    532.772
 28.970    855.000    847.639      7.361    532.466    841.962    532.466    538.146    532.466
 29.070    822.000    807.724     14.276    532.161    800.192    532.161    539.707    532.161
 29.170    682.000    725.967    -43.967    531.857    715.810    531.857    542.027    531.857
 29.270    682.505    650.875     31.631    531.554    637.195    531.554    545.241    531.554
 29.370    613.000    604.316      8.684    531.251    586.258    531.251    549.313    531.251
 29.470    621.000    583.485     37.515    530.948    560.613    530.948    553.820    530.948
 29.570    566.000    576.508    -10.508    530.647    549.480    530.647    557.673    530.647
 29.670    568.000    573.444     -5.444    530.346    544.537    530.346    559.252    530.346
 29.770    598.000    569.430     28.570    530.046    541.875    530.046    557.598    530.046
 29.870    543.655    563.833    -20.178    529.747    540.140    529.747    553.438    529.747
 29.970    521.743    557.833    -36.089    529.448    538.914    529.448    548.365    529.448
 30.070    610.000    552.496     57.504    529.150    538.064    529.150    543.581    529.150
 30.170    570.000    548.321     21.679    528.853    537.564    528.853    539.607    528.853
 30.270    554.097    545.505      8.592    528.557    537.525    528.557    536.534    528.557
 30.370    581.825    544.381     37.444    528.262    538.388    528.262    534.250    528.262
 30.470    598.000    545.947     52.053    527.967    541.332    527.967    532.575    527.967
 30.570    547.769    552.227     -4.457    527.673    548.556    527.673    531.331    527.673
 30.670    603.000    565.492     37.508    527.380    562.474    527.380    530.375    527.380
 30.770    584.206    585.583     -1.377    527.088    583.029    527.088    529.604    527.088
 30.870    609.000    606.475      2.525    526.797    604.266    526.797    528.954    526.797
 30.970    612.000    615.993     -3.993    526.507    614.059    526.507    528.384    526.507
 31.070    626.000    606.081     19.919    526.218    604.381    526.218    527.871    526.218
 31.170    558.542    584.209    -25.668    525.929    582.708    525.929    527.401    525.929
 31.270    552.000    562.547    -10.547    525.642    561.210    525.642    526.962    525.642
 31.370    537.000    547.360    -10.360    525.355    546.158    525.355    526.549    525.355
 31.470    559.000    538.922     20.078    525.070    537.831    525.070    526.157    525.070
 31.570    497.000    534.865    -37.865    524.785    533.867    524.785    525.781    524.785
 31.670    513.000    532.937    -19.937    524.502    532.018    524.502    525.419    524.502
 31.770    490.809    531.889    -41.080    524.219    531.037    524.219    525.069    524.219
 31.870    555.000    531.209     23.791    523.937    530.417    523.937    524.729    523.937
 31.970    546.000    530.724     15.276    523.657    529.983    523.657    524.397    523.657
 32.070    516.000    530.379    -14.379    523.377    529.683    523.377    524.072    523.377
 32.170    511.931    530.150    -18.219    523.099    529.494    523.099    523.754    523.099
 32.270    543.656    530.030     13.626    522.821    529.409    522.821    523.441    522.821
 32.370    567.000    530.019     36.981    522.545    529.429    522.545    523.133    522.545
 32.470    571.000    530.125     40.875    522.270    529.563    522.270    522.830    522.270
 32.570    565.289    530.364     34.926    521.996    529.828    521.996    522.531    521.996
 32.670    563.000    530.762     32.238    521.723    530.248    521.723    522.235    521.723
 32.770    588.000    531.357     56.643    521.451    530.863    521.451    521.943    521.451
 32.870    542.364    532.204     10.160    521.180    531.728    521.180    521.654    521.180
 32.970    516.552    533.384    -16.832    520.910    532.925    520.910    521.368    520.910
 33.070    564.059    535.025     29.034    520.642    534.581    520.642    521.084    520.642
 33.170    573.000    537.356     35.644    520.375    536.925    520.375    520.803    520.375
 33.270    549.000    540.905      8.095    520.108    540.487    520.108    520.525    520.108
 33.370    541.000    547.122     -6.122    519.843    546.714    519.843    520.248    519.843
 33.470    568.000    559.850      8.150    519.580    559.449    519.580    519.974    519.580
 33.570    644.000    587.502     56.498    519.317    587.106    519.317    519.702    519.317
 33.670    673.000    643.508     29.492    519.056    643.110    519.056    519.432    519.056
 33.770    713.908    740.176    -26.268    518.796    739.770    518.796    519.164    518.796
 33.870    869.000    873.835     -4.835    518.537    873.419    518.537    518.898    518.537
 33.970    991.000   1008.078    -17.078    518.279   1007.657    518.279    518.633    518.279
 34.070   1096.474   1073.873     22.601    518.023   1073.468    518.023    518.371    518.023
 34.170   1035.367   1024.379     10.989    517.767   1024.006    517.767    518.110    517.767
 34.270    883.000    896.326    -13.326    517.513    895.983    517.513    517.851    517.513
 34.370    728.000    759.186    -31.186    517.261    758.861    517.261    517.594    517.261
 34.470    632.000    655.162    -23.162    517.010    654.841    517.010    517.338    517.010
 34.570    582.806    592.404     -9.598    516.759    592.085    516.759    517.084    516.759
 34.670    558.000    560.263     -2.263    516.511    559.944    516.511    516.832    516.511
 34.770    498.000    545.017    -47.017    516.263    544.699    516.263    516.582    516.263
 34.870    535.000    537.399     -2.399    516.017    537.083    516.017    516.332    516.017
 34.970    552.000    532.931     19.069    515.772    532.618    515.772    516.085    515.772
 35.070    564.254    529.858     34.396    515.529    529.547    515.529    515.839    515.529
 35.170    497.681    527.538    -29.856    515.287    527.229    515.287    515.595    515.287
 35.270    551.000    525.703     25.297    515.046    525.397    515.046    515.352    515.046
 35.370    533.000    524.212      8.788    514.807    523.907    514.807    515.111    514.807
 35.470    535.000    522.974     12.026    514.569    522.671    514.569    514.872    514.569
 35.570    509.000    521.929    -12.929    514.332    521.627    514.332    514.634    514.332
 35.670    505.000    521.031    -16.031    514.097    520.731    514.097    514.397    514.097
 35.770    523.000    520.250      2.750    513.863    519.951    513.863    514.163    513.863
 35.870    488.000    519.562    -31.562    513.631    519.263    513.631    513.929    513.631
 35.970    554.000    518.950     35.050    513.400    518.652    513.400    513.698    513.400
 36.070    553.418    518.401     35.017    513.170    518.103    513.170    513.467    513.170
 36.170    500.000    517.905    -17.905    512.942    517.608    512.942    513.239    512.942
 36.270    471.000    517.455    -46.455    512.715    517.157    512.715    513.012    512.715
 36.370    492.328    517.045    -24.717    512.489    516.748    512.489    512.786    512.489
 36.470    493.596    516.673    -23.077    512.266    516.376    512.266    512.562    512.266
 36.570    501.000    516.337    -15.337    512.043    516.040    512.043    512.340    512.043
 36.670    494.000    516.038    -22.038    511.822    515.740    511.822    512.119    511.822
 36.770    541.028    515.781     25.247    511.602    515.483    511.602    511.900    511.602
 36.870    488.000    515.584    -27.584    511.384    515.286    511.384    511.683    511.384
 36.970    476.000    515.496    -39.496    511.168    515.198    511.168    511.467    511.168
 37.070    493.000    515.640    -22.640    510.952    515.341    510.952    511.252    510.952
 37.170    497.000    516.260    -19.260    510.739    515.960    510.739    511.039    510.739
 37.270    509.000    517.719     -8.719    510.526    517.418    510.526    510.828    510.526
 37.370    559.000    520.334     38.666    510.316    520.033    510.316    510.618    510.316
 37.470    504.000    524.032    -20.032    510.106    523.730    510.106    510.410    510.106
 37.570    539.238    527.955     11.283    509.899    527.653    509.899    510.204    509.899
 37.670    529.780    530.420     -0.640    509.692    530.118    509.692    509.999    509.692
 37.770    527.000    530.017     -3.017    509.488    529.716    509.488    509.795    509.488
 37.870    531.000    527.114      3.886    509.285    526.813    509.285    509.594    509.285
 37.970    521.000    523.257     -2.257    509.083    522.956    509.083    509.394    509.083
 38.070    525.000    519.650      5.350    508.883    519.348    508.883    509.195    508.883
 38.170    524.013    516.754      7.259    508.684    516.449    508.684    508.998    508.684
 38.270    545.221    514.642     30.579    508.487    514.333    508.487    508.803    508.487
 38.370    526.878    513.202     13.676    508.291    512.888    508.291    508.609    508.291
 38.470    524.000    512.249     11.751    508.097    511.931    508.097    508.417    508.097
 38.570    507.961    511.615     -3.654    507.905    511.294    507.905    508.227    507.905
 38.670    478.000    511.175    -33.175    507.714    510.851    507.714    508.038    507.714
 38.770    503.744    510.841     -7.097    507.524    510.515    507.524    507.851    507.524
 38.870    530.709    510.565     20.144    507.337    510.236    507.337    507.666    507.337
 38.970    519.000    510.321      8.679    507.150    509.990    507.150    507.482    507.150
 39.070    514.000    510.098      3.902    506.966    509.764    506.966    507.300    506.966
 39.170    527.000    509.889     17.111    506.782    509.552    506.782    507.120    506.782
 39.270    509.000    509.693     -0.693    506.601    509.353    506.601    506.941    506.601
 39.370    512.000    509.507      2.493    506.421    509.164    506.421    506.764    506.421
 39.470    513.000    509.330      3.670    506.242    508.984    506.242    506.589    506.242
 39.570    526.690    509.161     17.529    506.066    508.812    506.066    506.415    506.066
 39.670    495.000    509.001    -14.001    505.890    508.649    505.890    506.243    505.890
 39.770    491.000    508.848    -17.848    505.717    508.493    505.717    506.072    505.717
 39.870    505.000    508.704     -3.704    505.544    508.345    505.544    505.904    505.544
 39.970    508.000    508.567     -0.567    505.374    508.204    505.374    505.737    505.374
 40.070    485.000    508.438    -23.438    505.205    508.071    505.205    505.572    505.205
 40.170    489.000    508.317    -19.317    505.038    507.947    505.038    505.408    505.038
 40.270    514.448    508.206      6.242    504.872    507.832    504.872    505.246    504.872
 40.370    479.000    508.105    -29.105    504.708    507.726    504.708    505.086    504.708
 40.470    538.256    508.014     30.242    504.545    507.631    504.545    504.928    504.545
 40.570    523.038    507.935     15.103    504.384    507.549    504.384    504.771    504.384
 40.670    531.000    507.871     23.129    504.225    507.479    504.225    504.617    504.225
 40.770    512.000    507.822      4.178    504.067    507.426    504.067    504.464    504.067
 40.870    488.710    507.791    -19.081    503.911    507.391    503.911    504.312    503.911
 40.970    525.305    507.783     17.522    503.757    507.377    503.757    504.163    503.757
 41.070    538.000    507.801     30.199    503.604    507.391    503.604    504.015    503.604
 41.170    493.343    507.852    -14.509    503.452    507.436    503.452    503.869    503.452
 41.270    521.000    507.943     13.057    503.303    507.522    503.303    503.725    503.303
 41.370    524.972    508.086     16.886    503.155    507.660    503.155    503.582    503.155
 41.470    481.840    508.296    -26.456    503.008    507.864    503.008    503.442    503.008
 41.570    558.000    508.597     49.403    502.863    508.159    502.863    503.303    502.863
 41.670    477.000    509.033    -32.033    502.720    508.589    502.720    503.166    502.720
 41.770    445.000    509.701    -64.701    502.578    509.251    502.578    503.031    502.578
 41.870    548.619    510.837     37.782    502.438    510.381    502.438    502.897    502.438
 41.970    505.000    512.996     -7.996    502.300    512.534    502.300    502.766    502.300
 42.070    495.003    517.297    -22.293    502.163    516.829    502.163    502.636    502.163
 42.170    515.000    525.554    -10.554    502.028    525.083    502.028    502.508    502.028
 42.270    516.849    539.878    -23.029    501.895    539.406    501.895    502.382    501.895
 42.370    546.000    561.403    -15.403    501.763    560.933    501.763    502.258    501.763
 42.470    561.031    588.373    -27.342    501.632    587.909    501.632    502.136    501.632
 42.570    655.307    614.473     40.834    501.504    614.015    501.504    502.016    501.504
 42.670    603.000    629.411    -26.411    501.377    628.954    501.377    501.898    501.377
 42.770    611.265    625.329    -14.064    501.251    624.864    501.251    501.782    501.251
 42.870    577.000    604.625    -27.625    501.127    604.142    501.127    501.667    501.127
 42.970    592.000    577.104     14.896    501.005    576.598    501.005    501.555    501.005
 43.070    531.000    551.717    -20.717    500.885    551.186    500.885    501.445    500.885
 43.170    506.000    532.863    -26.863    500.766    532.310    500.766    501.337    500.766
 43.270    531.000    520.950     10.050    500.648    520.378    500.648    501.230    500.648
 43.370    523.341    514.286      9.056    500.533    513.698    500.533    501.126    500.533
 43.470    534.579    510.802     23.777    500.418    510.200    500.418    501.024    500.418
 43.570    497.000    508.957    -11.957    500.306    508.341    500.306    500.924    500.306
 43.670    492.000    507.880    -15.880    500.195    507.250    500.195    500.827    500.195
 43.770    485.000    507.162    -22.162    500.086    506.518    500.086    500.731    500.086
 43.870    500.000    506.633     -6.633    499.978    505.975    499.978    500.638    499.978
 43.970    490.692    506.222    -15.530    499.872    505.548    499.872    500.547    499.872
 44.070    491.000    505.894    -14.894    499.767    505.204    499.767    500.458    499.767
 44.170    479.000    505.628    -26.628    499.664    504.921    499.664    500.372    499.664
 44.270    534.000    505.413     28.587    499.563    504.688    499.563    500.288    499.563
 44.370    502.000    505.238     -3.238    499.463    504.495    499.463    500.207    499.463
 44.470    481.000    505.096    -24.096    499.365    504.334    499.365    500.128    499.365
 44.570    507.000    504.983      2.017    499.269    504.200    499.269    500.052    499.269
 44.670    514.000    504.895      9.105    499.174    504.091    499.174    499.978    499.174
 44.770    464.000    504.828    -40.828    499.081    504.002    499.081    499.908    499.081
 44.870    538.124    504.782     33.342    498.989    503.932    498.989    499.840    498.989
 44.970    506.000    504.755      1.245    498.899    503.879    498.899    499.775    498.899
 45.070    490.898    504.745    -13.846    498.810    503.842    498.810    499.713    498.810
 45.170    515.558    504.752     10.805    498.723    503.821    498.723    499.655    498.723
 45.270    485.810    504.777    -18.967    498.638    503.816    498.638    499.599    498.638
 45.370    477.000    504.819    -27.819    498.554    503.825    498.554    499.548    498.554
 45.470    509.000    504.878      4.122    498.472    503.850    498.472    499.500    498.472
 45.570    488.000    504.956    -16.956    498.391    503.892    498.391    499.456    498.391
 45.670    527.278    505.053     22.225    498.312    503.949    498.312    499.416    498.312
 45.770    497.000    505.171     -8.171    498.235    504.025    498.235    499.380    498.235
 45.870    508.000    505.311      2.689    498.159    504.121    498.159    499.349    498.159
 45.970    510.000    505.476      4.524    498.085    504.238    498.085    499.323    498.085
 46.070    509.187    505.669      3.517    498.012    504.378    498.012    499.302    498.012
 46.170    517.000    505.894     11.106    497.941    504.546    497.941    499.288    497.941
 46.270    473.955    506.154    -32.199    497.871    504.745    497.871    499.279    497.871
 46.370    506.000    506.456     -0.456    497.803    504.981    497.803    499.277    497.803
 46.470    546.701    506.808     39.894    497.736    505.260    497.736    499.283    497.736
 46.570    478.000    507.219    -29.219    497.671    505.592    497.671    499.297    497.671
 46.670    511.496    507.705      3.791    497.608    505.991    497.608    499.320    497.608
 46.770    492.000    508.292    -16.292    497.546    506.483    497.546    499.353    497.546
 46.870    535.000    509.033     25.967    497.485    507.118    497.485    499.398    497.485
 46.970    512.412    510.050      2.363    497.426    508.018    497.426    499.455    497.426
 47.070    514.000    511.609      2.391    497.369    509.448    497.369    499.527    497.369
 47.170    487.000    514.230    -27.230    497.313    511.923    497.313    499.615    497.313
 47.270    486.000    518.770    -32.770    497.258    516.298    497.258    499.722    497.258
 47.370    495.964    526.327    -30.363    497.206    523.668    497.206    499.851    497.206
 47.470    534.000    537.807     -3.807    497.154    534.933    497.154    500.006    497.154
 47.570    567.000    553.154     13.846    497.104    550.034    497.104    500.191    497.104
 47.670    519.000    570.520    -51.520    497.056    567.120    497.056    500.411    497.056
 47.770    633.000    585.804     47.196    497.009    582.083    497.009    500.674    497.009
 47.870    560.051    593.517    -33.467    496.964    589.433    496.964    500.989    496.964
 47.970    599.000    590.406      8.594    496.920    585.903    496.920    501.369    496.920
 48.070    573.000    578.710     -5.710    496.878    573.712    496.878    501.831    496.878
 48.170    553.000    563.783    -10.783    496.837    558.185    496.837    502.403    496.837
 48.270    547.370    550.258     -2.887    496.797    543.908    496.797    503.127    496.797
 48.370    592.000    540.624     51.376    496.759    533.298    496.759    504.072    496.759
 48.470    550.000    535.468     14.532    496.723    526.834    496.723    505.349    496.723
 48.570    535.000    534.280      0.720    496.688    523.832    496.688    507.130    496.688
 48.670    531.000    536.281     -5.281    496.654    523.269    496.654    509.662    496.654
 48.770    584.000    540.960     43.040    496.622    524.306    496.622    513.272    496.622
 48.870    507.376    548.224    -40.848    496.591    526.466    496.591    518.345    496.591
 48.970    559.000    558.312      0.688    496.562    529.612    496.562    525.258    496.562
 49.070    591.000    571.662     19.338    496.534    533.921    496.534    534.270    496.534
 49.170    582.875    588.919     -6.044    496.508    540.062    496.508    545.359    496.508
 49.270    638.000    611.369     26.631    496.483    549.847    496.483    557.996    496.483
 49.370    608.000    642.204    -34.204    496.459    567.807    496.459    570.843    496.459
 49.470    672.308    689.061    -16.753    496.437    603.942    496.437    581.532    496.437
 49.570    784.000    767.602     16.398    496.416    676.850    496.416    587.124    496.416
 49.670    972.000    903.440     68.560    496.397    814.071    496.397    585.690    496.397
 49.770   1085.681   1126.094    -40.413    496.379   1044.577    496.379    577.777    496.379
 49.870   1511.000   1450.194     60.806    496.363   1380.469    496.363    565.931    496.363
 49.970   1903.000   1849.865     53.135    496.347   1793.085    496.347    552.958    496.347
 50.070   2178.000   2242.460    -64.460    496.334   2197.848    496.334    540.813    496.334
 50.170   2456.000   2501.447    -45.447    496.321   2467.242    496.321    530.489    496.321
 50.270   2614.000   2517.106     96.894    496.310   2491.212    496.310    522.289    496.310
 50.370   2208.000   2278.668    -70.668    496.300   2259.035    496.300    516.108    496.300
 50.470   1879.000   1885.136     -6.136    496.292   1870.006    496.292    511.627    496.292
 50.570   1484.000   1467.899     16.101    496.285   1455.913    496.285    508.457    496.285
 50.670   1062.388   1121.141    -58.753    496.279   1111.332    496.279    506.230    496.279
 50.770    922.954    882.005     40.949    496.275    873.727    496.275    504.651    496.275
 50.870    703.792    742.210    -38.418    496.272    735.046    496.272    503.502    496.272
 50.970    627.167    671.443    -44.276    496.270    665.125    496.270    502.638    496.270
 51.070    672.000    637.641     34.359    496.270    631.986    496.270    501.966    496.270
 51.170    615.992    617.819     -1.827    496.271    612.699    496.271    501.427    496.271
 51.270    623.000    600.695     22.305    496.273    596.011    496.273    500.987    496.273
 51.370    585.897    583.725      2.172    496.277    579.402    496.277    500.623    496.277
 51.470    560.000    568.074     -8.074    496.281    564.055    496.281    500.318    496.281
 51.570    508.000    555.225    -47.225    496.288    551.463    496.288    500.061    496.288
 51.670    553.000    545.814      7.186    496.295    542.271    496.295    499.846    496.295
 51.770    560.000    539.622     20.378    496.304    536.267    496.304    499.664    496.304
 51.870    492.923    535.959    -43.036    496.313    532.766    496.313    499.511    496.313
 51.970    558.000    534.076     23.924    496.325    531.021    496.325    499.382    496.325
 52.070    591.000    533.412     57.588    496.337    530.476    496.337    499.276    496.337
 52.170    571.000    533.670     37.330    496.351    530.834    496.351    499.188    496.351
 52.270    572.000    534.796     37.204    496.366    532.047    496.366    499.116    496.366
 52.370    564.000    537.001     26.999    496.382    534.324    496.382    499.060    496.382
 52.470    526.203    540.911    -14.709    496.399    538.295    496.399    499.016    496.399
 52.570    557.000    547.931      9.069    496.418    545.364    496.418    498.985    496.418
 52.670    519.000    560.817    -41.817    496.437    558.290    496.437    498.965    496.437
 52.770    588.638    584.249      4.389    496.458    581.751    496.458    498.954    496.458
 52.870    611.563    624.849    -13.287    496.480    622.373    496.480    498.953    496.480
 52.970    694.000    689.862      4.138    496.504    687.399    496.504    498.961    496.504
 53.070    823.000    783.971     39.029    496.528    781.514    496.528    498.977    496.528
 53.170    895.000    904.760     -9.760    496.554    902.305    496.554    499.001    496.554
 53.270   1041.590   1038.365      3.225    496.581   1035.909    496.581    499.033    496.581
 53.370   1160.496   1157.519      2.977    496.609   1155.060    496.609    499.072    496.609
 53.470   1224.885   1226.514     -1.629    496.638   1224.051    496.638    499.118    496.638
 53.570   1176.000   1219.157    -43.157    496.668   1216.684    496.668    499.171    496.668
 53.670   1178.457   1138.768     39.689    496.699   1136.274    496.699    499.231    496.699
 53.770    979.000   1015.088    -36.088    496.732   1012.559    496.732    499.298    496.732
 53.870    926.298    882.942     43.356    496.766    880.368    496.766    499.373    496.766
 53.970    746.000    767.118    -21.118    496.800    764.489    496.800    499.454    496.800
 54.070    716.595    679.102     37.493    496.836    676.413    496.836    499.543    496.836
 54.170    659.000    619.654     39.346    496.873    616.899    496.873    499.639    496.873
 54.270    596.000    583.328     12.672    496.911    580.502    496.911    499.743    496.911
 54.370    545.816    562.843    -17.028    496.950    559.942    496.950    499.856    496.950
 54.470    523.437    551.907    -28.470    496.990    548.923    496.990    499.976    496.990
 54.570    536.204    546.225    -10.021    497.031    543.152    497.031    500.106    497.031
 54.670    569.000    543.332     25.668    497.074    540.162    497.074    500.245    497.074
 54.770    530.000    541.991    -11.991    497.117    538.715    497.117    500.394    497.117
 54.870    563.000    541.642     21.358    497.161    538.250    497.161    500.554    497.161
 54.970    584.000    542.053     41.947    497.207    538.534    497.207    500.726    497.207
 55.070    540.746    543.141     -2.394    497.253    539.485    497.253    500.910    497.253
 55.170    571.000    544.898     26.102    497.300    541.092    497.300    501.107    497.300
 55.270    584.000    547.366     36.634    497.349    543.396    497.349    501.319    497.349
 55.370    520.611    550.638    -30.027    497.398    546.489    497.398    501.547    497.398
 55.470    604.000    554.881     49.119    497.448    550.538    497.448    501.793    497.448
 55.570    582.000    560.419     21.581    497.500    555.861    497.500    502.058    497.500
 55.670    605.050    567.917     37.133    497.552    563.125    497.552    502.344    497.552
 55.770    611.000    578.824     32.176    497.605    573.774    497.605    502.654    497.605
 55.870    561.108    596.208    -35.100    497.659    590.875    497.659    502.991    497.659
 55.970    591.747    626.094    -34.347    497.714    620.446    497.714    503.357    497.714
 56.070    648.000    679.016    -31.016    497.770    673.017    497.770    503.757    497.770
 56.170    748.000    770.834    -22.834    497.827    764.444    497.827    504.195    497.827
 56.270    865.000    921.096    -56.096    497.885    914.269    497.885    504.676    497.885
 56.370   1090.000   1147.281    -57.281    497.944   1139.967    497.944    505.206    497.944
 56.470   1349.000   1454.860   -105.860    498.004   1447.008    498.004    505.792    498.004
 56.570   1768.609   1825.900    -57.291    498.064   1817.461    498.064    506.444    498.064
 56.670   2264.775   2210.807     53.968    498.126   2201.728    498.126    507.171    498.126
 56.770   2481.000   2528.603    -47.603    498.188   2518.828    498.188    507.987    498.188
 56.870   2651.000   2686.667    -35.667    498.251   2676.119    498.251    508.906    498.251
 56.970   2537.058   2629.424    -92.366    498.315   2617.982    498.315    509.950    498.315
 57.070   2399.000   2379.613     19.387    498.380   2367.097    498.380    511.144    498.380
 57.170   2041.000   2019.208     21.792    498.446   2005.390    498.446    512.522    498.446
 57.270   1563.728   1637.992    -74.264    498.512   1622.599    498.512    514.135    498.512
 57.370   1320.000   1301.037     18.963    498.580   1283.742    498.580    516.057    498.580
 57.470   1019.000   1040.730    -21.730    498.648   1021.101    498.648    518.407    498.648
 57.570    879.000    861.693     17.307    498.717    839.128    498.717    521.368    498.717
 57.670    746.000    751.421     -5.421    498.786    725.034    498.786    525.224    498.786
 57.770    729.000    691.534     37.466    498.857    660.013    498.857    530.405    498.857
 57.870    668.000    665.845      2.155    498.928    627.270    498.928    537.516    498.928
 57.970    655.000    664.025     -9.025    499.000    615.672    499.000    547.355    499.000
 58.070    703.714    681.804     21.909    499.073    619.986    499.073    560.882    499.073
 58.170    735.000    719.307     15.693    499.146    639.314    499.146    579.121    499.146
 58.270    746.000    778.678    -32.678    499.221    674.897    499.221    602.972    499.221
 58.370    857.000    861.675     -4.675    499.296    727.969    499.296    632.961    499.296
 58.470    987.000    967.357     19.643    499.371    797.773    499.371    668.907    499.371
 58.570   1045.971   1090.351    -44.381    499.448    880.228    499.448    709.519    499.448
 58.670   1167.000   1220.028    -53.028    499.525    967.631    499.525    751.874    499.525
 58.770   1393.510   1341.741     51.769    499.602   1050.429    499.602    790.879    499.602
 58.870   1487.800   1440.044     47.756    499.681   1120.300    499.681    819.406    499.681
 58.970   1557.949   1501.327     56.622    499.760   1170.730    499.760    830.358    499.760
 59.070   1527.000   1515.890     11.110    499.840   1195.214    499.840    820.537    499.840
 59.170   1506.000   1482.285     23.715    499.920   1189.354    499.920    792.887    499.920
 59.270   1453.000   1410.987     42.013    500.001   1156.621    500.001    754.405    500.001
 59.370   1381.000   1321.260     59.740    500.083   1109.101    500.083    712.267    500.083
 59.470   1289.882   1233.398     56.484    500.165   1061.892    500.165    671.670    500.165
 59.570   1220.000   1164.654     55.346    500.248   1029.231    500.248    635.634    500.248
 59.670   1176.921   1129.913     47.008    500.331   1024.644    500.331    605.518    500.331
 59.770   1156.233   1140.865     15.369    500.415   1059.597    500.415    581.548    500.415
 59.870   1296.000   1201.083     94.917    500.500   1138.164    500.500    563.229    500.500
 59.970   1359.000   1301.129     57.871    500.585   1251.801    500.585    549.669    500.585
 60.070   1407.000   1417.052    -10.052    500.671   1377.589    500.671    539.851    500.671
 60.170   1561.000   1513.089     47.911    500.757   1480.743    500.757    532.809    500.757
 60.270   1594.251   1551.202     43.049    500.844   1524.038    500.844    527.736    500.844
 60.370   1441.692   1509.164    -67.473    500.931   1485.857    500.931    524.021    500.931
 60.470   1364.173   1394.121    -29.949    501.019   1373.758    501.019    521.230    501.019
 60.570   1275.000   1235.515     39.485    501.107   1217.453    501.107    519.076    501.107
 60.670   1194.000   1067.258    126.742    501.196   1051.027    501.196    517.378    501.196
 60.770    864.241    915.670    -51.429    501.285    900.910    501.285    516.025    501.285
 60.870    808.000    795.467     12.533    501.375    781.885    501.375    514.949    501.375
 60.970    724.000    710.657     13.343    501.466    698.007    501.466    514.112    501.466
 61.070    668.000    658.161      9.839    501.556    646.222    501.556    513.489    501.556
 61.170    622.000    632.326    -10.326    501.648    620.900    501.648    513.062    501.648
 61.270    593.483    628.693    -35.210    501.739    617.596    501.739    512.815    501.739
 61.370    662.000    646.056     15.944    501.831    635.128    501.831    512.727    501.831
 61.470    679.000    686.630     -7.630    501.924    675.738    501.924    512.766    501.924
 61.570    767.000    754.475     12.525    502.017    743.533    502.017    512.885    502.017
 61.670    825.000    852.552    -27.552    502.110    841.547    502.110    513.012    502.110
 61.770    973.476    979.098     -5.621    502.204    968.106    502.204    513.059    502.204
 61.870   1093.966   1124.398    -30.432    502.298   1113.594    502.298    512.938    502.298
 61.970   1225.000   1269.166    -44.166    502.392   1258.776    502.392    512.600    502.392
 62.070   1414.000   1385.750     28.250    502.487   1375.993    502.487    512.064    502.487
 62.170   1380.000   1444.716    -64.716    502.582   1435.743    502.582    511.398    502.582
 62.270   1362.000   1428.191    -66.191    502.677   1420.069    502.677    510.685    502.677
 62.370   1203.000   1341.071   -138.071    502.773   1333.786    502.773    509.990    502.773
 62.470   1176.000   1207.497    -31.497    502.869   1200.979    502.869    509.357    502.869
 62.570   1034.000   1057.243    -23.243    502.966   1051.397    502.966    508.808    502.966
 62.670    896.352    914.966    -18.614    503.062    909.688    503.062    508.350    503.062
 62.770    828.124    795.972     32.151    503.159    791.165    503.159    507.981    503.159
 62.870    722.000    706.171     15.829    503.257    701.748    503.257    507.692    503.257
 62.970    625.000    644.266    -19.266    503.354    640.157    503.354    507.471    503.354
 63.070    594.000    604.920    -10.920    503.452    601.070    503.452    507.305    503.452
 63.170    602.257    581.695     20.563    503.550    578.060    503.550    507.184    503.550
 63.270    555.070    569.006    -13.936    503.648    565.555    503.648    507.096    503.648
 63.370    557.886    562.978     -5.092    503.747    559.685    503.747    507.034    503.747
 63.470    523.466    561.536    -38.070    503.845    558.383    503.845    506.992    503.845
 63.570    570.524    564.177      6.347    503.944    561.145    503.944    506.966    503.944
 63.670    602.730    571.686     31.043    504.044    568.764    504.044    506.952    504.044
 63.770    641.000    585.880     55.120    504.143    583.053    504.143    506.949    504.143
 63.870    654.000    609.231     44.769    504.242    606.488    504.242    506.955    504.242
 63.970    643.000    644.260     -1.260    504.342    641.589    504.342    506.969    504.342
 64.070    726.000    692.599     33.401    504.442    689.988    504.442    506.990    504.442
 64.170    748.037    753.859     -5.822    504.542    751.301    504.542    507.017    504.542
 64.270    799.299    824.566    -25.268    504.642    822.053    504.642    507.050    504.642
 64.370    903.000    897.482      5.518    504.742    895.013    504.742    507.088    504.742
 64.470    965.000    961.852      3.148    504.842    959.431    504.842    507.131    504.842
 64.570    949.122   1005.687    -56.565    504.943   1003.320    504.943    507.179    504.943
 64.670    978.000   1020.441    -42.441    505.043   1018.137    505.043    507.231    505.043
 64.770   1047.652   1004.848     42.804    505.144   1002.613    505.144    507.286    505.144
 64.870   1010.000    964.437     45.563    505.244    962.273    505.244    507.345    505.244
 64.970    936.000    908.534     27.466    505.345    906.436    505.345    507.408    505.345
 65.070    850.000    847.177      2.823    505.446    845.138    505.446    507.474    505.446
 65.170    828.103    788.387     39.716    505.547    786.400    505.547    507.542    505.547
 65.270    703.561    736.666    -33.105    505.648    734.720    505.648    507.614    505.648
 65.370    678.000    693.300    -15.300    505.748    691.386    505.748    507.688    505.748
 65.470    659.348    657.829      1.520    505.849    655.940    505.849    507.765    505.849
 65.570    654.000    629.366     24.634    505.950    627.496    505.950    507.844    505.950
 65.670    564.000    607.055    -43.055    506.051    605.198    506.051    507.926    506.051
 65.770    556.000    590.056    -34.056    506.152    588.210    506.152    508.009    506.152
 65.870    569.000    577.560     -8.560    506.253    575.724    506.253    508.096    506.253
 65.970    533.000    568.819    -35.819    506.354    566.992    506.354    508.184    506.354
 66.070    581.000    563.157     17.843    506.454    561.339    506.454    508.274    506.454
 66.170    554.000    559.976     -5.976    506.555    558.165    506.555    508.366    506.555
 66.270    597.815    558.772     39.043    506.656    556.966    506.656    508.461    506.656
 66.370    573.123    559.169     13.954    506.756    557.368    506.756    508.557    506.756
 66.470    535.458    560.963    -25.505    506.857    559.164    506.857    508.655    506.857
 66.570    590.664    564.180     26.484    506.957    562.382    506.957    508.756    506.957
 66.670    575.008    569.186      5.822    507.057    567.387    507.057    508.858    507.057
 66.770    573.201    576.889     -3.689    507.157    575.085    507.157    508.962    507.157
 66.870    547.000    589.076    -42.076    507.257    587.265    507.257    509.068    507.257
 66.970    572.000    608.890    -36.890    507.357    607.069    507.357    509.176    507.357
 67.070    613.000    641.353    -28.353    507.457    639.518    507.457    509.287    507.457
 67.170    663.000    693.682    -30.682    507.556    691.831    507.556    509.399    507.556
 67.270    732.000    775.025    -43.025    507.656    773.154    507.656    509.514    507.656
 67.370    896.185    895.164      1.021    507.755    893.270    507.755    509.630    507.755
 67.470   1117.986   1061.959     56.026    507.854   1060.043    507.854    509.750    507.854
 67.570   1345.000   1277.758     67.242    507.953   1275.824    507.953    509.871    507.953
 67.670   1561.122   1535.567     25.555    508.051   1533.624    508.051    509.995    508.051
 67.770   1742.000   1816.136    -74.136    508.150   1814.195    508.150    510.122    508.150
 67.870   2050.000   2087.044    -37.044    508.248   2085.120    508.248    510.252    508.248
 67.970   2303.324   2305.263     -1.938    508.346   2303.368    508.346    510.385    508.346
 68.070   2464.000   2426.231     37.769    508.443   2424.370    508.443    510.521    508.443
 68.170   2517.000   2420.751     96.249    508.541   2418.912    508.541    510.660    508.541
 68.270   2256.265   2290.331    -34.066    508.638   2288.486    508.638    510.803    508.638
 68.370   2122.000   2066.248     55.752    508.735   2064.359    508.735    510.950    508.735
 68.470   1874.000   1793.432     80.568    508.831   1791.466    508.831    511.102    508.831
 68.570   1567.000   1514.193     52.807    508.928   1512.126    508.928    511.258    508.928
 68.670   1233.000   1259.853    -26.853    509.024   1257.669    509.024    511.419    509.024
 68.770   1008.000   1048.542    -40.542    509.119   1046.236    509.119    511.585    509.119
 68.870    860.000    886.324    -26.324    509.215    883.896    509.215    511.757    509.215
 68.970    751.648    770.236    -18.588    509.310    767.687    509.310    511.936    509.310
 69.070    712.000    692.130     19.870    509.404    689.464    509.404    512.122    509.404
 69.170    674.000    642.205     31.795    509.498    639.420    509.498    512.316    509.498
 69.270    626.000    611.446     14.554    509.592    608.541    509.592    512.519    509.592
 69.370    594.000    592.816      1.184    509.686    589.784    509.686    512.732    509.686
 69.470    583.091    581.453      1.638    509.779    578.287    509.779    512.955    509.779
 69.570    554.786    574.316    -19.530    509.872    571.004    509.872    513.190    509.872
 69.670    584.344    569.652     14.692    509.964    566.183    509.964    513.439    509.964
 69.770    617.000    566.518     50.482    510.056    562.875    510.056    513.703    510.056
 69.870    576.000    564.430     11.570    510.147    560.596    510.147    513.984    510.147
 69.970    587.284    563.146     24.137    510.239    559.103    510.239    514.284    510.239
 70.070    547.933    562.557    -14.624    510.329    558.282    510.329    514.606    510.329
 70.170    559.000    562.628     -3.628    510.419    558.096    510.419    514.951    510.419
 70.270    558.000    563.391     -5.391    510.509    558.572    510.509    515.327    510.509
 70.370    530.000    564.957    -34.957    510.598    559.818    510.598    515.735    510.598
 70.470    566.000    567.578     -1.578    510.687    562.080    510.687    516.182    510.687
 70.570    586.000    571.742     14.258    510.775    565.839    510.775    516.673    510.775
 70.670    540.216    578.355    -38.138    510.863    571.993    510.863    517.218    510.863
 70.770    566.490    588.955    -22.465    510.950    582.067    510.950    517.827    510.950
 70.870    608.000    605.990      2.010    511.037    598.494    511.037    518.515    511.037
 70.970    608.000    633.049    -25.049    511.123    624.837    511.123    519.307    511.123
 71.070    660.018    674.891    -14.872    511.209    665.820    511.209    520.238    511.209
 71.170    734.000    737.110     -3.110    511.294    726.980    511.294    521.362    511.294
 71.270    816.000    825.233     -9.233    511.379    813.761    511.379    522.764    511.379
 71.370    916.994    943.245    -26.251    511.463    930.017    511.463    524.575    511.463
 71.470   1122.000   1091.709     30.291    511.546   1076.124    511.546    526.982    511.546
 71.570   1255.000   1265.910    -10.910    511.629   1247.106    511.629    530.254    511.629
 71.670   1413.000   1454.534    -41.534    511.711   1431.298    511.711    534.744    511.711
 71.770   1705.061   1639.329     65.732    511.793   1610.016    511.793    540.890    511.793
 71.870   1857.775   1796.349     61.426    511.874   1758.822    511.874    549.188    511.874
 71.970   1927.735   1900.078     27.658    511.955   1851.699    511.955    560.142    511.955
 72.070   1959.000   1931.427     27.573    512.034   1869.131    512.034    574.175    512.034
 72.170   1835.034   1886.536    -51.502    512.114   1807.018    512.114    591.518    512.114
 72.270   1733.974   1778.941    -44.968    512.192   1678.973    512.192    612.086    512.192
 72.370   1710.000   1632.616     77.384    512.270   1509.498    512.270    635.343    512.270
 72.470   1503.000   1472.423     30.577    512.347   1324.567    512.347    660.182    512.347
 72.570   1370.000   1318.036     51.964    512.424   1145.646    512.424    684.805    512.424
 72.670   1199.575   1181.618     17.957    512.500    987.429    512.500    706.687    512.500
 72.770   1047.000   1067.844    -20.844    512.575    857.623    512.575    722.795    512.575
 72.870   1013.338    975.589     37.749    512.649    757.926    512.649    730.312    512.649
 72.970    911.993    900.748     11.246    512.723    685.730    512.723    727.740    512.723
 73.070    789.000    838.916    -49.916    512.796    636.068    512.796    715.643    512.796
 73.170    779.000    786.787     -7.787    512.869    603.316    512.869    696.339    512.869
 73.270    752.299    742.280     10.019    512.940    582.357    512.940    672.862    512.940
 73.370    666.000    704.172    -38.172    513.011    569.157    513.011    648.026    513.011
 73.470    649.395    671.772    -22.377    513.081    560.874    513.081    623.979    513.081
 73.570    594.000    644.699    -50.699    513.151    555.695    513.151    602.156    513.151
 73.670    626.000    622.698      3.302    513.219    552.567    513.219    583.355    513.219
 73.770    645.754    605.499     40.255    513.287    550.927    513.287    567.865    513.287
 73.870    605.000    592.723     12.277    513.354    550.492    513.354    555.595    513.354
 73.970    591.000    583.860      7.140    513.421    551.093    513.421    546.201    513.421
 74.070    590.260    578.274     11.986    513.486    552.573    513.486    539.206    513.486
 74.170    546.286    575.238    -28.952    513.551    554.709    513.551    534.104    513.551
 74.270    565.000    573.961     -8.961    513.615    557.183    513.615    530.424    513.615
 74.370    605.000    573.626     31.374    513.678    559.571    513.678    527.770    513.678
 74.470    662.000    573.428     88.572    513.740    561.376    513.740    525.833    513.740
 74.570    582.015    572.668      9.347    513.801    562.125    513.801    524.389    513.801
 74.670    626.000    570.891     55.109    513.862    561.518    513.862    523.279    513.862
 74.770    574.994    568.005      6.989    513.921    559.568    513.921    522.401    513.921
 74.870    605.000    564.265     40.735    513.980    556.599    513.980    521.685    513.980
 74.970    632.000    560.134     71.866    514.038    553.118    514.038    521.087    514.038
 75.070    561.000    556.137      4.863    514.095    549.679    514.095    520.579    514.095
 75.170    567.000    552.785     14.215    514.152    546.813    514.152    520.143    514.152
 75.270    528.718    550.559    -21.841    514.207    545.016    514.207    519.763    514.207
 75.370    540.841    549.934     -9.093    514.261    544.770    514.261    519.432    514.261
 75.470    544.009    551.398     -7.389    514.315    546.572    514.315    519.142    514.315
 75.570    528.331    555.470    -27.139    514.367    550.947    514.367    518.886    514.367
 75.670    594.664    562.671     31.993    514.419    558.420    514.419    518.660    514.419
 75.770    563.000    573.445    -10.445    514.470    569.437    514.470    518.461    514.470
 75.870    572.000    588.020    -16.020    514.520    584.231    514.520    518.284    514.520
 75.970    553.000    606.239    -53.239    514.568    602.647    514.568    518.127    514.568
 76.070    645.000    627.396     17.604    514.616    623.982    514.616    517.987    514.616
 76.170    643.000    650.125     -7.125    514.663    646.874    514.663    517.863    514.663
 76.270    651.002    672.375    -21.373    514.709    669.274    514.709    517.752    514.709
 76.370    739.416    691.512     47.904    514.754    688.549    514.754    517.653    514.754
 76.470    728.000    704.653     23.347    514.798    701.820    514.798    517.565    514.798
 76.570    674.000    709.381    -35.381    514.841    706.672    514.841    517.486    514.841
 76.670    693.000    704.689    -11.689    514.883    702.099    514.883    517.416    514.883
 76.770    711.109    691.466     19.643    514.925    688.988    514.925    517.353    514.925
 76.870    620.000    672.055    -52.055    514.965    669.683    514.965    517.297    514.965
 76.970    673.392    649.317     24.075    515.004    647.044    515.004    517.246    515.004
 77.070    632.000    625.895      6.105    515.042    623.713    515.042    517.201    515.042
 77.170    599.150    603.851     -4.701    515.079    601.753    515.079    517.161    515.079
 77.270    590.000    584.550      5.450    515.115    582.529    515.115    517.125    515.115
 77.370    587.000    568.674     18.326    515.150    566.724    515.150    517.092    515.150
 77.470    538.000    556.325    -18.325    515.183    554.440    515.183    517.064    515.183
 77.570    502.000    547.192    -45.192    515.216    545.368    515.216    517.038    515.216
 77.670    557.251    540.731     16.520    515.248    538.962    515.248    517.015    515.248
 77.770    499.000    536.326    -37.326    515.279    534.609    515.279    516.994    515.279
 77.870    507.000    533.403    -26.403    515.308    531.734    515.308    516.976    515.308
 77.970    464.000    531.491    -67.491    515.337    529.868    515.337    516.959    515.337
 78.070    511.000    530.240    -19.240    515.364    528.659    515.364    516.945    515.364
 78.170    537.000    529.406      7.594    515.391    527.864    515.391    516.932    515.391
 78.270    542.666    528.840     13.826    515.416    527.335    515.416    516.920    515.416
 78.370    561.891    528.448     33.443    515.440    526.978    515.440    516.910    515.440
 78.470    512.121    528.164    -16.043    515.463    526.726    515.463    516.900    515.463
 78.570    557.000    527.977     29.023    515.485    526.569    515.485    516.893    515.485
 78.670    523.000    527.916     -4.916    515.506    526.536    515.506    516.886    515.506
 78.770    516.399    527.968    -11.569    515.526    526.613    515.526    516.880    515.526
 78.870    483.000    528.147    -45.147    515.545    526.815    515.545    516.876    515.545
 78.970    521.000    528.482     -7.482    515.562    527.169    515.562    516.874    515.562
 79.070    494.888    529.002    -34.114    515.578    527.706    515.578    516.873    515.578
 79.170    534.063    529.743      4.320    515.593    528.460    515.593    516.875    515.593
 79.270    555.000    530.736     24.264    515.608    529.461    515.608    516.880    515.608
 79.370    496.000    532.011    -36.011    515.620    530.740    515.620    516.889    515.620
 79.470    540.566    533.595      6.971    515.632    532.321    515.632    516.902    515.632
 79.570    516.000    535.517    -19.517    515.643    534.234    515.643    516.921    515.643
 79.670    511.000    537.824    -26.824    515.652    536.526    515.652    516.945    515.652
 79.770    536.000    540.595     -4.595    515.660    539.273    515.660    516.976    515.660
 79.870    529.000    543.961    -14.961    515.667    542.609    515.667    517.014    515.667
 79.970    538.000    548.138    -10.138    515.673    546.748    515.673    517.057    515.673
 80.070    514.991    553.447    -38.456    515.678    552.014    515.678    517.106    515.678
 80.170    526.000    560.321    -34.321    515.681    558.840    515.681    517.158    515.681
 80.270    598.298    569.250     29.048    515.683    567.722    515.683    517.211    515.683
 80.370    604.441    580.689     23.752    515.684    579.115    515.684    517.260    515.684
 80.470    624.973    594.932     30.041    515.684    593.320    515.684    517.301    515.684
 80.570    623.281    612.006     11.274    515.683    610.370    515.683    517.328    515.683
 80.670    608.000    631.586    -23.586    515.680    629.944    515.680    517.337    515.680
 80.770    653.713    652.947      0.766    515.676    651.320    515.676    517.323    515.676
 80.870    648.080    674.987    -26.907    515.671    673.398    515.671    517.286    515.671
 80.970    697.388    696.348      1.039    515.665    694.815    515.665    517.231    515.665
 81.070    754.167    715.611     38.556    515.657    714.147    515.657    517.161    515.657
 81.170    732.000    731.483      0.517    515.648    730.094    515.648    517.083    515.648
 81.270    742.000    742.915     -0.915    515.638    741.604    515.638    517.001    515.638
 81.370    787.000    749.182     37.818    515.627    747.948    515.627    516.920    515.627
 81.470    789.422    749.967     39.455    515.614    748.804    515.614    516.841    515.614
 81.570    736.000    745.374     -9.374    515.601    744.274    515.601    516.767    515.601
 81.670    725.413    735.886    -10.472    515.586    734.841    515.586    516.698    515.586
 81.770    771.000    722.339     48.661    515.569    721.341    515.569    516.636    515.569
 81.870    735.000    705.897     29.103    515.552    704.937    515.552    516.579    515.552
 81.970    716.608    687.886     28.722    515.533    686.956    515.533    516.528    515.533
 82.070    656.000    669.517    -13.517    515.513    668.611    515.513    516.481    515.513
 82.170    679.696    651.668     28.028    515.491    650.780    515.491    516.438    515.491
 82.270    698.000    634.826     63.174    515.468    633.952    515.468    516.397    515.468
 82.370    663.196    619.200     43.997    515.444    618.335    515.444    516.359    515.444
 82.470    611.777    604.884      6.893    515.419    604.026    515.419    516.322    515.419
 82.570    632.973    591.995     40.978    515.393    591.141    515.393    516.286    515.393
 82.670    611.668    580.689     30.979    515.365    579.836    515.365    516.250    515.365
 82.770    601.152    571.132     30.020    515.335    570.279    515.335    516.214    515.335
 82.870    576.990    563.467     13.523    515.305    562.613    515.305    516.178    515.305
 82.970    555.399    557.798     -2.399    515.273    556.941    515.273    516.141    515.273
 83.070    564.131    554.178      9.953    515.240    553.318    515.240    516.104    515.240
 83.170    559.000    552.595      6.405    515.206    551.731    515.206    516.066    515.206
 83.270    554.000    552.947      1.053    515.170    552.079    515.170    516.027    515.170
 83.370    566.587    555.028     11.560    515.133    554.155    515.133    515.988    515.133
 83.470    546.000    558.510    -12.510    515.095    557.633    515.095    515.947    515.095
 83.570    515.000    562.949    -47.949    515.055    562.067    515.055    515.906    515.055
 83.670    593.971    567.792     26.179    515.014    566.905    515.014    515.864    515.014
 83.770    553.000    572.405    -19.405    514.972    571.515    514.972    515.821    514.972
 83.870    589.000    576.123     12.877    514.928    575.231    514.928    515.776    514.928
 83.970    547.000    578.338    -31.338    514.883    577.445    514.883    515.731    514.883
 84.070    554.000    578.622    -24.622    514.837    577.729    514.837    515.685    514.837
 84.170    562.000    576.846    -14.846    514.789    575.955    514.789    515.638    514.789
 84.270    590.872    573.211     17.661    514.741    572.324    514.741    515.590    514.741
 84.370    581.820    568.166     13.654    514.690    567.282    514.690    515.541    514.690
 84.470    558.000    562.268     -4.268    514.639    561.388    514.639    515.490    514.639
 84.570    559.492    556.063      3.430    514.586    555.186    514.586    515.439    514.586
 84.670    567.000    550.017     16.983    514.531    549.143    514.531    515.387    514.531
 84.770    535.000    544.481     -9.481    514.476    543.609    514.476    515.334    514.476
 84.870    573.325    539.682     33.643    514.419    538.811    514.419    515.279    514.419
 84.970    548.000    535.725     12.275    514.361    534.853    514.361    515.224    514.361
 85.070    529.000    532.618     -3.618    514.301    531.745    514.301    515.168    514.301
 85.170    525.000    530.296     -5.296    514.240    529.421    514.240    515.110    514.240
 85.270    525.024    528.656     -3.632    514.178    527.777    514.178    515.052    514.178
 85.370    500.000    527.582    -27.582    514.114    526.699    514.114    514.992    514.114
 85.470    546.000    526.969     19.031    514.049    526.082    514.049    514.932    514.049
 85.570    564.345    526.737     37.608    513.983    525.845    513.983    514.870    513.983
 85.670    543.000    526.843     16.157    513.915    525.946    513.915    514.808    513.915
 85.770    523.000    527.284     -4.284    513.846    526.380    513.846    514.744    513.846
 85.870    533.247    528.100      5.146    513.776    527.189    513.776    514.680    513.776
 85.970    545.000    529.377     15.623    513.704    528.457    513.704    514.614    513.704
 86.070    554.000    531.242     22.758    513.631    530.313    513.631    514.548    513.631
 86.170    541.000    533.860      7.140    513.557    532.921    513.557    514.480    513.557
 86.270    553.000    537.424     15.577    513.481    536.473    513.481    514.412    513.481
 86.370    553.000    542.128     10.872    513.404    541.163    513.404    514.343    513.404
 86.470    561.000    548.147     12.853    513.325    547.166    513.325    514.272    513.325
 86.570    532.192    555.590    -23.398    513.245    554.591    513.245    514.201    513.245
 86.670    568.000    564.454      3.546    513.164    563.436    513.164    514.129    513.164
 86.770    560.165    574.618    -14.453    513.082    573.578    513.082    514.056    513.082
 86.870    618.460    585.769     32.691    512.998    584.708    512.998    513.982    512.998
 86.970    560.292    597.390    -37.098    512.913    596.305    512.913    513.908    512.913
 87.070    614.000    608.775      5.225    512.826    607.668    512.826    513.832    512.826
 87.170    652.000    619.061     32.939    512.739    617.934    512.739    513.756    512.739
 87.270    633.000    627.305      5.695    512.649    626.160    512.649    513.679    512.649
 87.370    611.680    632.631    -20.951    512.559    631.472    512.559    513.601    512.559
 87.470    669.000    634.432     34.568    512.467    633.262    512.467    513.523    512.467
 87.570    643.000    632.550     10.450    512.374    631.372    512.374    513.444    512.374
 87.670    663.000    627.323     35.677    512.279    626.141    512.279    513.364    512.279
 87.770    659.000    619.478     39.522    512.183    618.293    512.183    513.284    512.183
 87.870    622.000    609.952     12.048    512.086    608.765    512.086    513.203    512.086
 87.970    578.000    599.734    -21.734    511.988    598.543    511.988    513.122    511.988
 88.070    598.000    589.758      8.242    511.888    588.562    511.888    513.040    511.888
 88.170    595.000    580.829     14.171    511.787    579.627    511.787    512.958    511.787
 88.270    630.000    573.583     56.417    511.684    572.371    511.684    512.875    511.684
 88.370    587.000    568.453     18.547    511.580    567.230    511.580    512.792    511.580
 88.470    566.364    565.668      0.696    511.475    564.432    511.475    512.709    511.475
 88.570    562.013    565.257     -3.245    511.369    564.005    511.369    512.626    511.369
 88.670    584.881    567.062     17.819    511.261    565.793    511.261    512.543    511.261
 88.770    616.000    570.758     45.242    511.152    569.470    511.152    512.460    511.152
 88.870    602.000    575.875     26.125    511.042    574.568    511.042    512.378    511.042
 88.970    622.601    581.825     40.776    510.930    580.496    510.930    512.295    510.930
 89.070    608.487    587.930     20.557    510.817    586.577    510.817    512.213    510.817
 89.170    630.084    593.461     36.624    510.703    592.082    510.703    512.132    510.703
 89.270    623.139    597.698     25.441    510.587    596.291    510.587    512.051    510.587
 89.370    622.000    600.029     21.971    510.470    598.588    510.470    511.971    510.470
 89.470    579.000    600.058    -21.058    510.352    598.581    510.352    511.892    510.352
 89.570    576.000    597.704    -21.704    510.233    596.185    510.233    511.815    510.233
 89.670    620.000    593.204     26.796    510.112    591.637    510.112    511.739    510.112
 89.770    605.000    587.029     17.971    509.990    585.411    509.990    511.665    509.990
 89.870    604.852    579.763     25.089    509.867    578.088    509.867    511.594    509.867
 89.970    531.000    571.994    -40.994    509.742    570.258    509.742    511.524    509.742
 90.070    543.391    564.243    -20.852    509.616    562.440    509.616    511.458    509.616
 90.170    536.000    556.929    -20.929    509.489    555.055    509.489    511.395    509.489
 90.270    552.491    550.353      2.138    509.361    548.403    509.361    511.337    509.361
 90.370    550.000    544.699      5.301    509.231    542.667    509.231    511.283    509.231
 90.470    551.000    540.043     10.957    509.101    537.922    509.101    511.236    509.101
 90.570    555.454    536.371     19.083    508.969    534.155    508.969    511.196    508.969
 90.670    546.000    533.611     12.389    508.835    531.289    508.835    511.165    508.835
 90.770    536.000    531.654      4.346    508.701    529.215    508.701    511.145    508.701
 90.870    515.881    530.381    -14.500    508.565    527.809    508.565    511.140    508.565
 90.970    511.716    529.684    -17.968    508.428    526.958    508.428    511.155    508.428
 91.070    490.000    529.477    -39.477    508.290    526.573    508.290    511.194    508.290
 91.170    517.082    529.705    -12.623    508.150    526.589    508.150    511.265    508.150
 91.270    538.000    530.324      7.676    508.010    526.953    508.010    511.379    508.010
 91.370    528.000    531.436     -3.436    507.868    527.754    507.868    511.547    507.868
 91.470    532.000    533.111     -1.111    507.725    529.048    507.725    511.784    507.725
 91.570    534.327    535.462     -1.135    507.580    530.928    507.580    512.109    507.580
 91.670    503.000    538.657    -35.657    507.435    533.542    507.435    512.542    507.435
 91.770    516.019    542.906    -26.887    507.288    537.076    507.288    513.108    507.288
 91.870    549.000    548.452      0.548    507.141    541.747    507.141    513.832    507.141
 91.970    508.000    555.541    -47.541    506.992    547.776    506.992    514.739    506.992
 92.070    542.000    564.413    -22.413    506.842    555.378    506.842    515.855    506.842
 92.170    537.985    575.271    -37.286    506.690    564.735    506.690    517.201    506.690
 92.270    629.287    588.252     41.035    506.538    575.968    506.538    518.790    506.538
 92.370    591.560    603.399    -11.839    506.384    589.113    506.384    520.631    506.384
 92.470    612.000    620.628     -8.628    506.230    604.092    506.230    522.719    506.230
 92.570    648.000    639.714      8.286    506.074    620.699    506.074    525.035    506.074
 92.670    641.000    660.267    -19.267    505.917    638.582    505.917    527.540    505.917
 92.770    684.000    681.736      2.264    505.759    657.248    505.759    530.180    505.759
 92.870    728.680    703.424     25.256    505.600    676.079    505.600    532.872    505.600
 92.970    692.000    724.536    -32.536    505.439    694.386    505.439    535.512    505.439
 93.070    731.000    744.276    -13.276    505.278    711.507    505.278    537.968    505.278
 93.170    734.814    761.994    -27.180    505.115    726.944    505.115    540.085    505.115
 93.270    728.630    777.288    -48.659    504.952    740.462    504.952    541.698    504.952
 93.370    827.000    790.040     36.960    504.787    752.091    504.787    542.657    504.787
 93.470    833.000    800.381     32.619    504.622    762.069    504.622    542.856    504.622
 93.570    781.091    808.609    -27.519    504.455    770.729    504.455    542.260    504.455
 93.670    861.000    815.130     45.870    504.287    778.429    504.287    540.915    504.287
 93.770    858.713    820.438     38.275    504.118    785.551    504.118    538.936    504.118
 93.870    858.198    825.138     33.061    503.949    792.543    503.949    536.477    503.949
 93.970    826.000    829.924     -3.924    503.778    799.935    503.778    533.702    503.778
 94.070    860.000    835.487     24.513    503.606    808.266    503.606    530.764    503.606
 94.170    882.000    842.343     39.657    503.433    817.924    503.433    527.792    503.433
 94.270    902.864    850.656     52.208    503.259    828.970    503.259    524.887    503.259
 94.370    844.336    860.123    -15.787    503.084    841.027    503.084    522.126    503.084
 94.470    829.405    869.950    -40.545    502.909    853.245    502.909    519.562    502.909
 94.570    829.453    878.908    -49.455    502.732    864.362    502.732    517.231    502.732
 94.670    975.000    885.474     89.526    502.554    872.838    502.554    515.149    502.554
 94.770    854.238    888.053    -33.815    502.375    877.075    502.375    513.320    502.375
 94.870    940.036    885.280     54.756    502.196    875.715    502.196    511.736    502.196
 94.970    925.000    876.346     48.654    502.015    867.965    502.015    510.380    502.015
 95.070    861.821    861.217      0.604    501.834    853.812    501.834    509.230    501.834
 95.170    890.651    840.657     49.994    501.651    834.045    501.651    508.263    501.651
 95.270    845.000    816.054     28.946    501.468    810.076    501.468    507.452    501.468
 95.370    774.000    789.170    -15.170    501.284    783.692    501.284    506.771    501.284
 95.470    795.000    761.909     33.091    501.099    756.820    501.099    506.199    501.099
 95.570    721.761    736.156    -14.395    500.913    731.365    500.913    505.714    500.913
 95.670    765.000    713.665     51.335    500.726    709.100    500.726    505.299    500.726
 95.770    709.000    696.065     12.935    500.539    691.669    500.539    504.940    500.539
 95.870    711.713    684.750     26.963    500.350    680.476    500.350    504.624    500.350
 95.970    669.323    680.914    -11.591    500.161    676.724    500.161    504.344    500.161
 96.070    667.254    685.558    -18.304    499.971    681.422    499.971    504.091    499.971
 96.170    710.000    699.487     10.513    499.780    695.382    499.780    503.860    499.780
 96.270    734.000    723.304     10.696    499.589    719.208    499.589    503.648    499.589
 96.370    720.000    757.348    -37.348    499.396    753.244    499.396    503.453    499.396
 96.470    800.000    801.634     -1.634    499.203    797.507    499.203    503.272    499.203
 96.570    887.610    855.754     31.855    499.009    851.590    499.009    503.103    499.009
 96.670    886.000    918.771    -32.771    498.815    914.557    498.815    502.947    498.815
 96.770    977.000    989.130    -12.130    498.619    984.855    498.619    502.802    498.619
 96.870   1043.642   1064.594    -20.953    498.423   1060.249    498.423    502.669    498.423
 96.970   1114.000   1142.234    -28.234    498.227   1137.809    498.227    502.547    498.227
 97.070   1152.000   1218.460    -66.460    498.029   1213.947    498.029    502.437    498.029
 97.170   1348.820   1289.153     59.667    497.831   1284.543    497.831    502.339    497.831
 97.270   1398.665   1349.900     48.765    497.632   1345.186    497.632    502.254    497.632
 97.370   1473.000   1396.422     76.578    497.433   1391.593    497.433    502.183    497.433
 97.470   1387.000   1425.167    -38.167    497.233   1420.212    497.233    502.126    497.233
 97.570   1416.000   1433.960    -17.960    497.032   1428.866    497.032    502.085    497.032
 97.670   1367.483   1422.440    -54.957    496.831   1417.191    496.831    502.062    496.831
 97.770   1383.000   1392.081     -9.081    496.629   1386.656    496.629    502.057    496.629
 97.870   1383.857   1345.804     38.053    496.426   1340.175    496.426    502.076    496.426
 97.970   1281.000   1287.397     -6.397    496.223   1281.533    496.223    502.123    496.223
 98.070   1181.000   1220.989    -39.989    496.020   1214.853    496.020    502.202    496.020
 98.170   1200.000   1150.675     49.325    495.816   1144.222    495.816    502.320    495.816
 98.270   1128.000   1080.271     47.729    495.611   1073.449    495.611    502.487    495.611
 98.370    957.044   1013.168    -56.124    495.406   1005.912    495.406    502.715    495.406
 98.470    911.000    952.261    -41.261    495.200    944.491    495.200    503.019    495.200
 98.570    928.601    899.922     28.679    494.994    891.537    494.994    503.420    494.994
 98.670    827.000    858.027    -31.027    494.788    848.904    494.788    503.945    494.788
 98.770    838.000    828.007      9.993    494.581    817.986    494.581    504.625    494.581
 98.870    863.434    810.913     52.521    494.373    799.799    494.373    505.502    494.373
 98.970    767.504    807.502    -39.997    494.165    795.049    494.165    506.623    494.165
 99.070    831.043    818.288     12.755    493.957    804.197    493.957    508.044    493.957
 99.170    794.692    843.587    -48.895    493.748    827.493    493.748    509.830    493.748
 99.270    842.000    883.494    -41.494    493.539    864.963    493.539    512.052    493.539
 99.370    952.284    937.894     14.391    493.330    916.416    493.330    514.784    493.330
 99.470   1014.000   1006.329      7.671    493.120    981.318    493.120    518.104    493.120
 99.570   1132.000   1087.923     44.077    492.910   1058.719    492.910    522.087    492.910
 99.670   1089.000   1181.293    -92.293    492.700   1147.171    492.700    526.798    492.700
 99.770   1241.443   1284.452    -43.009    492.489   1244.635    492.489    532.289    492.489
 99.870   1392.302   1394.745     -2.442    492.278   1348.424    492.278    538.592    492.278
 99.970   1546.000   1508.824     37.176    492.067   1455.189    492.067    545.710    492.067
100.070   1662.188   1622.726     39.463    491.856   1560.996    491.856    553.611    491.856
100.170   1742.000   1732.056      9.944    491.644   1661.524    491.644    562.224    491.644
100.270   1818.019   1832.321    -14.302    491.432   1752.399    491.432    571.428    491.432
100.370   1875.714   1919.331    -43.617    491.220   1829.601    491.220    581.050    491.220
100.470   1932.250   1989.542    -57.292    491.008   1889.816    491.008    590.859    491.008
100.570   2061.000   2040.221     20.779    490.796   1930.605    490.796    600.561    490.796
100.670   2132.000   2069.440     62.560    490.584   1950.396    490.584    609.799    490.584
100.770   2157.501   2076.036     81.465    490.371   1948.439    490.371    618.158    490.371
100.870   2121.000   2059.715     61.285    490.158   1924.888    490.158    625.188    490.158
100.970   2021.000   2021.308     -0.308    489.946   1881.023    489.946    630.442    489.946
101.070   1965.000   1963.024      1.976    489.733   1819.436    489.733    633.536    489.733
101.170   1862.000   1888.462    -26.462    489.520   1743.979    489.520    634.215    489.520
101.270   1803.000   1802.276      0.724    489.307   1659.381    489.307    632.409    489.307
101.370   1695.000   1709.623    -14.623    489.095   1570.669    489.095    628.243    489.095
101.470   1617.000   1615.561      1.439    488.882   1482.605    488.882    622.018    488.882
101.570   1502.000   1524.570    -22.570    488.669   1399.261    488.669    614.143    488.669
101.670   1421.000   1440.247    -19.247    488.456   1323.779    488.456    605.073    488.456
101.770   1344.000   1365.139    -21.139    488.244   1258.265    488.244    595.250    488.244
101.870   1297.258   1300.699     -3.441    488.031   1203.772    488.031    585.075    488.031
101.970   1267.000   1247.317     19.683    487.819   1160.355    487.819    574.885    487.819
102.070   1256.000   1204.417     51.583    487.607   1127.159    487.607    564.958    487.607
102.170   1222.000   1170.589     51.411    487.395   1102.564    487.395    555.506    487.395
102.270   1138.281   1143.781     -5.500    487.183   1084.359    487.183    546.686    487.183
102.370   1093.000   1121.519    -28.519    486.971   1069.965    486.971    538.603    486.971
102.470   1005.000   1101.190    -96.190    486.759   1056.708    486.759    531.319    486.759
102.570   1097.039   1080.357     16.682    486.548   1042.131    486.548    524.852    486.548
102.670   1104.286   1057.070     47.216    486.337   1024.295    486.337    519.191    486.337
102.770   1069.000   1030.100     38.900    486.127   1002.009    486.127    514.298    486.127
102.870    995.000    999.016     -4.016    485.916    974.897    485.916    510.116    485.916
102.970    900.000    964.096    -64.096    485.706    943.307    485.706    506.575    485.706
103.070    922.000    926.131     -4.131    485.496    908.105    485.496    503.600    485.496
103.170    893.000    886.204      6.796    485.287    870.450    485.287    501.115    485.287
103.270    833.000    845.503    -12.503    485.078    831.607    485.078    499.044    485.078
103.370    846.000    805.191     40.809    484.870    792.805    484.870    497.319    484.870
103.470    784.000    766.315     17.685    484.662    755.156    484.662    495.878    484.662
103.570    690.794    729.751    -38.958    484.454    719.590    484.454    494.666    484.454
103.670    670.000    696.171    -26.171    484.247    686.823    484.247    493.639    484.247
103.770    637.810    666.025    -28.215    484.040    657.345    484.040    492.758    484.040
103.870    654.000    639.550     14.450    483.834    631.423    483.834    491.993    483.834
103.970    597.000    616.783    -19.783    483.629    609.119    483.629    491.319    483.629
104.070    654.000    597.602     56.398    483.424    590.330    483.424    490.717    483.424
104.170    605.000    581.754     23.246    483.220    574.818    483.220    490.172    483.220
104.270    501.000    568.921    -67.921    483.016    562.275    483.016    489.674    483.016
104.370    557.000    558.723     -1.723    482.813    552.332    482.813    489.213    482.813
104.470    548.436    550.776     -2.340    482.611    544.610    482.611    488.783    482.611
104.570    538.000    544.714     -6.714    482.409    538.748    482.409    488.379    482.409
104.670    551.000    540.208     10.792    482.208    534.420    482.208    487.998    482.208
104.770    525.000    536.976    -11.976    482.008    531.349    482.008    487.636    482.008
104.870    549.298    534.793     14.505    481.809    529.308    481.809    487.292    481.809
104.970    554.000    533.485     20.515    481.610    528.129    481.610    486.963    481.610
105.070    562.000    532.934     29.066    481.412    527.694    481.412    486.649    481.412
105.170    512.120    533.075    -20.955    481.215    527.938    481.215    486.347    481.215
105.270    522.000    533.883    -11.883    481.019    528.838    481.019    486.058    481.019
105.370    517.000    535.375    -18.375    480.824    530.411    480.824    485.780    480.824
105.470    556.000    537.602     18.398    480.630    532.710    480.630    485.512    480.630
105.570    583.000    540.644     42.356    480.437    535.814    480.437    485.255    480.437
105.670    579.603    544.595     35.008    480.244    539.818    480.244    485.007    480.244
105.770    600.000    549.557     50.443    480.053    544.826    480.053    484.768    480.053
105.870    547.000    555.620     -8.620    479.863    550.927    479.863    484.537    479.863
105.970    578.000    562.854     15.146    479.674    558.191    479.674    484.315    479.674
106.070    606.000    571.285     34.715    479.486    566.645    479.486    484.100    479.486
106.170    572.007    580.892     -8.885    479.299    576.269    479.299    483.893    479.299
106.270    606.801    591.592     15.209    479.113    586.979    479.113    483.694    479.113
106.370    628.000    603.235     24.765    478.928    598.626    478.928    483.502    478.928
106.470    630.000    615.603     14.397    478.745    610.992    478.745    483.317    478.745
106.570    588.000    628.411    -40.411    478.563    623.793    478.563    483.140    478.563
106.670    635.000    641.312     -6.312    478.382    636.682    478.382    482.969    478.382
106.770    634.000    653.914    -19.914    478.202    649.267    478.202    482.805    478.202
106.870    634.788    665.794    -31.006    478.024    661.124    478.024    482.648    478.024
106.970    634.437    676.522    -42.085    477.847    671.826    477.847    482.497    477.847
107.070    650.000    685.708    -35.708    477.671    680.981    477.671    482.354    477.671
107.170    652.000    693.042    -41.042    477.497    688.279    477.497    482.217    477.497
107.270    657.064    698.350    -41.285    477.324    693.547    477.324    482.087    477.324
107.370    698.000    701.633     -3.633    477.153    696.784    477.153    481.965    477.153
107.470    674.000    703.073    -29.073    476.983    698.175    476.983    481.849    476.983
107.570    656.763    703.009    -46.246    476.815    698.054    476.815    481.741    476.815
107.670    617.000    701.875    -84.875    476.648    696.859    476.648    481.640    476.648
107.770    662.000    700.137    -38.137    476.483    695.054    476.483    481.546    476.483
107.870    713.000    698.236     14.764    476.320    693.079    476.320    481.460    476.320
107.970    711.000    696.537     14.463    476.158    691.300    476.158    481.382    476.158
108.070    682.000    695.302    -13.302    475.997    689.978    475.997    481.313    475.997
108.170    653.000    694.672    -41.672    475.839    689.255    475.839    481.251    475.839
108.270    682.000    694.658    -12.658    475.682    689.140    475.682    481.199    475.682
108.370    711.000    695.141     15.859    475.527    689.515    475.527    481.156    475.527
108.470    703.000    695.882      7.118    475.374    690.141    475.374    481.122    475.374
108.570    679.000    696.545    -17.545    475.222    690.679    475.222    481.097    475.222
108.670    696.123    696.722     -0.599    475.073    690.724    475.073    481.083    475.073
108.770    669.000    695.986    -26.986    474.925    689.846    474.925    481.080    474.925
108.870    708.768    693.946     14.823    474.779    687.655    474.779    481.088    474.779
108.970    708.823    690.301     18.522    474.635    683.849    474.635    481.108    474.635
109.070    679.000    684.895     -5.895    474.494    678.271    474.494    481.140    474.494
109.170    623.000    677.731    -54.731    474.354    670.923    474.354    481.185    474.354
109.270    637.311    668.962    -31.651    474.216    661.957    474.216    481.244    474.216
109.370    628.128    658.857    -30.729    474.080    651.643    474.080    481.317    474.080
109.470    619.891    647.756    -27.865    473.947    640.319    473.947    481.406    473.947
109.570    652.647    636.029     16.617    473.816    628.354    473.816    481.512    473.816
109.670    613.000    624.046    -11.046    473.686    616.116    473.686    481.636    473.686
109.770    653.000    612.150     40.850    473.560    603.949    473.560    481.778    473.560
109.870    648.000    600.627     47.373    473.435    592.136    473.435    481.941    473.435
109.970    594.000    589.762      4.238    473.312    580.966    473.312    482.122    473.312
110.070    585.000    579.789      5.211    473.192    570.660    473.192    482.333    473.192
110.170    602.000    570.836     31.164    473.075    561.349    473.075    482.571    473.075
110.270    592.884    562.997     29.887    472.959    553.124    472.959    482.840    472.959
110.370    542.000    556.318    -14.318    472.846    546.026    472.846    483.144    472.846
110.470    593.000    550.798     42.202    472.736    540.051    472.736    483.488    472.736
110.570    541.516    546.403     -4.887    472.628    535.156    472.628    483.877    472.628
110.670    499.605    543.069    -43.464    472.523    531.273    472.523    484.320    472.523
110.770    559.000    540.715     18.285    472.420    528.309    472.420    484.826    472.420
110.870    556.000    539.250     16.750    472.320    526.163    472.320    485.406    472.320
110.970    512.485    538.584    -26.098    472.222    524.728    472.222    486.075    472.222
111.070    547.000    538.626      8.374    472.127    523.899    472.127    486.851    472.127
111.170    548.000    539.292      8.708    472.035    523.576    472.035    487.746    472.035
111.270    498.079    540.535    -42.456    471.946    523.669    471.946    488.805    471.946
111.370    568.889    542.297     26.591    471.859    524.098    471.859    490.052    471.859
111.470    588.000    544.547     43.453    471.776    524.793    471.776    491.523    471.776
111.570    546.000    547.270     -1.270    471.695    525.696    471.695    493.262    471.695
111.670    553.616    550.470      3.146    471.617    526.759    471.617    495.319    471.617
111.770    535.343    554.168    -18.824    471.542    527.949    471.542    497.752    471.542
111.870    553.000    558.404     -5.404    471.470    529.239    471.470    500.626    471.470
111.970    598.544    563.236     35.308    471.401    530.616    471.401    504.012    471.401
112.070    594.556    568.738     25.818    471.335    532.077    471.335    507.986    471.335
112.170    568.000    574.997     -6.997    471.272    533.629    471.272    512.631    471.272
112.270    532.000    582.115    -50.115    471.212    535.288    471.212    518.030    471.212
112.370    607.000    590.198     16.802    471.156    537.077    471.156    524.267    471.156
112.470    606.820    599.361      7.459    471.102    539.029    471.102    531.425    471.102
112.570    615.494    609.719      5.774    471.052    541.185    471.052    539.577    471.052
112.670    620.000    621.388     -1.388    471.006    543.595    471.006    548.788    471.006
112.770    619.000    634.480    -15.480    470.962    546.323    470.962    559.108    470.962
112.870    701.000    649.107     51.893    470.922    549.450    470.922    570.567    470.922
112.970    649.129    665.381    -16.251    470.886    553.083    470.886    583.171    470.886
113.070    660.000    683.417    -23.417    470.852    557.358    470.852    596.898    470.852
113.170    661.290    703.339    -42.049    470.823    562.457    470.823    611.691    470.823
113.270    713.385    725.293    -11.908    470.797    568.617    470.797    627.457    470.797
113.370    775.000    749.455     25.545    470.774    576.149    470.774    644.062    470.774
113.470    726.000    776.051    -50.051    470.755    585.459    470.755    661.327    470.755
113.570    843.113    805.376     37.737    470.740    597.068    470.740    679.025    470.740
113.670    792.868    837.817    -44.949    470.728    611.639    470.728    696.879    470.728
113.770    864.147    873.875     -9.728    470.721    630.004    470.721    714.559    470.721
113.870    871.000    914.198    -43.198    470.717    653.192    470.717    731.683    470.717
113.970    912.304    959.608    -47.304    470.716    682.454    470.716    747.822    470.716
114.070   1041.182   1011.128     30.054    470.720    719.283    470.720    762.506    470.720
114.170   1064.000   1070.019     -6.019    470.728    765.426    470.728    775.249    470.728
114.270   1096.000   1137.806    -41.806    470.739    822.886    470.739    785.570    470.739
114.370   1168.000   1216.301    -48.301    470.755    893.907    470.755    793.040    470.755
114.470   1256.774   1307.613    -50.839    470.775    980.932    470.775    797.321    470.775
114.570   1402.869   1414.124    -11.255    470.798   1086.549    470.798    798.211    470.798
114.670   1514.915   1538.432    -23.518    470.826   1213.397    470.826    795.665    470.826
114.770   1755.840   1683.238     72.602    470.858   1364.053    470.858    789.810    470.858
114.870   1947.000   1851.184     95.816    470.895   1540.884    470.895    780.918    470.895
114.970   2130.000   2044.652     85.348    470.935   1745.885    470.935    769.379    470.935
115.070   2322.000   2265.533     56.467    470.980   1980.488    470.980    755.654    470.980
115.170   2588.643   2514.994     73.648    471.029   2245.372    471.029    740.229    471.029
115.270   2873.798   2793.251     80.547    471.083   2540.272    471.083    723.587    471.083
115.370   3087.000   3099.374    -12.374    471.141   2863.809    471.141    706.180    471.141
115.470   3353.000   3431.132    -78.132    471.204   3213.348    471.204    688.414    471.204
115.570   3827.468   3784.890     42.578    471.271   3584.898    471.271    670.645    471.271
115.670   4022.000   4155.557   -133.557    471.342   3973.068    471.342    653.178    471.342
115.770   4616.110   4536.608     79.502    471.419   4371.083    471.419    636.264    471.419
115.870   4711.000   4920.164   -209.164    471.500   4770.864    471.500    620.106    471.500
115.970   5233.000   5297.143    -64.143    471.586   5163.174    471.586    604.861    471.586
116.070   5717.000   5657.488     59.512    471.676   5537.844    471.676    590.641    471.676
116.170   5899.000   5990.478    -91.478    471.772   5884.081    471.772    577.521    471.772
116.270   6230.000   6285.147    -55.147    471.872   6190.879    471.872    565.540    471.872
116.370   6784.000   6530.831    253.169    471.977   6447.569    471.977    554.707    471.977
116.470   6740.000   6717.854     22.146    472.087   6644.489    472.087    545.002    472.087
116.570   6876.000   6838.300     37.700    472.202   6773.762    472.202    536.385    472.202
116.670   7014.000   6886.777    127.223    472.323   6830.049    472.323    528.798    472.323
116.770   6862.000   6860.998      1.002    472.448   6811.131    472.448    522.173    472.448
116.870   6842.000   6762.058     79.942    472.579   6718.174    472.579    516.429    472.579
116.970   6707.222   6594.312    112.910    472.714   6555.612    472.714    511.484    472.714
117.070   6466.121   6364.775    101.346    472.855   6330.540    472.855    507.253    472.855
117.170   5973.000   6082.465   -109.465    473.002   6052.057    473.002    503.654    473.002
117.270   5710.653   5757.615    -46.962    473.153   5730.471    473.153    500.607    473.153
117.370   5187.000   5400.953   -213.953    473.310   5376.586    473.310    498.038    473.310
117.470   5083.821   5023.136     60.685    473.473   5001.125    473.473    495.879    473.473
117.570   4559.000   4634.294    -75.294    473.641   4614.281    473.641    494.070    473.641
117.670   4249.000   4243.704      5.296    473.815   4225.386    473.815    492.555    473.815
117.770   3753.649   3859.552   -105.904    473.994   3842.674    473.994    491.288    473.994
117.870   3621.000   3488.770    132.230    474.179   3473.120    474.179    490.229    474.179
117.970   3145.267   3136.950      8.317    474.369   3122.353    474.369    489.343    474.369
118.070   2905.758   2808.332     97.426    474.566   2794.642    474.566    488.601    474.566
118.170   2615.000   2505.842    109.158    474.768   2492.941    474.768    487.980    474.768
118.270   2250.953   2231.192     19.762    474.976   2218.983    474.976    487.460    474.976
118.370   1998.000   1985.014     12.986    475.190   1973.417    475.190    487.024    475.190
118.470   1815.993   1767.018     48.975    475.410   1755.969    475.410    486.661    475.410
118.570   1649.000   1576.164     72.836    475.636   1565.609    475.636    486.360    475.636
118.670   1382.000   1410.839    -28.839    475.868   1400.733    475.868    486.112    475.868
118.770   1215.000   1269.025    -54.025    476.106   1259.331    476.106    485.910    476.106
118.870   1116.000   1148.457    -32.457    476.351   1139.143    476.351    485.750    476.351
118.970   1014.831   1046.760    -31.930    476.601   1037.800    476.601    485.627    476.601
119.070    921.000    961.570    -40.570    476.858    952.940    476.858    485.538    476.858
119.170    851.794    890.617    -38.824    477.122    882.294    477.122    485.480    477.122
119.270    783.391    831.794    -48.403    477.391    823.759    477.391    485.451    477.391
119.370    817.202    783.195     34.007    477.667    775.430    477.667    485.450    477.667
119.470    700.253    743.138    -42.884    477.950    735.625    477.950    485.475    477.950
119.570    673.000    710.165    -37.165    478.239    702.888    478.239    485.525    478.239
119.670    719.106    683.040     36.066    478.535    675.981    478.535    485.599    478.535
119.770    711.000    660.724     50.276    478.838    653.868    478.838    485.698    478.838
119.870    653.000    642.364     10.636    479.147    635.694    479.147    485.820    479.147
119.970    592.000    627.260    -35.260    479.463    620.760    479.463    485.965    479.463
120.070    610.421    614.849     -4.429    479.786    608.503    479.786    486.135    479.786
120.170    615.000    604.681     10.319    480.116    598.471    480.116    486.328    480.116
120.270    610.402    596.396     14.006    480.453    590.307    480.453    486.545    480.453
120.370    609.000    589.712     19.288    480.797    583.726    480.797    486.786    480.797
120.470    619.871    584.407     35.463    481.148    578.506    481.148    487.053    481.148
120.570    539.000    580.307    -41.307    481.506    574.472    481.506    487.344    481.506
120.670    544.000    577.276    -33.276    481.871    571.490    481.871    487.662    481.871
120.770    604.000    575.209     28.791    482.243    569.451    482.243    488.006    482.243
120.870    581.775    574.021      7.754    482.623    568.272    482.623    488.378    482.623
120.970    579.000    573.645      5.355    483.010    567.885    483.010    488.777    483.010
121.070    599.384    574.026     25.358    483.405    568.235    483.405    489.203    483.405
121.170    606.117    575.113     31.004    483.807    569.271    483.807    489.658    483.807
121.270    555.000    576.861    -21.861    484.217    570.947    484.217    490.141    484.217
121.370    591.857    579.223     12.634    484.634    573.217    484.634    490.653    484.634
121.470    590.000    582.150      7.850    485.059    576.031    485.059    491.191    485.059
121.570    551.000    585.584    -34.584    485.491    579.334    485.491    491.757    485.491
121.670    609.000    589.465     19.535    485.932    583.066    485.932    492.349    485.932
121.770    621.163    593.722     27.441    486.380    587.158    486.380    492.965    486.380
121.870    609.000    598.276     10.724    486.836    591.532    486.836    493.603    486.836
121.970    611.000    603.038      7.962    487.300    596.101    487.300    494.262    487.300
122.070    619.000    607.910     11.090    487.772    600.772    487.772    494.939    487.772
122.170    624.000    612.789     11.211    488.253    605.443    488.253    495.630    488.253
122.270    618.000    617.563      0.437    488.741    610.005    488.741    496.332    488.741
122.370    559.000    622.118    -63.118    489.238    614.350    489.238    497.041    489.238
122.470    614.761    626.338    -11.577    489.742    618.366    489.742    497.753    489.742
122.570    637.000    630.111      6.889    490.256    621.946    490.256    498.462    490.256
122.670    664.388    633.337     31.051    490.777    624.994    490.777    499.163    490.777
122.770    669.147    635.927     33.220    491.307    627.429    491.307    499.850    491.307
122.870    632.000    637.815     -5.815    491.846    629.188    491.846    500.518    491.846
122.970    665.641    638.959     26.682    492.393    630.237    492.393    501.162    492.393
123.070    634.000    639.345     -5.345    492.949    630.565    492.949    501.776    492.949
123.170    635.342    638.986     -3.644    493.513    630.189    493.513    502.357    493.513
123.270    662.000    637.920     24.080    494.087    629.150    494.087    502.903    494.087
123.370    660.067    636.204     23.863    494.669    627.505    494.669    503.413    494.669
123.470    660.000    633.909     26.091    495.260    625.326    495.260    503.886    495.260
123.570    635.000    631.118      3.882    495.860    622.693    495.860    504.326    495.860
123.670    670.000    627.918     42.082    496.469    619.689    496.469    504.737    496.469
123.770    647.403    624.395     23.008    497.087    616.397    497.087    505.122    497.087
123.870    660.000    620.635     39.365    497.715    612.897    497.715    505.486    497.715
123.970    626.000    616.719      9.281    498.351    609.264    498.351    505.837    498.351
124.070    659.000    612.719     46.281    498.997    605.566    498.997    506.178    498.997
124.170    648.117    608.699     39.418    499.653    601.860    499.653    506.516    499.653
124.270    624.000    604.711     19.289    500.317    598.195    500.317    506.855    500.317
124.370    555.715    600.796    -45.081    500.992    594.607    500.992    507.200    500.992
124.470    562.000    596.986    -34.986    501.675    591.123    501.675    507.555    501.675
124.570    603.000    593.300      9.700    502.369    587.759    502.369    507.924    502.369
124.670    580.000    589.750     -9.750    503.072    584.524    503.072    508.309    503.072
124.770    614.430    586.339     28.091    503.785    581.420    503.785    508.714    503.785
124.870    550.000    583.066    -33.066    504.508    578.441    504.508    509.141    504.508
124.970    570.000    579.926     -9.926    505.240    575.583    505.240    509.590    505.240
