neutron_powder_diffraction_0068
R_wp: 4.594
Temperature (K): 732.484
Counts: 83741.00
Wavelength (Ã…): 2.52098
COMMENTS
Test file for demonstrating the .xyy file format in Reel1.0
END OF HEADER
   tth       Y_obs     Y_calc      Y_res    Background    Phase_1_Nuc    Phase_1_Mag    Phase_2_Nuc    Phase_2_Mag
  9.970    606.000    623.839    -17.839    622.886    623.746    622.978    622.886    622.886
 10.070    706.000    624.427     81.573    623.406    624.333    623.500    623.406    623.406
 10.170    667.000    625.012     41.988    623.915    624.918    624.010    623.915    623.915
 10.270    617.246    625.597     -8.351    624.413    625.502    624.508    624.413    624.413
 10.370    657.000    626.186     30.814    624.899    626.089    624.995    624.899    624.899
 10.470    687.779    626.780     61.000    625.373    626.682    625.470    625.373    625.373
 10.570    667.000    627.381     39.619    625.836    627.282    625.934    625.836    625.836
 10.670    635.320    628.000      7.320    626.287    627.900    626.387    626.287    626.287
 10.770    665.000    628.635     36.365    626.727    628.534    626.828    626.727    626.727
 10.870    638.000    629.311      8.689    627.156    629.208    627.258    627.156    627.156
 10.970    656.000    630.131     25.869    627.574    630.027    627.677    627.574    627.574
 11.070    649.000    630.955     18.045    627.981    630.850    628.085    627.981    627.981
 11.170    675.098    631.809     43.289    628.378    631.702    628.483    628.378    628.378
 11.270    676.604    632.778     43.826    628.763    632.670    628.869    628.763    628.763
 11.370    659.639    633.924     25.714    629.138    633.814    629.245    629.138    629.138
 11.470    575.546    635.355    -59.809    629.502    635.243    629.611    629.502    629.502
 11.570    693.091    637.322     55.770    629.855    637.207    629.965    629.855    629.855
 11.670    687.000    640.522     46.478    630.198    640.405    630.310    630.198    630.198
 11.770    700.000    646.729     53.271    630.531    646.608    630.644    630.531    630.531
 11.870    642.664    659.449    -16.785    630.853    659.319    630.968    630.853    630.853
 11.970    728.000    683.176     44.824    631.166    683.032    631.281    631.166    631.166
 12.070    788.000    719.516     68.484    631.468    719.350    631.585    631.468    631.468
 12.170    708.000    760.594    -52.594    631.760    760.403    631.878    631.760    631.760
 12.270    766.000    785.229    -19.229    632.042    785.023    632.162    632.042    632.042
 12.370    783.695    774.823      8.872    632.315    774.622    632.436    632.315    632.315
 12.470    714.000    738.693    -24.693    632.577    738.510    632.700    632.577    632.577
 12.570    692.000    699.496     -7.496    632.830    699.335    632.955    632.830    632.830
 12.670    652.000    670.742    -18.742    633.074    670.595    633.200    633.074    633.074
 12.770    638.000    654.205    -16.205    633.308    654.066    633.435    633.308    633.308
 12.870    701.621    646.113     55.508    633.532    645.978    633.661    633.532    633.532
 12.970    628.000    642.377    -14.377    633.747    642.242    633.878    633.747    633.747
 13.070    633.000    640.536     -7.536    633.953    640.400    634.085    633.953    633.953
 13.170    661.697    639.475     22.222    634.150    639.339    634.284    634.150    634.150
 13.270    580.290    638.783    -58.492    634.337    638.645    634.473    634.337    634.337
 13.370    681.350    638.309     43.041    634.516    638.169    634.654    634.516    634.516
 13.470    619.000    637.980    -18.980    634.686    637.839    634.825    634.686    634.686
 13.570    688.056    637.751     50.305    634.846    637.608    634.988    634.846    634.846
 13.670    592.000    637.593    -45.593    634.998    637.449    635.141    634.998    634.998
 13.770    588.000    637.487    -49.487    635.142    637.341    635.287    635.142    635.142
 13.870    622.378    637.418    -15.039    635.276    637.270    635.423    635.276    635.276
 13.970    652.282    637.376     14.906    635.403    637.226    635.551    635.403    635.403
 14.070    647.667    637.353     10.314    635.520    637.201    635.671    635.520    635.520
 14.170    614.000    637.344    -23.344    635.630    637.190    635.783    635.630    635.630
 14.270    624.000    637.345    -13.345    635.731    637.189    635.886    635.731    635.731
 14.370    594.983    637.353    -42.370    635.823    637.195    635.981    635.823    635.823
 14.470    581.723    637.364    -55.641    635.908    637.204    636.068    635.908    635.908
 14.570    621.000    637.378    -16.378    635.985    637.216    636.147    635.985    635.985
 14.670    608.000    637.392    -29.392    636.053    637.228    636.217    636.053    636.053
 14.770    598.000    637.406    -39.406    636.114    637.239    636.281    636.114    636.114
 14.870    681.000    637.420     43.580    636.167    637.250    636.336    636.167    636.167
 14.970    638.471    637.459      1.012    636.212    637.286    636.385    636.212    636.212
 15.070    581.000    637.532    -56.532    636.249    637.355    636.426    636.249    636.249
 15.170    681.500    637.608     43.893    636.279    637.427    636.459    636.279    636.279
 15.270    587.000    637.614    -50.614    636.301    637.431    636.484    636.301    636.301
 15.370    626.000    637.609    -11.609    636.316    637.424    636.501    636.316    636.316
 15.470    584.141    637.606    -53.465    636.323    637.417    636.512    636.323    636.323
 15.570    593.206    637.592    -44.386    636.323    637.401    636.514    636.323    636.323
 15.670    648.150    637.574     10.576    636.316    637.380    636.510    636.316    636.316
 15.770    594.000    637.562    -43.562    636.302    637.365    636.499    636.302    636.302
 15.870    601.000    637.548    -36.548    636.280    637.348    636.480    636.280    636.280
 15.970    634.000    637.514     -3.514    636.252    637.311    636.455    636.252    636.252
 16.070    638.000    637.474      0.526    636.216    637.267    636.423    636.216    636.216
 16.170    662.000    637.428     24.572    636.174    637.219    636.384    636.174    636.174
 16.270    677.000    637.376     39.624    636.125    637.163    636.338    636.125    636.125
 16.370    656.000    637.318     18.682    636.069    637.102    636.285    636.069    636.069
 16.470    659.102    637.256     21.846    636.006    637.036    636.226    636.006    636.006
 16.570    623.204    637.199    -13.995    635.937    636.976    636.160    635.937    635.937
 16.670    614.000    637.126    -23.126    635.862    636.899    636.088    635.862    635.862
 16.770    683.000    637.045     45.955    635.779    636.815    636.010    635.779    635.779
 16.870    648.175    636.959     11.216    635.691    636.725    635.925    635.691    635.691
 16.970    646.000    636.868      9.132    635.596    636.629    635.834    635.596    635.596
 17.070    591.000    636.771    -45.771    635.495    636.529    635.737    635.495    635.495
 17.170    600.124    636.676    -36.552    635.387    636.429    635.634    635.387    635.387
 17.270    603.000    636.574    -33.574    635.274    636.323    635.525    635.274    635.274
 17.370    658.791    636.461     22.331    635.154    636.205    635.410    635.154    635.154
 17.470    608.000    636.342    -28.342    635.029    636.082    635.289    635.029    635.029
 17.570    599.316    636.219    -36.903    634.897    635.954    635.162    634.897    634.897
 17.670    608.000    636.098    -28.098    634.760    635.829    635.029    634.760    634.760
 17.770    572.000    635.993    -63.993    634.617    635.719    634.891    634.617    634.617
 17.870    584.643    635.885    -51.242    634.468    635.606    634.747    634.468    634.468
 17.970    620.927    635.760    -14.832    634.314    635.475    634.598    634.314    634.314
 18.070    596.177    635.613    -39.436    634.153    635.323    634.444    634.153    634.153
 18.170    594.000    635.462    -41.462    633.988    635.166    634.284    633.988    633.988
 18.270    576.000    635.307    -59.307    633.817    635.005    634.119    633.817    633.817
 18.370    638.000    635.146      2.854    633.640    634.838    633.948    633.640    633.640
 18.470    658.650    634.980     23.670    633.458    634.666    633.772    633.458    633.458
 18.570    631.000    634.809     -3.809    633.271    634.489    633.591    633.271    633.271
 18.670    604.000    634.660    -30.660    633.079    634.332    633.406    633.079    633.079
 18.770    615.000    634.530    -19.530    632.881    634.196    633.215    632.881    632.881
 18.870    685.000    634.351     50.649    632.679    634.010    633.020    632.679    632.679
 18.970    631.168    634.183     -3.015    632.471    633.835    632.819    632.471    632.471
 19.070    624.000    633.993     -9.993    632.259    633.638    632.614    632.259    632.259
 19.170    614.000    633.798    -19.798    632.041    633.435    632.404    632.041    632.041
 19.270    659.000    633.625     25.375    631.819    633.255    632.189    631.819    631.819
 19.370    599.000    633.437    -34.437    631.592    633.060    631.970    631.592    631.592
 19.470    642.158    633.228      8.930    631.360    632.842    631.746    631.360    631.360
 19.570    681.025    633.016     48.010    631.124    632.621    631.518    631.124    631.124
 19.670    607.000    632.817    -25.817    630.883    632.414    631.286    630.883    630.883
 19.770    622.449    632.605    -10.156    630.637    632.193    631.049    630.637    630.637
 19.870    634.324    632.382      1.942    630.387    631.960    630.808    630.387    630.387
 19.970    562.000    632.156    -70.156    630.132    631.725    630.564    630.132    630.132
 20.070    604.000    631.924    -27.924    629.873    631.482    630.315    629.873    629.873
 20.170    613.000    631.688    -18.688    629.610    631.236    630.062    629.610    629.610
 20.270    583.540    631.449    -47.909    629.343    630.987    629.805    629.343    629.343
 20.370    603.000    631.207    -28.207    629.071    630.734    629.544    629.071    629.071
 20.470    567.000    630.963    -63.963    628.795    630.479    629.280    628.795    628.795
 20.570    545.000    630.718    -85.718    628.516    630.221    629.012    628.516    628.516
 20.670    648.085    630.468     17.618    628.232    629.959    628.740    628.232    628.232
 20.770    590.000    630.215    -40.215    627.944    629.693    628.465    627.944    627.944
 20.870    666.041    629.960     36.082    627.652    629.425    628.187    627.652    627.652
 20.970    618.000    629.705    -11.705    627.357    629.156    627.905    627.357    627.357
 21.070    621.230    629.446     -8.216    627.057    628.884    627.620    627.057    627.057
 21.170    596.480    629.187    -32.707    626.754    628.609    627.332    626.754    626.754
 21.270    626.000    628.924     -2.924    626.447    628.331    627.040    626.447    626.447
 21.370    607.000    628.659    -21.659    626.137    628.050    626.746    626.137    626.137
 21.470    585.000    628.395    -43.395    625.823    627.769    626.449    625.823    625.823
 21.570    571.000    628.129    -57.129    625.505    627.486    626.149    625.505    625.505
 21.670    634.000    627.862      6.138    625.184    627.200    625.846    625.184    625.184
 21.770    593.864    627.594    -33.730    624.860    626.913    625.541    624.860    624.860
 21.870    658.967    627.326     31.641    624.532    626.625    625.233    624.532    624.532
 21.970    642.424    627.058     15.365    624.201    626.337    624.923    624.201    624.201
 22.070    646.000    626.791     19.209    623.866    626.048    624.610    623.866    623.866
 22.170    643.000    626.526     16.474    623.529    625.759    624.296    623.529    623.529
 22.270    574.000    626.261    -52.261    623.188    625.471    623.979    623.188    623.188
 22.370    619.000    625.999     -6.999    622.844    625.184    623.660    622.844    622.844
 22.470    629.515    625.741      3.774    622.497    624.899    623.339    622.497    622.497
 22.570    615.444    625.487    -10.043    622.148    624.617    623.017    622.148    622.148
 22.670    616.000    625.237     -9.237    621.795    624.338    622.693    621.795    621.795
 22.770    625.000    624.993      0.007    621.439    624.064    622.368    621.439    621.439
 22.870    588.000    624.756    -36.756    621.080    623.795    622.042    621.080    621.080
 22.970    615.000    624.528     -9.528    620.719    623.533    621.714    620.719    620.719
 23.070    633.000    624.313      8.687    620.355    623.282    621.386    620.355    620.355
 23.170    595.874    624.111    -28.236    619.988    623.043    621.057    619.988    619.988
 23.270    675.000    623.926     51.074    619.618    622.818    620.727    619.618    619.618
 23.370    601.000    623.763    -22.763    619.246    622.613    620.397    619.246    619.246
 23.470    616.000    623.628     -7.628    618.872    622.433    620.067    618.872    618.872
 23.570    609.000    623.530    -14.530    618.494    622.288    619.737    618.494    618.494
 23.670    642.000    623.479     18.521    618.115    622.186    619.408    618.115    618.115
 23.770    632.000    623.493      8.507    617.733    622.148    619.080    617.733    617.733
 23.870    649.183    623.586     25.597    617.348    622.184    618.752    617.348    617.348
 23.970    592.899    623.794    -30.895    616.961    622.331    618.426    616.961    616.961
 24.070    594.000    624.178    -30.178    616.572    622.651    618.101    616.572    616.572
 24.170    639.882    624.873     15.009    616.181    623.278    617.779    616.181    616.181
 24.270    580.579    626.224    -45.645    615.788    624.556    617.459    615.788    615.788
 24.370    616.000    629.065    -13.065    615.392    627.320    617.144    615.392    615.392
 24.470    632.000    635.055     -3.055    614.995    633.229    616.831    614.995    614.995
 24.570    684.000    646.577     37.423    614.595    644.668    616.523    614.595    614.595
 24.670    716.542    665.362     51.180    614.193    663.369    616.219    614.193    614.193
 24.770    671.819    689.612    -17.793    613.789    687.529    615.922    613.789    613.789
 24.870    697.000    711.043    -14.043    613.384    708.861    615.631    613.384    613.384
 24.970    731.000    716.913     14.087    612.976    714.611    615.349    612.976    612.976
 25.070    695.000    702.311     -7.311    612.567    699.863    615.075    612.567    612.567
 25.170    686.000    677.504      8.496    612.156    674.891    614.811    612.156    612.156
 25.270    685.074    654.639     30.434    611.743    651.849    614.560    611.743    611.743
 25.370    585.391    638.868    -53.477    611.329    635.890    614.322    611.329    611.329
 25.470    645.000    629.909     15.091    610.913    626.730    614.100    610.913    610.913
 25.570    689.000    625.403     63.597    610.495    622.007    613.896    610.495    610.495
 25.670    588.904    623.186    -34.282    610.076    619.551    613.713    610.076    610.076
 25.770    666.000    622.006     43.994    609.655    618.109    613.554    609.655    609.655
 25.870    675.668    621.315     54.353    609.232    617.126    613.424    609.232    609.232
 25.970    593.967    620.907    -26.941    608.809    616.391    613.327    608.809    608.809
 26.070    708.000    620.704     87.296    608.383    615.820    613.268    608.383    608.383
 26.170    638.000    620.675     17.325    607.957    615.377    613.256    607.957    607.957
 26.270    701.000    620.807     80.193    607.529    615.039    613.298    607.529    607.529
 26.370    584.609    621.101    -36.492    607.100    614.796    613.405    607.100    607.100
 26.470    672.000    621.566     50.434    606.669    614.646    613.590    606.669    606.669
 26.570    707.000    622.223     84.777    606.238    614.590    613.870    606.238    606.238
 26.670    641.668    623.099     18.569    605.805    614.636    614.267    605.805    605.805
 26.770    612.992    624.237    -11.245    605.371    614.800    614.808    605.371    605.371
 26.870    647.000    625.693     21.307    604.936    615.100    615.529    604.936    604.936
 26.970    666.000    627.545     38.455    604.500    615.566    616.478    604.500    604.500
 27.070    647.899    629.900     17.999    604.063    616.240    617.721    604.063    604.063
 27.170    702.000    632.906     69.094    603.625    617.180    619.349    603.625    603.625
 27.270    758.000    636.777    121.223    603.186    618.470    621.491    603.186    603.186
 27.370    667.814    641.840     25.974    602.746    620.238    624.344    602.746    602.746
 27.470    645.360    648.662     -3.301    602.306    622.708    628.254    602.306    602.306
 27.570    770.000    658.420    111.580    601.864    626.343    633.936    601.864    601.864
 27.670    699.155    673.829     25.325    601.422    632.203    643.039    601.422    601.422
 27.770    790.000    700.905     89.095    600.979    642.642    659.228    600.979    600.979
 27.870    698.410    750.903    -52.493    600.535    662.056    689.358    600.535    600.535
 27.970    927.000    839.688     87.312    600.091    696.645    743.093    600.091    600.091
 28.070    929.595    980.504    -50.909    599.645    751.594    828.491    599.645    599.645
 28.170   1140.445   1168.570    -28.126    599.200    825.074    942.606    599.200    599.200
 28.270   1334.080   1360.149    -26.069    598.753    900.103   1058.694    598.753    598.753
 28.370   1352.000   1465.629   -113.629    598.307    941.895   1121.948    598.307    598.307
 28.470   1372.000   1421.524    -49.524    597.859    926.015   1093.318    597.859    597.859
 28.570   1279.883   1280.941     -1.058    597.412    873.717   1004.620    597.412    597.412
 28.670   1072.000   1145.075    -73.075    596.963    825.176    916.862    596.963    596.963
 28.770   1102.000   1075.786     26.214    596.515    805.028    867.270    596.515    596.515
 28.870   1165.000   1082.056     82.944    596.066    816.419    861.696    596.066    596.066
 28.970   1162.000   1129.082     32.918    595.616    843.611    881.081    595.616    595.616
 29.070   1187.000   1152.106     34.894    595.167    857.081    890.197    595.167    595.167
 29.170   1104.000   1102.865      1.135    594.717    834.878    862.727    594.717    594.717
 29.270   1094.000    997.596     96.404    594.267    785.365    806.530    594.267    594.267
 29.370    884.705    882.629      2.076    593.816    730.942    745.534    593.816    593.816
 29.470    902.000    788.220    113.780    593.366    686.177    695.431    593.366    593.366
 29.570    796.000    722.808     73.192    592.915    655.161    660.577    592.915    592.915
 29.670    705.259    682.307     22.952    592.465    635.978    638.802    592.465    592.465
 29.770    622.604    658.602    -35.998    592.014    624.779    625.840    592.014    592.014
 29.870    736.000    644.567     91.433    591.563    618.184    617.947    591.563    591.563
 29.970    582.373    635.676    -53.303    591.112    614.050    612.738    591.112    591.112
 30.070    568.391    629.592    -61.201    590.661    611.282    608.970    590.661    590.661
 30.170    574.771    625.263    -50.492    590.210    609.411    606.061    590.210    590.210
 30.270    739.000    622.296    116.704    589.760    608.307    603.745    589.760    589.760
 30.370    573.844    620.703    -46.860    589.309    608.095    601.913    589.309    589.309
 30.470    738.000    620.884    117.116    588.858    609.187    600.548    588.858    588.858
 30.570    637.000    623.641     13.359    588.408    612.322    599.717    588.408    588.408
 30.670    597.186    630.020    -32.834    587.958    618.427    599.534    587.958    587.958
 30.770    652.000    640.751     11.249    587.508    628.158    600.077    587.508    587.508
 30.870    705.000    655.244     49.756    587.058    641.027    601.241    587.058    587.058
 30.970    725.000    670.177     54.823    586.609    654.208    602.535    586.609    586.609
 31.070    712.747    678.907     33.840    586.160    662.022    602.997    586.160    586.160
 31.170    723.948    675.646     48.302    585.711    659.526    601.789    585.711    585.711
 31.270    693.000    661.879     31.121    585.263    647.994    599.114    585.263    585.263
 31.370    659.342    644.321     15.021    584.815    633.183    595.928    584.815    584.815
 31.470    642.643    628.510     14.133    584.367    619.843    593.018    584.367    584.367
 31.570    639.000    616.687     22.313    583.920    609.897    590.700    583.920    583.920
 31.670    616.000    608.840      7.160    583.473    603.338    588.969    583.473    583.473
 31.770    622.790    603.987     18.803    583.027    599.329    587.680    583.027    583.027
 31.870    546.313    601.035    -54.722    582.581    596.937    586.675    582.581    582.581
 31.970    577.000    599.171    -22.171    582.136    595.471    585.833    582.136    582.136
 32.070    643.364    597.923     45.441    581.692    594.527    585.085    581.692    581.692
 32.170    615.000    597.056     17.944    581.248    593.907    584.395    581.248    581.248
 32.270    671.000    596.465     74.535    580.804    593.525    583.743    580.804    580.804
 32.370    641.000    596.108     44.892    580.362    593.347    583.121    580.362    580.362
 32.470    636.289    595.971     40.318    579.920    593.366    582.523    579.920    579.920
 32.570    564.977    596.061    -31.084    579.479    593.592    581.945    579.479    579.479
 32.670    626.000    596.398     29.602    579.038    594.049    581.385    579.038    579.038
 32.770    609.000    597.019     11.981    578.598    594.774    580.841    578.598    578.598
 32.870    657.000    597.982     59.018    578.159    595.827    580.312    578.159    578.159
 32.970    553.252    599.372    -46.120    577.721    597.293    579.798    577.721    577.721
 33.070    590.000    601.321    -11.321    577.283    599.303    579.298    577.283    577.283
 33.170    556.080    604.048    -47.968    576.847    602.077    578.815    576.847    576.847
 33.270    597.000    607.970    -10.970    576.411    606.026    578.351    576.411    576.411
 33.370    641.772    613.929     27.843    575.976    611.984    577.916    575.976    575.976
 33.470    661.027    623.628     37.399    575.542    621.636    577.527    575.542    575.542
 33.570    618.619    640.193    -21.573    575.109    638.075    577.217    575.109    575.109
 33.670    687.382    668.478     18.904    574.677    666.102    577.037    574.677    574.677
 33.770    677.000    714.354    -37.354    574.246    711.526    577.050    574.246    574.246
 33.870    765.000    782.192    -17.192    573.816    778.671    577.302    573.816    573.816
 33.970    899.059    870.258     28.801    573.387    865.824    577.775    573.387    573.387
 34.070    969.000    964.292      4.708    572.959    958.882    578.316    572.959    572.959
 34.170   1040.000   1033.296      6.704    572.532   1027.186    578.593    572.532    572.532
 34.270   1086.658   1042.498     44.160    572.106   1036.335    578.234    572.106    572.106
 34.370    943.000    985.676    -42.676    571.681    980.164    577.174    571.681    571.681
 34.470    841.000    893.192    -52.192    571.258    888.704    575.735    571.258    571.258
 34.570    745.000    800.190    -55.190    570.835    796.726    574.295    570.835    570.835
 34.670    694.000    725.367    -31.367    570.414    722.727    573.052    570.414    570.414
 34.770    622.000    672.994    -50.994    569.994    670.934    572.052    569.994    569.994
 34.870    582.064    639.712    -57.648    569.575    638.026    571.259    569.575    569.575
 34.970    641.949    619.670     22.279    569.157    618.215    570.611    569.157    569.157
 35.070    631.000    607.582     23.418    568.740    606.270    570.051    568.740    568.740
 35.170    612.000    599.863     12.137    568.325    598.645    569.541    568.325    568.325
 35.270    605.000    594.491     10.509    567.911    593.342    569.059    567.911    567.911
 35.370    595.662    590.449      5.212    567.499    589.352    568.595    567.499    567.499
 35.470    586.690    587.250     -0.560    567.087    586.193    568.143    567.087    567.087
 35.570    551.000    584.632    -33.632    566.677    583.609    567.700    566.677    566.677
 35.670    571.000    582.443    -11.443    566.268    581.446    567.266    566.268    566.268
 35.770    548.000    580.581    -32.581    565.861    579.604    566.838    565.861    565.861
 35.870    541.153    578.975    -37.822    565.455    578.012    566.418    565.455    565.455
 35.970    506.000    577.573    -71.573    565.051    576.620    566.003    565.051    565.051
 36.070    617.729    576.335     41.394    564.648    575.387    565.595    564.648    564.648
 36.170    540.000    575.234    -35.234    564.246    574.285    565.193    564.246    564.246
 36.270    569.000    574.246     -5.246    563.846    573.293    564.799    563.846    563.846
 36.370    530.000    573.356    -43.356    563.447    572.392    564.411    563.447    563.447
 36.470    576.009    572.551      3.457    563.050    571.569    564.031    563.050    563.050
 36.570    561.000    571.824    -10.824    562.654    570.817    563.661    562.654    562.654
 36.670    582.027    571.169     10.858    562.260    570.127    563.301    562.260    562.260
 36.770    542.000    570.584    -28.584    561.867    569.497    562.954    561.867    561.867
 36.870    531.310    570.073    -38.762    561.476    568.926    562.622    561.476    561.476
 36.970    550.000    569.648    -19.648    561.086    568.424    562.309    561.086    561.086
 37.070    582.000    569.341     12.659    560.698    568.016    562.023    560.698    560.698
 37.170    521.001    569.226    -48.225    560.311    567.765    561.772    560.311    560.311
 37.270    565.000    569.457     -4.457    559.927    567.804    561.580    559.927    559.927
 37.370    570.000    570.296     -0.296    559.543    568.352    561.488    559.543    559.543
 37.470    571.000    572.102     -1.102    559.162    569.687    561.577    559.162    559.162
 37.570    577.161    575.210      1.951    558.782    572.012    561.981    558.782    558.782
 37.670    584.000    579.707      4.293    558.403    575.219    562.893    558.403    558.403
 37.770    564.000    585.133    -21.133    558.027    578.644    564.519    558.027    558.027
 37.870    540.000    590.315    -50.315    557.652    580.991    566.980    557.652    557.652
 37.970    572.000    593.854    -21.854    557.279    580.987    570.152    557.279    557.279
 38.070    541.000    595.069    -54.069    556.907    578.525    573.458    556.907    556.907
 38.170    582.478    593.936    -11.458    556.537    574.715    575.766    556.537    556.537
 38.270    634.500    590.421     44.079    556.169    570.760    575.839    556.169    556.169
 38.370    574.000    584.957    -10.957    555.803    567.352    573.415    555.803    555.803
 38.470    553.000    578.822    -25.822    555.438    564.745    569.522    555.438    555.438
 38.570    518.454    573.261    -54.807    555.076    562.891    565.450    555.076    555.076
 38.670    536.966    568.849    -31.882    554.715    561.598    561.968    554.715    554.715
 38.770    567.467    565.634      1.833    554.356    560.669    559.322    554.356    554.356
 38.870    507.000    563.410    -56.410    553.998    559.961    557.449    553.998    553.998
 38.970    594.091    561.894     32.197    553.643    559.384    556.154    553.643    553.643
 39.070    538.000    560.829    -22.829    553.289    558.887    555.232    553.289    553.289
 39.170    559.000    560.030     -1.030    552.937    558.440    554.528    552.937    552.937
 39.270    611.452    559.383     52.069    552.587    558.027    553.944    552.587    552.587
 39.370    514.178    558.827    -44.649    552.239    557.638    553.428    552.239    552.239
 39.470    566.000    558.330      7.670    551.893    557.270    552.953    551.893    551.893
 39.570    541.000    557.876    -16.876    551.548    556.917    552.507    551.548    551.548
 39.670    589.763    557.456     32.307    551.206    556.580    552.082    551.206    551.206
 39.770    546.000    557.064    -11.064    550.865    556.256    551.674    550.865    550.865
 39.870    509.000    556.697    -47.697    550.526    555.946    551.278    550.526    550.526
 39.970    512.283    556.351    -44.067    550.190    555.648    550.893    550.190    550.190
 40.070    546.000    556.024    -10.024    549.855    555.362    550.517    549.855    549.855
 40.170    554.000    555.716     -1.716    549.522    555.090    550.149    549.522    549.522
 40.270    545.000    555.427    -10.427    549.191    554.831    549.788    549.191    549.191
 40.370    541.000    555.156    -14.156    548.862    554.586    549.432    548.862    548.862
 40.470    530.961    554.903    -23.942    548.535    554.357    549.082    548.535    548.535
 40.570    509.000    554.670    -45.670    548.210    554.144    548.737    548.210    548.210
 40.670    512.000    554.458    -42.458    547.887    553.949    548.397    547.887    547.887
 40.770    503.000    554.270    -51.270    547.566    553.776    548.060    547.566    547.566
 40.870    517.611    554.106    -36.495    547.247    553.626    547.728    547.247    547.247
 40.970    539.000    553.973    -14.973    546.930    553.503    547.400    546.930    546.930
 41.070    541.000    553.872    -12.872    546.615    553.413    547.075    546.615    546.615
 41.170    508.000    553.812    -45.812    546.302    553.361    546.754    546.302    546.302
 41.270    493.000    553.799    -60.799    545.991    553.354    546.437    545.991    545.991
 41.370    523.000    553.844    -30.844    545.682    553.404    546.123    545.682    545.682
 41.470    572.000    553.961     18.039    545.375    553.524    545.814    545.375    545.375
 41.570    572.000    554.169     17.831    545.070    553.733    545.508    545.070    545.070
 41.670    545.362    554.500     -9.138    544.767    554.062    545.207    544.767    544.767
 41.770    557.097    555.004      2.093    544.466    554.561    544.911    544.466    544.466
 41.870    525.116    555.780    -30.664    544.168    555.328    544.622    544.168    544.168
 41.970    510.000    557.018    -47.018    543.871    556.550    544.343    543.871    543.871
 42.070    588.235    559.073     29.162    543.577    558.575    544.078    543.577    543.577
 42.170    570.649    562.545      8.105    543.284    561.997    543.838    543.284    543.284
 42.270    528.000    568.311    -40.311    542.994    567.679    543.635    542.994    542.994
 42.370    592.136    577.410     14.726    542.706    576.644    543.485    542.706    542.706
 42.470    589.000    590.692     -1.692    542.419    589.729    543.402    542.419    542.419
 42.570    578.000    608.231    -30.231    542.135    607.009    543.386    542.135    542.135
 42.670    619.000    628.544     -9.544    541.853    627.022    543.414    541.853    541.853
 42.770    619.000    647.747    -28.747    541.574    645.942    543.428    541.574    541.574
 42.870    710.937    659.674     51.263    541.296    657.693    543.333    541.296    541.296
 42.970    639.072    659.051    -19.978    541.020    657.081    543.050    541.020    541.020
 43.070    642.863    646.098     -3.235    540.747    644.319    542.580    540.747    540.747
 43.170    596.000    626.282    -30.282    540.476    624.796    542.007    540.476    540.476
 43.270    552.003    605.663    -53.660    540.207    604.479    541.425    540.207    540.207
 43.370    563.852    587.961    -24.108    539.939    587.035    540.890    539.939    539.939
 43.470    577.565    574.543      3.022    539.675    573.813    540.422    539.675    539.675
 43.570    533.944    565.272    -31.327    539.412    564.675    540.020    539.412    539.412
 43.670    565.000    559.271      5.729    539.151    558.760    539.670    539.151    539.151
 43.770    562.518    555.507      7.012    538.893    555.049    539.356    538.893    538.893
 43.870    516.000    553.120    -37.120    538.637    552.694    539.066    538.637    538.637
 43.970    584.966    551.525     33.441    538.382    551.120    538.791    538.382    538.382
 44.070    538.000    550.381    -12.381    538.131    549.990    538.524    538.131    538.131
 44.170    600.228    549.504     50.724    537.881    549.123    538.264    537.881    537.881
 44.270    535.000    548.801    -13.801    537.633    548.427    538.009    537.633    537.633
 44.370    591.000    548.222     42.778    537.388    547.853    537.758    537.388    537.388
 44.470    552.000    547.737      4.263    537.144    547.372    537.511    537.144    537.144
 44.570    582.141    547.328     34.813    536.903    546.964    537.268    536.903    536.903
 44.670    540.371    546.981     -6.609    536.664    546.619    537.027    536.664    536.664
 44.770    517.000    546.686    -29.686    536.428    546.324    536.790    536.428    536.428
 44.870    571.567    546.438     25.130    536.193    546.075    536.556    536.193    536.193
 44.970    580.000    546.229     33.771    535.961    545.865    536.325    535.961    535.961
 45.070    581.000    546.057     34.943    535.730    545.690    536.097    535.730    535.730
 45.170    554.119    545.918      8.202    535.502    545.548    535.872    535.502    535.502
 45.270    511.000    545.810    -34.810    535.276    545.437    535.650    535.276    535.276
 45.370    532.000    545.733    -13.733    535.053    545.355    535.431    535.053    535.053
 45.470    490.926    545.686    -54.760    534.831    545.303    535.215    534.831    534.831
 45.570    541.000    545.668     -4.668    534.612    545.279    535.001    534.612    534.612
 45.670    509.261    545.681    -36.419    534.395    545.284    534.791    534.395    534.395
 45.770    562.000    545.724     16.276    534.180    545.320    534.584    534.180    534.180
 45.870    556.000    545.801     10.199    533.967    545.387    534.380    533.967    533.967
 45.970    549.000    545.912      3.088    533.756    545.489    534.179    533.756    533.756
 46.070    530.986    546.060    -15.074    533.548    545.626    533.981    533.548    533.548
 46.170    541.000    546.250     -5.250    533.342    545.803    533.787    533.342    533.342
 46.270    585.000    546.485     38.515    533.138    546.025    533.597    533.138    533.138
 46.370    510.868    546.770    -35.903    532.936    546.296    533.410    532.936    532.936
 46.470    588.726    547.115     41.612    532.736    546.623    533.227    532.736    532.736
 46.570    538.000    547.526     -9.526    532.539    547.015    533.048    532.539    532.539
 46.670    582.000    548.017     33.983    532.343    547.484    532.874    532.343    532.343
 46.770    561.000    548.604     12.396    532.150    548.047    532.705    532.150    532.150
 46.870    551.000    549.316      1.684    531.959    548.731    532.542    531.959    531.959
 46.970    511.167    550.200    -39.032    531.770    549.581    532.386    531.770    531.770
 47.070    574.585    551.341     23.243    531.584    550.682    532.240    531.584    531.584
 47.170    590.438    552.897     37.541    531.399    552.185    532.107    531.399    531.399
 47.270    562.691    555.131      7.560    531.217    554.347    531.995    531.217    531.217
 47.370    566.000    558.447      7.553    531.037    557.561    531.915    531.037    531.037
 47.470    577.000    563.376     13.624    530.859    562.343    531.880    530.859    530.859
 47.570    579.041    570.479      8.563    530.683    569.240    531.906    530.683    530.683
 47.670    597.000    580.145     16.855    530.509    578.629    532.002    530.509    530.509
 47.770    567.714    592.293    -24.578    530.338    590.432    532.168    530.338    530.338
 47.870    570.726    606.013    -35.287    530.168    603.763    532.379    530.168    530.168
 47.970    635.000    619.229     15.771    530.001    616.601    532.580    530.001    530.001
 48.070    691.000    628.752     62.248    529.836    625.846    532.689    529.836    529.836
 48.170    645.386    631.590     13.796    529.673    628.583    532.627    529.673    529.673
 48.270    641.000    627.195     13.805    529.513    624.280    532.380    529.513    529.513
 48.370    646.000    618.039     27.961    529.354    615.340    532.014    529.354    529.354
 48.470    644.000    607.596     36.404    529.197    605.142    531.620    529.197    529.197
 48.570    578.000    598.456    -20.456    529.043    596.208    531.269    529.043    529.043
 48.670    619.756    591.975     27.781    528.891    589.853    530.997    528.891    528.891
 48.770    556.000    588.576    -32.576    528.741    586.488    530.817    528.741    528.741
 48.870    581.000    588.134     -7.134    528.593    585.990    530.728    528.593    528.593
 48.970    611.000    590.312     20.688    528.447    588.028    530.724    528.447    528.447
 49.070    580.000    594.839    -14.839    528.303    592.334    530.803    528.303    528.303
 49.170    612.000    601.734     10.266    528.161    598.918    530.971    528.161    528.161
 49.270    585.505    611.547    -26.042    528.022    608.304    531.258    528.022    528.022
 49.370    577.000    625.789    -48.789    527.884    621.934    531.731    527.884    527.884
 49.470    597.890    647.686    -49.796    527.749    642.896    532.527    527.749    527.749
 49.570    744.262    683.309     60.953    527.616    677.000    533.906    527.616    527.616
 49.670    764.460    742.672     21.789    527.485    733.833    536.292    527.485    527.485
 49.770    786.000    839.848    -53.848    527.356    826.871    540.283    527.356    527.356
 49.870    953.722    990.655    -36.933    527.229    971.259    546.550    527.229    527.229
 49.970   1260.483   1206.861     53.622    527.104   1178.271    555.593    527.104    527.104
 50.070   1347.000   1487.333   -140.333    526.981   1446.830    567.364    526.981    526.981
 50.170   1841.000   1807.956     33.044    526.860   1753.856    580.840    526.860    526.860
 50.270   2006.210   2113.321   -107.112    526.741   2046.308    593.666    526.741    526.741
 50.370   2379.000   2319.835     59.165    526.624   2244.149    602.294    526.624    526.624
 50.470   2379.000   2350.339     28.661    526.510   2273.480    603.441    526.510    526.510
 50.570   2274.000   2191.663     82.337    526.397   2121.662    596.537    526.397    526.397
 50.670   2027.000   1907.907    119.093    526.286   1850.070    584.287    526.286    526.286
 50.770   1589.534   1587.888      1.646    526.178   1543.780    570.442    526.178    526.178
 50.870   1207.000   1297.486    -90.486    526.071   1265.910    557.779    526.071    526.071
 50.970   1069.481   1069.538     -0.058    525.966   1047.926    547.680    525.966    525.966
 51.070    808.000    910.582   -102.582    525.864    896.090    540.432    525.864    525.864
 51.170    717.000    810.594    -93.594    525.763    800.765    535.652    525.763    525.763
 51.270    717.000    752.262    -35.262    525.665    745.287    532.690    525.665    525.665
 51.370    688.669    718.024    -29.356    525.568    712.719    530.917    525.568    525.568
 51.470    674.000    694.424    -20.424    525.473    690.069    529.868    525.473    525.473
 51.570    731.938    674.067     57.871    525.381    670.227    529.256    525.381    525.381
 51.670    662.000    654.878      7.122    525.290    651.274    528.923    525.290    525.290
 51.770    606.000    637.441    -31.441    525.201    633.880    528.785    525.201    525.201
 51.870    579.505    622.769    -43.264    525.115    619.121    528.778    525.115    525.115
 51.970    629.666    611.405     18.261    525.030    607.614    528.832    525.030    525.030
 52.070    601.055    603.290     -2.235    524.947    599.395    528.850    524.947    524.947
 52.170    596.000    597.942     -1.942    524.866    594.086    528.728    524.866    524.866
 52.270    608.916    594.775     14.140    524.787    591.153    528.413    524.787    524.787
 52.370    605.000    593.373     11.627    524.710    590.138    527.948    524.710    524.710
 52.470    600.000    593.593      6.407    524.634    590.804    527.426    524.634    524.634
 52.570    588.000    595.606     -7.606    524.561    593.239    526.931    524.561    524.561
 52.670    632.414    599.985     32.429    524.489    597.964    526.512    524.489    524.489
 52.770    607.000    607.883     -0.883    524.420    606.107    526.197    524.420    524.420
 52.870    622.000    621.249      0.751    524.352    619.608    525.993    524.352    524.352
 52.970    670.000    642.971     27.029    524.286    641.350    525.907    524.286    524.286
 53.070    651.873    676.748    -24.875    524.222    675.024    525.944    524.222    524.222
 53.170    758.000    726.468     31.532    524.160    724.511    526.113    524.160    524.160
 53.270    734.635    794.983    -60.348    524.100    792.655    526.422    524.100    524.100
 53.370    913.000    882.387     30.613    524.041    879.557    526.865    524.041    524.041
 53.470    965.203    984.025    -18.821    523.985    980.598    527.406    523.985    523.985
 53.570   1131.000   1088.479     42.521    523.930   1084.433    527.972    523.930    523.930
 53.670   1183.000   1176.457      6.543    523.877   1171.896    528.441    523.877    523.877
 53.770   1189.560   1224.339    -34.779    523.825   1219.515    528.661    523.825    523.825
 53.870   1245.000   1216.059     28.941    523.776   1211.323    528.533    523.776    523.776
 53.970   1129.000   1154.904    -25.904    523.728   1150.584    528.075    523.728    523.728
 54.070   1013.000   1060.670    -47.670    523.682   1056.969    527.412    523.682    523.682
 54.170    890.000    956.339    -66.339    523.638    953.316    526.689    523.638    523.638
 54.270    853.000    858.885     -5.885    523.596    856.492    526.011    523.596    523.596
 54.370    738.290    777.580    -39.290    523.555    775.715    525.438    523.555    523.555
 54.470    772.000    715.510     56.490    523.516    714.050    524.989    523.516    523.516
 54.570    670.000    671.594     -1.594    523.479    670.427    524.656    523.479    523.479
 54.670    701.156    642.530     58.626    523.443    641.562    524.418    523.443    523.443
 54.770    636.000    624.387     11.613    523.409    623.551    524.250    523.409    523.409
 54.870    560.175    613.660    -53.486    523.377    612.911    524.130    523.377    523.377
 54.970    653.000    607.728     45.272    523.347    607.036    524.041    523.347    523.347
 55.070    687.000    604.873     82.127    523.318    604.220    523.972    523.318    523.318
 55.170    636.624    604.096     32.528    523.291    603.472    523.916    523.291    523.291
 55.270    641.000    604.881     36.119    523.265    604.279    523.868    523.265    523.265
 55.370    569.633    607.008    -37.375    523.242    606.424    523.826    523.242    523.242
 55.470    640.000    610.417     29.583    523.219    609.864    523.773    523.219    523.219
 55.570    627.000    615.269     11.731    523.199    614.729    523.739    523.199    523.199
 55.670    592.000    621.813    -29.813    523.180    621.278    523.715    523.180    523.180
 55.770    645.000    630.558     14.442    523.162    630.024    523.695    523.162    523.162
 55.870    672.000    642.471     29.529    523.147    641.936    523.680    523.147    523.147
 55.970    603.000    659.328    -56.328    523.132    658.788    523.669    523.132    523.132
 56.070    700.000    684.236     15.764    523.120    683.687    523.662    523.120    523.120
 56.170    710.000    722.261    -12.261    523.109    721.698    523.659    523.109    523.109
 56.270    763.000    780.907    -17.907    523.099    780.325    523.661    523.099    523.099
 56.370    838.000    870.002    -32.002    523.091    869.394    523.668    523.091    523.091
 56.470    964.371   1000.433    -36.061    523.084    999.794    523.680    523.084    523.084
 56.570   1076.000   1181.372   -105.372    523.079   1180.701    523.697    523.079    523.079
 56.670   1362.000   1416.115    -54.115    523.076   1415.411    523.721    523.076    523.076
 56.770   1697.187   1697.138      0.049    523.074   1696.407    523.750    523.074    523.074
 56.870   1894.628   2001.043   -106.415    523.073   2000.298    523.787    523.073    523.073
 56.970   2311.000   2284.436     26.564    523.074   2283.694    523.830    523.074    523.074
 57.070   2584.992   2485.915     99.077    523.077   2485.191    523.881    523.077    523.077
 57.170   2653.000   2545.880    107.120    523.080   2545.170    523.941    523.080    523.080
 57.270   2473.000   2443.401     29.599    523.086   2442.675    524.011    523.086    523.086
 57.370   2255.000   2213.496     41.504    523.092   2212.710    524.093    523.092    523.092
 57.470   1862.000   1920.439    -58.439    523.100   1919.549    524.192    523.100    523.100
 57.570   1534.488   1622.100    -87.611    523.110   1621.067    524.315    523.110    523.110
 57.670   1273.000   1356.024    -83.024    523.121   1354.809    524.471    523.121    523.121
 57.770   1077.725   1140.631    -62.906    523.133   1139.183    524.681    523.133    523.133
 57.870    909.000    980.076    -71.076    523.147    978.321    524.971    523.147    523.147
 57.970    915.389    869.499     45.889    523.162    867.286    525.420    523.162    523.162
 58.070    814.288    799.840     14.448    523.178    796.925    526.120    523.178    523.178
 58.170    712.000    761.802    -49.802    523.195    757.802    527.209    523.195    523.195
 58.270    723.000    748.182    -25.182    523.214    742.544    528.855    523.214    523.214
 58.370    798.709    754.569     44.141    523.235    746.567    531.229    523.235    523.235
 58.470    826.000    778.806     47.194    523.256    767.605    534.442    523.256    523.256
 58.570    842.000    819.791     22.209    523.279    804.574    538.472    523.279    523.279
 58.670    817.979    876.015    -58.036    523.303    856.196    543.091    523.303    523.303
 58.770    929.000    944.085    -15.085    523.328    919.581    547.797    523.328    523.328
 58.870   1019.000   1017.663      1.337    523.355    989.184    551.800    523.355    523.355
 58.970   1061.000   1088.182    -27.182    523.382   1057.329    554.208    523.382    523.382
 59.070   1105.000   1148.166    -43.166    523.411   1117.067    554.493    523.411    523.411
 59.170   1118.000   1193.479    -75.479    523.441   1164.098    552.818    523.441    523.441
 59.270   1270.000   1221.023     48.977    523.473   1194.715    549.787    523.473    523.473
 59.370   1310.038   1227.207     82.832    523.505   1204.715    546.013    523.505    523.505
 59.470   1265.000   1212.426     52.574    523.539   1193.997    541.986    523.539    523.539
 59.570   1215.000   1185.249     29.751    523.574   1170.704    538.127    523.574    523.574
 59.670   1186.993   1158.774     28.219    523.610   1147.611    534.760    523.610    523.610
 59.770   1179.806   1144.159     35.647    523.647   1135.709    532.052    523.647    523.647
 59.870   1103.000   1148.292    -45.292    523.685   1141.872    530.021    523.685    523.685
 59.970   1127.754   1175.164    -47.410    523.724   1170.167    528.595    523.724    523.724
 60.070   1341.000   1226.788    114.212    523.765   1222.720    527.663    523.765    523.765
 60.170   1323.000   1301.151     21.849    523.806   1297.644    527.103    523.806    523.806
 60.270   1398.000   1388.986      9.014    523.848   1385.793    526.801    523.848    523.848
 60.370   1573.000   1472.085    100.915    523.892   1469.072    526.650    523.892    523.892
 60.470   1566.000   1525.302     40.698    523.937   1522.432    526.561    523.937    523.937
 60.570   1654.000   1525.327    128.673    523.982   1522.632    526.463    523.982    523.982
 60.670   1559.000   1464.280     94.720    524.029   1461.813    526.322    524.029    524.029
 60.770   1377.232   1355.188     22.045    524.076   1352.991    526.142    524.076    524.076
 60.870   1323.000   1222.298    100.702    524.125   1220.379    525.949    524.125    524.125
 60.970   1177.000   1088.277     88.723    524.174   1086.616    525.768    524.174    524.174
 61.070   1015.000    968.716     46.284    524.225    967.274    525.619    524.225    524.225
 61.170    874.942    872.123      2.819    524.276    870.851    525.513    524.276    524.276
 61.270    777.000    801.568    -24.568    524.328    800.412    525.455    524.328    524.328
 61.370    796.000    756.683     39.317    524.382    755.589    525.446    524.382    524.382
 61.470    803.000    735.685     67.315    524.436    734.598    525.490    524.436    524.436
 61.570    795.528    737.027     58.500    524.491    735.888    525.591    524.491    524.491
 61.670    753.000    760.274     -7.274    524.547    759.013    525.756    524.547    524.547
 61.770    823.467    805.988     17.479    524.603    804.529    525.994    524.603    524.603
 61.870    888.000    874.735     13.265    524.661    872.993    526.313    524.661    524.661
 61.970    957.000    965.512     -8.512    524.719    963.406    526.711    524.719    524.719
 62.070   1030.849   1074.014    -43.165    524.779   1071.478    527.175    524.779    524.779
 62.170   1193.900   1191.017      2.883    524.839   1188.023    527.672    524.839    524.839
 62.270   1314.000   1301.156     12.844    524.899   1297.736    528.145    524.899    524.899
 62.370   1346.000   1383.395    -37.395    524.961   1379.665    528.519    524.961    524.961
 62.470   1368.628   1416.478    -47.850    525.023   1412.634    528.715    525.023    525.023
 62.570   1341.000   1390.004    -49.004    525.086   1386.277    528.696    525.086    525.086
 62.670   1333.760   1311.623     22.138    525.150   1308.203    528.490    525.150    525.150
 62.770   1187.000   1201.420    -14.420    525.215   1198.417    528.171    525.215    525.215
 62.870   1019.000   1080.747    -61.747    525.280   1078.186    527.818    525.280    525.280
 62.970    909.305    965.769    -56.463    525.346    963.615    527.491    525.346    525.346
 63.070    781.000    866.296    -85.296    525.412    864.481    527.226    525.412    525.412
 63.170    730.018    786.680    -56.662    525.479    785.119    527.041    525.479    525.479
 63.270    696.000    727.175    -31.175    525.547    725.785    526.938    525.547    525.547
 63.370    695.000    685.438      9.562    525.616    684.142    526.910    525.616    525.616
 63.470    710.198    657.972     52.226    525.685    656.704    526.948    525.685    525.685
 63.570    654.000    641.280     12.720    525.755    639.983    527.044    525.755    525.755
 63.670    646.000    632.603     13.397    525.825    631.220    527.197    525.825    525.825
 63.770    655.000    630.243     24.757    525.896    628.708    527.417    525.896    525.896
 63.870    665.000    633.603     31.397    525.967    631.828    527.725    525.967    525.967
 63.970    697.389    643.040     54.349    526.039    640.896    528.159    526.039    526.039
 64.070    684.000    659.606     24.394    526.112    656.911    528.776    526.112    526.112
 64.170    723.205    684.696     38.510    526.185    681.193    529.645    526.185    526.185
 64.270    766.000    719.583     46.417    526.258    714.937    530.849    526.258    526.258
 64.370    799.000    764.862     34.138    526.332    758.664    532.459    526.332    526.332
 64.470    894.000    819.832     74.168    526.407    811.628    534.522    526.407    526.407
 64.570    888.650    881.866      6.784    526.482    871.216    537.026    526.482    526.482
 64.670   1035.000    945.849     89.151    526.557    932.413    539.872    526.557    526.557
 64.770    971.012   1004.065    -33.053    526.633    987.715    542.853    526.633    526.633
 64.870   1064.000   1047.351     16.649    526.709   1028.289    545.641    526.709    526.709
 64.970   1068.357   1067.988      0.369    526.786   1046.840    547.814    526.786    526.786
 65.070   1014.200   1062.852    -48.652    526.863   1040.666    548.948    526.863    526.863
 65.170   1049.000   1034.453     14.547    526.941   1012.540    548.776    526.941    526.941
 65.270   1045.000    989.544     55.456    527.018    969.165    547.345    527.018    527.018
 65.370    972.000    936.513     35.487    527.096    918.585    544.995    527.096    527.096
 65.470    973.000    882.792     90.208    527.175    867.767    542.190    527.175    527.175
 65.570    848.000    833.275     14.725    527.254    821.192    539.342    527.254    527.254
 65.670    811.003    790.086     20.917    527.333    780.695    536.739    527.333    527.333
 65.770    734.716    753.328    -18.612    527.412    746.220    534.543    527.412    527.412
 65.870    706.000    722.295    -16.295    527.492    717.000    532.809    527.492    527.492
 65.970    657.000    696.363    -39.363    527.572    692.434    531.522    527.572    527.572
 66.070    688.000    675.135     12.865    527.652    672.186    530.619    527.652    527.652
 66.170    608.000    658.288    -50.288    527.732    656.018    530.016    527.732    527.732
 66.270    692.714    645.469     47.245    527.813    643.658    529.633    527.813    527.813
 66.370    671.496    636.308     35.189    527.893    634.806    529.400    527.893    527.893
 66.470    649.554    630.452     19.102    527.974    629.163    529.267    527.974    527.974
 66.570    638.000    627.591     10.409    528.055    626.452    529.196    528.055    528.055
 66.670    619.199    627.490     -8.291    528.137    626.461    529.166    528.137    528.137
 66.770    681.895    630.054     51.840    528.218    629.109    529.164    528.218    528.218
 66.870    648.000    635.443     12.557    528.300    634.561    529.181    528.300    528.300
 66.970    609.664    644.231    -34.567    528.381    643.397    529.215    528.381    528.381
 67.070    714.664    657.611     57.053    528.463    656.808    529.265    528.463    528.463
 67.170    672.000    677.635     -5.635    528.545    676.846    529.332    528.545    528.545
 67.270    691.000    707.446    -16.446    528.627    706.650    529.419    528.627    528.627
 67.370    773.000    751.416     21.584    528.709    750.585    529.533    528.709    528.709
 67.470    771.000    815.037    -44.037    528.791    814.136    529.681    528.791    528.791
 67.570    913.000    904.415      8.585    528.873    903.402    529.871    528.873    528.873
 67.670   1023.000   1025.261     -2.261    528.955   1024.087    530.111    528.955    528.955
 67.770   1158.000   1181.373    -23.373    529.037   1179.986    530.408    529.037    529.037
 67.870   1357.000   1372.799    -15.799    529.119   1371.149    530.760    529.119    529.119
 67.970   1550.000   1593.927    -43.927    529.201   1591.976    531.159    529.201    529.201
 68.070   1819.000   1831.732    -12.732    529.283   1829.465    531.585    529.283    529.283
 68.170   2136.000   2064.407     71.593    529.364   2061.843    532.005    529.364    529.364
 68.270   2262.000   2261.421      0.579    529.446   2258.625    532.372    529.446    529.446
 68.370   2394.061   2387.859      6.202    529.528   2384.945    532.633    529.528    529.528
 68.470   2432.734   2415.778     16.956    529.610   2412.888    532.747    529.610    529.610
 68.570   2321.000   2338.202    -17.202    529.691   2335.475    532.702    529.691    529.691
 68.670   2092.407   2173.441    -81.035    529.772   2170.983    532.526    529.772    529.772
 68.770   2018.992   1954.829     64.163    529.854   1952.695    532.270    529.854    529.854
 68.870   1805.168   1716.370     88.798    529.935   1714.574    531.984    529.935    529.935
 68.970   1386.000   1484.635    -98.635    530.015   1483.157    531.708    530.015    530.015
 69.070   1172.000   1277.036   -105.036    530.096   1275.836    531.470    530.096    530.096
 69.170   1117.274   1102.766     14.507    530.177   1101.796    531.282    530.177    530.177
 69.270    980.000    964.434     15.566    530.257    963.643    531.149    530.257    530.257
 69.370    832.000    859.907    -27.907    530.337    859.250    531.068    530.337    530.337
 69.470    759.396    784.215    -24.818    530.417    783.654    531.030    530.417    530.417
 69.570    712.553    731.260    -18.707    530.496    730.767    531.026    530.496    530.496
 69.670    723.000    695.103     27.897    530.575    694.656    531.049    530.575    530.575
 69.770    688.930    670.709     18.221    530.654    670.293    531.089    530.654    530.654
 69.870    656.619    654.238      2.381    530.733    653.843    531.141    530.733    530.733
 69.970    592.147    642.994    -50.847    530.811    642.613    531.202    530.811    530.811
 70.070    640.715    635.214      5.501    530.889    634.842    531.267    530.889    530.889
 70.170    597.000    629.812    -32.812    530.967    629.447    531.337    530.967    530.967
 70.270    659.150    626.159     32.991    531.044    625.797    531.409    531.044    531.044
 70.370    639.000    623.915     15.085    531.121    623.553    531.484    531.121    531.121
 70.470    612.000    622.931    -10.931    531.197    622.567    531.561    531.197    531.197
 70.570    594.000    623.205    -29.205    531.273    622.837    531.640    531.273    531.273
 70.670    652.000    624.879     27.121    531.349    624.503    531.721    531.349    531.349
 70.770    603.731    628.282    -24.552    531.424    627.895    531.807    531.424    531.424
 70.870    624.000    634.007    -10.007    531.499    633.601    531.897    531.499    531.499
 70.970    623.000    643.020    -20.020    531.574    642.588    531.994    531.574    531.574
 71.070    649.000    656.792     -7.792    531.647    656.321    532.101    531.647    531.647
 71.170    630.345    677.408    -47.063    531.721    676.881    532.224    531.721    531.721
 71.270    709.893    707.616      2.277    531.794    707.009    532.368    531.794    531.794
 71.370    732.563    750.733    -18.170    531.866    750.012    532.541    531.866    531.866
 71.470    794.000    810.343    -16.343    531.938    809.467    532.751    531.938    531.938
 71.570    882.000    889.745     -7.745    532.009    888.665    533.005    532.009    532.009
 71.670    976.000    991.167    -15.167    532.080    989.828    533.310    532.080    532.080
 71.770   1080.000   1114.825    -34.825    532.150   1113.173    533.665    532.150    532.150
 71.870   1297.000   1257.962     39.038    532.220   1255.951    534.065    532.220    532.220
 71.970   1480.817   1413.957     66.860    532.289   1411.559    534.494    532.289    532.289
 72.070   1607.178   1571.590     35.588    532.357   1568.806    534.927    532.357    532.357
 72.170   1683.000   1714.753    -31.753    532.425   1711.626    535.328    532.425    532.425
 72.270   1829.000   1823.636      5.364    532.492   1820.257    535.653    532.492    532.492
 72.370   1971.750   1879.035     92.715    532.559   1875.538    535.857    532.559    532.559
 72.470   1867.000   1869.559     -2.559    532.624   1866.104    535.916    532.624    532.624
 72.570   1847.326   1797.214     50.112    532.690   1793.945    535.834    532.690    532.690
 72.670   1626.000   1676.281    -50.281    532.754   1673.305    535.642    532.754    532.754
 72.770   1558.000   1526.676     31.324    532.818   1524.050    535.386    532.818    532.818
 72.870   1383.000   1367.384     15.616    532.881   1365.122    535.109    532.881    532.881
 72.970   1222.000   1213.167      8.833    532.943   1211.250    534.841    532.943    532.943
 73.070   1024.840   1073.913    -49.073    533.005   1072.304    534.606    533.005    533.005
 73.170    998.439    955.093     43.347    533.066    953.743    534.413    533.066    533.066
 73.270    903.000    858.552     44.448    533.126    857.411    534.267    533.126    533.126
 73.370    857.000    783.432     73.568    533.185    782.452    534.167    533.185    533.185
 73.470    727.505    727.149      0.356    533.243    726.285    534.108    533.243    533.243
 73.570    744.916    686.289     58.627    533.301    685.504    534.085    533.301    533.301
 73.670    655.000    657.337     -2.337    533.358    656.598    534.096    533.358    533.358
 73.770    597.056    637.152    -40.097    533.414    636.430    534.135    533.414    533.414
 73.870    664.000    623.207     40.793    533.469    622.473    534.203    533.469    533.469
 73.970    604.296    613.629     -9.333    533.523    612.855    534.300    533.523    533.523
 74.070    609.546    607.125      2.421    533.577    606.279    534.426    533.577    533.577
 74.170    590.000    602.846    -12.846    533.629    601.898    534.585    533.629    533.629
 74.270    610.000    600.248      9.752    533.681    599.163    534.776    533.681    533.681
 74.370    623.000    598.963     24.037    533.732    597.711    534.998    533.732    533.732
 74.470    640.000    598.707     41.293    533.782    597.260    535.248    533.782    533.782
 74.570    596.179    599.209     -3.030    533.831    597.547    535.517    533.831    533.831
 74.670    618.000    600.167     17.833    533.879    598.285    535.790    533.879    533.879
 74.770    669.000    601.224     67.776    533.926    599.135    536.049    533.926    533.926
 74.870    584.187    601.977    -17.790    533.972    599.715    536.272    533.972    533.972
 74.970    701.000    602.035     98.965    534.017    599.658    536.434    534.017    534.017
 75.070    715.000    601.136    113.864    534.061    598.717    536.522    534.061    534.061
 75.170    541.495    599.264    -57.769    534.104    596.873    536.534    534.104    534.104
 75.270    658.000    596.664     61.336    534.146    594.358    536.489    534.146    534.146
 75.370    697.000    593.767    103.233    534.187    591.573    536.413    534.187    534.187
 75.470    626.000    591.072     34.928    534.227    588.987    536.339    534.227    534.227
 75.570    615.067    589.082     25.985    534.266    587.071    536.297    534.266    534.266
 75.670    650.000    588.283     61.717    534.304    586.283    536.317    534.304    534.304
 75.770    605.000    589.149     15.851    534.341    587.069    536.428    534.341    534.341
 75.870    573.786    592.139    -18.353    534.376    589.860    536.656    534.376    534.376
 75.970    537.229    597.675    -60.446    534.411    595.055    537.025    534.411    534.411
 76.070    599.000    606.101     -7.101    534.445    602.978    537.554    534.445    534.445
 76.170    595.000    617.621    -22.621    534.477    613.822    538.255    534.477    534.477
 76.270    672.669    632.220     40.449    534.508    627.574    539.125    534.508    534.508
 76.370    706.055    649.582     56.472    534.538    643.935    540.149    534.538    534.538
 76.470    715.653    669.015     46.637    534.567    662.252    541.286    534.567    534.567
 76.570    690.545    689.377      1.169    534.595    681.446    542.473    534.595    534.595
 76.670    688.701    709.031    -20.329    534.622    699.974    543.618    534.622    534.622
 76.770    751.000    725.873     25.127    534.647    715.850    544.606    534.647    534.647
 76.870    759.000    737.565     21.435    534.671    726.865    545.306    534.671    534.671
 76.970    792.719    742.102     50.617    534.694    731.126    545.606    534.694    534.694
 77.070    748.000    738.569      9.431    534.716    727.769    545.456    534.716    534.716
 77.170    748.821    727.562     21.259    534.737    717.357    544.889    534.737    534.737
 77.270    761.000    710.896     50.104    534.756    701.602    544.006    534.756    534.756
 77.370    766.000    690.865     75.135    534.774    682.669    542.935    534.774    534.774
 77.470    686.206    669.620     16.585    534.791    662.588    541.794    534.791    534.791
 77.570    623.864    648.865    -25.001    534.806    642.970    540.680    534.806    534.806
 77.670    605.000    629.797    -24.797    534.821    624.943    539.658    534.821    534.821
 77.770    607.000    613.141     -6.141    534.834    609.194    538.769    534.834    534.834
 77.870    611.000    599.221     11.779    534.845    596.026    538.031    534.845    534.845
 77.970    613.000    588.038     24.962    534.856    585.442    537.444    534.856    534.856
 78.070    546.662    579.367    -32.705    534.865    577.230    536.997    534.865    534.865
 78.170    551.000    572.848    -21.848    534.872    571.048    536.668    534.872    534.872
 78.270    553.645    568.075    -14.430    534.879    566.513    536.437    534.879    534.879
 78.370    540.000    564.651    -24.651    534.884    563.252    536.280    534.884    534.884
 78.470    563.000    562.228      0.772    534.887    560.933    536.180    534.887    534.887
 78.570    573.609    560.526     13.084    534.889    559.294    536.119    534.889    534.889
 78.670    511.232    559.336    -48.104    534.890    558.136    536.089    534.890    534.890
 78.770    557.000    558.514     -1.514    534.890    557.322    536.079    534.890    534.890
 78.870    518.480    557.962    -39.482    534.888    556.762    536.086    534.888    534.888
 78.970    530.000    557.626    -27.626    534.884    556.401    536.108    534.884    534.884
 79.070    550.000    557.475     -7.475    534.880    556.211    536.142    534.880    534.880
 79.170    587.000    557.501     29.499    534.873    556.184    536.189    534.873    534.873
 79.270    540.000    557.712    -17.712    534.866    556.324    536.253    534.866    534.866
 79.370    526.078    558.127    -32.049    534.857    556.648    536.334    534.857    534.857
 79.470    575.000    558.774     16.226    534.846    557.179    536.440    534.846    534.846
 79.570    511.113    559.696    -48.583    534.834    557.950    536.578    534.834    534.834
 79.670    579.454    560.944     18.510    534.821    559.001    536.761    534.821    534.821
 79.770    558.000    562.589     -4.589    534.806    560.384    537.008    534.806    534.806
 79.870    587.466    564.722     22.744    534.789    562.163    537.345    534.789    534.789
 79.970    588.000    567.464     20.536    534.771    564.421    537.810    534.771    534.771
 80.070    544.000    570.977    -26.977    534.752    567.269    538.454    534.752    534.752
 80.170    600.000    575.460     24.540    534.731    570.846    539.340    534.731    534.731
 80.270    614.000    581.158     32.842    534.708    575.320    540.541    534.708    534.708
 80.370    605.000    588.352     16.648    534.684    580.893    542.138    534.684    534.684
 80.470    636.937    597.344     39.593    534.659    587.791    544.206    534.659    534.659
 80.570    631.000    608.447     22.553    534.632    596.266    546.808    534.632    534.632
 80.670    626.000    621.942      4.058    534.603    606.570    549.972    534.603    534.603
 80.770    635.000    638.021     -3.021    534.573    618.913    553.681    534.573    534.573
 80.870    614.000    656.697    -42.697    534.541    633.391    557.849    534.541    534.541
 80.970    683.000    677.702      5.298    534.508    649.904    562.312    534.508    534.508
 81.070    736.000    700.410     35.590    534.473    668.080    566.815    534.473    534.473
 81.170    699.000    723.805    -24.805    534.436    687.242    571.017    534.436    534.436
 81.270    758.000    746.541     11.459    534.398    706.440    574.523    534.398    534.398
 81.370    753.000    767.140    -14.140    534.358    724.573    576.957    534.358    534.358
 81.470    766.000    784.274    -18.274    534.317    740.578    578.052    534.317    534.317
 81.570    766.000    796.971    -30.971    534.274    753.581    577.711    534.274    534.274
 81.670    807.000    804.677      2.323    534.229    762.952    576.009    534.229    534.229
 81.770    792.000    807.242    -15.242    534.183    768.336    573.149    534.183    534.183
 81.870    845.115    804.892     40.223    534.135    769.664    569.429    534.135    534.135
 81.970    871.000    798.130     72.870    534.085    767.087    565.197    534.085    534.085
 82.070    773.000    787.572    -14.572    534.034    760.876    560.803    534.034    534.034
 82.170    748.000    773.870    -25.870    533.981    751.384    556.541    533.981    533.981
 82.270    770.000    757.766     12.234    533.927    739.139    552.626    533.927    533.927
 82.370    756.000    740.125     15.875    533.870    724.879    549.187    533.870    533.870
 82.470    697.474    721.824    -24.350    533.812    709.429    546.275    533.812    533.812
 82.570    653.000    703.575    -50.575    533.753    693.511    543.881    533.753    533.753
 82.670    677.000    685.835     -8.835    533.692    677.635    541.952    533.692    533.692
 82.770    668.467    668.871     -0.404    533.629    662.138    540.415    533.629    533.629
 82.870    651.000    652.897     -1.897    533.564    647.315    539.195    533.564    533.564
 82.970    591.000    638.172    -47.172    533.498    633.490    538.222    533.498    533.498
 83.070    587.000    624.988    -37.988    533.429    621.013    537.440    533.429    533.429
 83.170    663.745    613.614     50.130    533.360    610.197    536.806    533.360    533.360
 83.270    593.000    604.247    -11.247    533.288    601.267    536.289    533.288    533.288
 83.370    538.000    596.987    -58.987    533.215    594.350    535.865    533.215    533.215
 83.470    556.000    591.850    -35.850    533.140    589.476    535.520    533.140    533.140
 83.570    622.559    588.764     33.796    533.063    586.585    535.240    533.063    533.063
 83.670    591.000    587.578      3.422    532.985    585.536    535.018    532.985    532.985
 83.770    602.000    588.061     13.939    532.904    586.106    534.843    532.904    532.904
 83.870    623.148    589.900     33.248    532.822    587.991    534.709    532.822    532.822
 83.970    582.000    592.703    -10.703    532.739    590.809    534.604    532.739    532.739
 84.070    547.184    596.005    -48.821    532.653    594.104    534.519    532.653    532.653
 84.170    559.000    599.270    -40.270    532.566    597.355    534.442    532.566    532.566
 84.270    561.000    601.930    -40.930    532.477    600.004    534.361    532.477    532.477
 84.370    579.000    603.443    -24.443    532.386    601.521    534.264    532.386    532.386
 84.470    606.000    603.410      2.590    532.294    601.516    534.145    532.294    532.294
 84.570    609.000    601.682      7.318    532.199    599.842    533.998    532.199    532.199
 84.670    600.000    598.398      1.602    532.103    596.635    533.827    532.103    532.103
 84.770    649.000    593.914     55.086    532.005    592.246    533.639    532.005    532.005
 84.870    566.451    588.684    -22.233    531.906    587.116    533.443    531.906    531.906
 84.970    552.000    583.149    -31.149    531.804    581.678    533.249    531.804    531.804
 85.070    598.982    577.682     21.300    531.701    576.294    533.067    531.701    531.701
 85.170    582.821    572.572     10.250    531.596    571.243    532.906    531.596    531.596
 85.270    612.256    568.018     44.238    531.489    566.717    532.775    531.489    531.489
 85.370    546.000    564.142    -18.142    531.380    562.827    532.682    531.380    531.380
 85.470    555.000    560.996     -5.996    531.270    559.618    532.638    531.270    531.270
 85.570    509.000    558.581    -49.581    531.157    557.079    532.650    531.157    531.157
 85.670    519.230    556.859    -37.629    531.043    555.167    532.727    531.043    531.043
 85.770    598.000    555.772     42.228    530.927    553.815    532.877    530.927    530.927
 85.870    517.000    555.234    -38.234    530.810    552.934    533.102    530.810    530.810
 85.970    512.935    555.200    -42.264    530.690    552.477    533.404    530.690    530.690
 86.070    588.000    555.691     32.309    530.569    552.469    533.781    530.569    530.569
 86.170    528.438    556.649    -28.211    530.446    552.865    534.219    530.446    530.446
 86.270    555.000    558.074     -3.074    530.321    553.683    534.699    530.321    530.321
 86.370    555.000    559.989     -4.989    530.194    554.976    535.193    530.194    530.194
 86.470    591.000    562.440     28.560    530.065    556.826    535.662    530.065    530.065
 86.570    572.071    565.486      6.585    529.935    559.340    536.061    529.935    529.935
 86.670    611.764    569.198     42.566    529.802    562.637    536.339    529.802    529.802
 86.770    570.997    573.653     -2.657    529.668    566.842    536.450    529.668    529.668
 86.870    588.000    578.932      9.068    529.532    572.067    536.361    529.532    529.532
 86.970    582.560    585.110     -2.550    529.395    578.394    536.067    529.395    529.395
 87.070    555.000    592.236    -37.236    529.255    585.851    535.588    529.255    529.255
 87.170    619.000    600.302     18.698    529.114    594.388    534.965    529.114    529.114
 87.270    623.000    609.208     13.792    528.970    603.859    534.247    528.970    528.970
 87.370    587.000    618.739    -31.739    528.825    613.999    533.481    528.825    528.825
 87.470    646.000    628.537     17.463    528.679    624.412    532.709    528.679    528.679
 87.570    637.410    638.102     -0.692    528.530    634.567    531.960    528.530    528.530
 87.670    677.000    646.798     30.202    528.379    643.805    531.259    528.379    528.379
 87.770    640.000    653.901    -13.901    528.227    651.391    530.620    528.227    528.227
 87.870    705.617    658.714     46.903    528.073    656.619    530.048    528.073    528.073
 87.970    694.000    660.722     33.278    527.917    658.975    529.546    527.917    527.917
 88.070    677.000    659.751     17.249    527.759    658.288    529.110    527.759    527.759
 88.170    682.000    656.027     25.973    527.599    654.791    528.733    527.599    527.599
 88.270    676.000    650.103     25.897    527.438    649.042    528.407    527.438    527.438
 88.370    624.000    642.709    -18.709    527.275    641.781    528.123    527.275    527.275
 88.470    686.000    634.617     51.383    527.110    633.785    527.876    527.110    527.110
 88.570    630.689    626.553      4.136    526.943    625.784    527.658    526.943    526.943
 88.670    666.795    619.150     47.645    526.774    618.419    527.465    526.774    526.774
 88.770    593.000    612.922    -19.922    526.603    612.205    527.292    526.603    526.603
 88.870    606.234    608.241     -2.007    526.431    607.518    527.137    526.431    526.431
 88.970    585.000    605.329    -20.329    526.257    604.582    526.998    526.257    526.257
 89.070    626.380    604.248     22.132    526.081    603.461    526.872    526.081    526.081
 89.170    646.000    604.909     41.091    525.903    604.068    526.756    525.903    525.903
 89.270    552.000    607.077    -55.077    525.724    606.173    526.648    525.724    525.724
 89.370    610.000    610.390     -0.390    525.542    609.418    526.543    525.542    525.542
 89.470    606.000    614.371     -8.371    525.359    613.330    526.436    525.359    525.359
 89.570    671.249    618.449     52.800    525.175    617.345    526.322    525.175    525.175
 89.670    624.000    621.999      2.001    524.988    620.842    526.193    524.988    524.988
 89.770    590.000    624.402    -34.402    524.799    623.212    526.044    524.799    524.799
 89.870    596.133    625.152    -29.019    524.609    623.951    525.868    524.609    524.609
 89.970    631.000    623.963      7.037    524.417    622.776    525.664    524.417    524.417
 90.070    565.000    620.834    -55.834    524.223    619.686    525.431    524.223    524.223
 90.170    572.792    616.025    -43.233    524.028    614.936    525.174    524.028    524.028
 90.270    632.641    609.965     22.676    523.831    608.951    524.898    523.831    523.831
 90.370    537.000    603.139    -66.139    523.632    602.209    524.610    523.632    523.632
 90.470    550.644    596.008    -45.364    523.431    595.165    524.316    523.431    523.431
 90.570    620.583    588.962     31.621    523.228    588.206    524.021    523.228    523.228
 90.670    572.220    582.310    -10.090    523.024    581.635    523.730    523.024    523.024
 90.770    521.797    576.272    -54.475    522.818    575.672    523.444    522.818    522.818
 90.870    534.000    570.991    -36.991    522.610    570.455    523.166    522.610    522.610
 90.970    553.000    566.534    -13.534    522.401    566.054    522.897    522.401    522.401
 91.070    528.844    562.915    -34.072    522.190    562.480    522.637    522.190    522.190
 91.170    504.612    560.101    -55.489    521.977    559.702    522.385    521.977    521.977
 91.270    540.000    558.033    -18.033    521.762    557.661    522.140    521.762    521.762
 91.370    522.296    556.641    -34.345    521.546    556.288    521.902    521.546    521.546
 91.470    533.000    555.856    -22.856    521.328    555.515    521.671    521.328    521.328
 91.570    546.000    555.627     -9.627    521.108    555.291    521.444    521.108    521.108
 91.670    534.374    555.923    -21.550    520.887    555.587    521.221    520.887    520.887
 91.770    520.000    556.745    -36.745    520.664    556.403    521.003    520.664    520.664
 91.870    586.221    558.126     28.095    520.439    557.771    520.789    520.439    520.439
 91.970    599.858    560.133     39.724    520.213    559.759    520.581    520.213    520.213
 92.070    534.000    562.866    -28.866    519.985    562.464    520.378    519.985    519.985
 92.170    579.629    566.450     13.179    519.755    566.012    520.183    519.755    519.755
 92.270    568.000    571.036     -3.036    519.524    570.551    519.995    519.524    519.524
 92.370    567.000    576.782     -9.782    519.291    576.238    519.818    519.291    519.291
 92.470    614.000    583.848     30.152    519.057    583.232    519.651    519.057    519.057
 92.570    613.584    592.375     21.209    518.821    591.674    519.495    518.821    518.821
 92.670    577.000    602.474    -25.474    518.583    601.673    519.352    518.583    518.583
 92.770    614.074    614.203     -0.129    518.344    613.290    519.219    518.344    518.344
 92.870    595.932    627.557    -31.625    518.103    626.519    519.097    518.103    518.103
 92.970    629.000    642.448    -13.448    517.861    641.276    518.982    517.861    517.861
 93.070    605.000    658.691    -53.691    517.616    657.379    518.871    517.616    517.616
 93.170    674.000    675.997     -1.997    517.371    674.543    518.761    517.371    517.371
 93.270    683.265    693.967    -10.701    517.124    692.374    518.646    517.124    517.124
 93.370    763.025    712.104     50.920    516.875    710.383    518.521    516.875    516.875
 93.470    706.000    729.872    -23.872    516.625    728.035    518.382    516.625    516.625
 93.570    749.000    746.776      2.224    516.373    744.842    518.225    516.373    516.373
 93.670    793.000    762.485     30.515    516.120    760.472    518.049    516.120    516.120
 93.770    740.342    776.917    -36.575    515.865    774.837    517.860    515.865    515.865
 93.870    773.000    790.239    -17.239    515.609    788.099    517.666    515.609    515.609
 93.970    732.000    802.787    -70.787    515.352    800.577    517.478    515.352    515.352
 94.070    807.820    814.920     -7.099    515.093    812.620    517.310    515.093    515.093
 94.170    853.000    826.915     26.085    514.832    824.492    517.175    514.832    514.832
 94.270    832.000    838.924     -6.924    514.570    836.333    517.083    514.570    514.570
 94.370    780.596    850.999    -70.404    514.307    848.188    517.041    514.307    514.307
 94.470    855.000    863.159     -8.159    514.042    860.073    517.053    514.042    514.042
 94.570    827.000    875.413    -48.413    513.776    872.001    517.116    513.776    513.776
 94.670    837.000    887.788    -50.788    513.508    884.002    517.224    513.508    513.508
 94.770    902.000    900.163      1.837    513.239    895.971    517.364    513.239    513.239
 94.870    984.000    912.170     71.830    512.968    907.558    517.518    512.968    512.968
 94.970    935.000    923.133     11.867    512.697    918.111    517.660    512.697    512.697
 95.070    943.433    932.051     11.382    512.424    926.658    517.764    512.424    512.424
 95.170    970.378    937.694     32.684    512.149    931.999    517.798    512.149    512.149
 95.270    963.000    938.802     24.198    511.874    932.903    517.733    511.874    511.874
 95.370    926.422    934.382     -7.960    511.597    928.402    517.547    511.597    511.597
 95.470    950.000    924.018     25.982    511.318    918.087    517.228    511.318    511.318
 95.570    968.000    908.038     59.962    511.039    902.283    516.781    511.039    511.039
 95.670    887.000    887.476     -0.476    510.758    882.005    516.223    510.758    510.758
 95.770    800.086    863.847    -63.761    510.476    858.742    515.580    510.476    510.476
 95.870    865.000    838.884     26.116    510.192    834.197    514.882    510.192    510.192
 95.970    826.000    814.329     11.671    509.908    810.082    514.159    509.908    509.908
 96.070    801.000    791.816      9.184    509.622    788.006    513.437    509.622    509.622
 96.170    731.000    772.826    -41.826    509.335    769.425    512.738    509.335    509.335
 96.270    791.997    758.668     33.329    509.047    755.633    512.081    509.047    509.047
 96.370    761.000    750.481     10.519    508.758    747.754    511.479    508.758    508.758
 96.470    740.000    749.230     -9.230    508.468    746.746    510.941    508.468    508.468
 96.570    775.000    755.707     19.293    508.176    753.393    510.471    508.176    508.176
 96.670    771.000    770.520      0.480    507.883    768.304    510.073    507.883    507.883
 96.770    793.711    794.079     -0.369    507.590    791.889    509.744    507.590    507.590
 96.870    826.000    826.570     -0.570    507.295    824.336    509.481    507.295    507.295
 96.970    920.969    867.912     53.057    506.999    865.572    509.281    506.999    506.999
 97.070    974.298    917.715     56.583    506.702    915.212    509.138    506.702    506.702
 97.170   1004.203    975.224     28.978    506.404    972.507    509.043    506.404    506.404
 97.270    998.898   1039.260    -40.361    506.105   1036.289    508.989    506.105    506.105
 97.370   1131.000   1108.169     22.831    505.806   1104.916    508.963    505.806    505.806
 97.470   1195.000   1179.787     15.213    505.505   1176.236    508.953    505.505    505.505
 97.570   1214.434   1251.407    -36.973    505.203   1247.560    508.945    505.203    505.203
 97.670   1301.000   1319.803    -18.803    504.900   1315.678    508.920    504.900    504.900
 97.770   1364.000   1381.323    -17.323    504.596   1376.958    508.860    504.596    504.596
 97.870   1429.874   1432.134     -2.260    504.292   1427.588    508.745    504.292    504.292
 97.970   1391.910   1468.670    -76.759    503.986   1464.019    508.557    503.986    503.986
 98.070   1522.000   1488.214     33.786    503.680   1483.547    508.284    503.680    503.680
 98.170   1546.892   1489.466     57.426    503.373   1484.876    507.920    503.373    503.373
 98.270   1496.000   1472.812     23.188    503.065   1468.385    507.467    503.065    503.065
 98.370   1402.000   1440.188    -38.188    502.756   1436.002    506.938    502.756    502.756
 98.470   1364.000   1394.633    -30.633    502.447   1390.744    506.347    502.447    502.447
 98.570   1466.000   1339.741    126.259    502.136   1336.188    505.714    502.136    502.136
 98.670   1309.000   1279.223     29.777    501.825   1276.026    505.056    501.825    501.825
 98.770   1265.000   1216.611     48.389    501.514   1213.775    504.389    501.514    501.514
 98.870   1138.000   1155.100    -17.100    501.201   1152.615    503.727    501.201    501.201
 98.970   1132.000   1097.468     34.532    500.888   1095.316    503.080    500.888    500.888
 99.070   1006.000   1046.064    -40.064    500.574   1044.219    502.457    500.574    500.574
 99.170   1024.000   1002.813     21.187    500.260   1001.243    501.862    500.260    500.260
 99.270   1021.101    969.244     51.857    499.945    967.916    501.299    499.945    499.945
 99.370    860.000    946.678    -86.678    499.629    945.558    500.768    499.629    499.629
 99.470    937.866    935.979      1.887    499.313    935.034    500.270    499.313    499.313
 99.570    936.231    937.745     -1.514    498.996    936.944    499.802    498.996    498.996
 99.670    925.000    952.302    -27.302    498.679    951.617    499.361    498.679    498.679
 99.770    976.000    979.700     -3.700    498.361    979.108    498.945    498.361    498.361
 99.870   1011.000   1019.709     -8.709    498.043   1019.190    498.548    498.043    498.043
 99.970   1122.000   1071.799     50.201    497.724   1071.338    498.170    497.724    497.724
100.070   1085.998   1135.115    -49.117    497.405   1134.698    497.805    497.405    497.405
100.170   1183.442   1208.430    -24.988    497.085   1208.048    497.452    497.085    497.085
100.270   1316.000   1290.105     25.895    496.765   1289.751    497.108    496.765    496.765
100.370   1331.000   1378.041    -47.041    496.445   1377.710    496.771    496.445    496.445
100.470   1436.654   1469.657    -33.003    496.124   1469.346    496.441    496.124    496.124
100.570   1659.000   1561.923     97.077    495.803   1561.629    496.116    495.803    495.803
100.670   1700.000   1651.491     48.509    495.482   1651.213    495.795    495.482    495.482
100.770   1778.000   1734.953     43.047    495.160   1734.690    495.478    495.160    495.160
100.870   1839.000   1809.180     29.820    494.839   1808.931    495.164    494.839    494.839
100.970   1916.000   1871.701     44.299    494.517   1871.463    494.853    494.517    494.517
101.070   1941.000   1920.800     20.200    494.195   1920.570    494.545    494.195    494.195
101.170   2109.000   1955.481    153.519    493.872   1955.255    494.239    493.872    493.872
101.270   2037.303   1975.222     62.080    493.550   1974.996    493.935    493.550    493.550
101.370   1945.000   1979.750    -34.750    493.227   1979.519    493.632    493.227    493.227
101.470   1934.874   1968.994    -34.120    492.905   1968.755    493.329    492.905    492.905
101.570   2000.000   1943.257     56.743    492.582   1943.006    493.028    492.582    492.582
101.670   1893.000   1903.500    -10.500    492.259   1903.233    492.725    492.259    492.259
101.770   1843.425   1851.550     -8.126    491.936   1851.264    492.423    491.936    491.936
101.870   1874.000   1790.089     83.911    491.614   1789.782    492.119    491.614    491.614
101.970   1753.341   1722.384     30.957    491.291   1722.054    491.813    491.291    491.291
102.070   1635.000   1651.878    -16.878    490.969   1651.523    491.506    490.969    490.969
102.170   1556.000   1581.783    -25.783    490.646   1581.405    491.195    490.646    490.646
102.270   1518.000   1514.792      3.208    490.324   1514.393    490.882    490.324    490.324
102.370   1506.848   1452.920     53.928    490.002   1452.503    490.565    490.002    490.002
102.470   1348.000   1397.454    -49.454    489.680   1397.025    490.244    489.680    489.680
102.570   1329.000   1348.971    -19.971    489.358   1348.534    489.918    489.358    489.358
102.670   1287.000   1307.383    -20.383    489.037   1306.946    489.588    489.037    489.037
102.770   1341.615   1272.004     69.611    488.715   1271.571    489.254    488.715    488.715
102.870   1224.306   1241.632    -17.326    488.395   1241.209    488.917    488.395    488.395
102.970   1191.000   1214.671    -23.671    488.074   1214.264    488.577    488.074    488.074
103.070   1161.000   1189.311    -28.311    487.754   1188.923    488.234    487.754    487.754
103.170   1115.000   1163.753    -48.753    487.434   1163.388    487.890    487.434    487.434
103.270   1163.000   1136.477     26.523    487.115   1136.138    487.545    487.115    487.115
103.370   1131.000   1106.458     24.542    486.796   1106.145    487.198    486.796    486.796
103.470   1085.000   1073.278     11.722    486.478   1072.992    486.852    486.478    486.478
103.570   1034.850   1037.150     -2.300    486.160   1036.890    486.506    486.160    486.160
103.670    975.000    998.656    -23.656    485.843    998.421    486.161    485.843    485.843
103.770    958.000    958.639     -0.639    485.526    958.427    485.817    485.526    485.526
103.870    953.288    918.029     35.259    485.210    917.837    485.476    485.210    485.210
103.970    870.000    877.724     -7.724    484.895    877.551    485.137    484.895    484.895
104.070    822.881    838.535    -15.655    484.580    838.378    484.800    484.580    484.580
104.170    755.542    801.152    -45.610    484.267    801.008    484.467    484.267    484.267
104.270    728.383    766.128    -37.745    483.953    765.995    484.136    483.953    483.953
104.370    715.085    733.875    -18.789    483.641    733.751    483.809    483.641    483.641
104.470    708.000    704.678      3.322    483.330    704.562    483.484    483.330    483.330
104.570    624.291    678.676    -54.385    483.019    678.566    483.162    483.019    483.019
104.670    670.308    655.888     14.420    482.709    655.782    482.843    482.709    482.709
104.770    607.000    636.229    -29.229    482.401    636.126    482.527    482.401    482.401
104.870    676.064    619.533     56.531    482.093    619.431    482.213    482.093    482.093
104.970    646.000    605.573     40.427    481.786    605.472    481.901    481.786    481.786
105.070    621.000    594.088     26.912    481.480    593.988    481.592    481.480    481.480
105.170    617.000    584.805     32.195    481.176    584.704    481.286    481.176    481.176
105.270    530.161    577.453    -47.292    480.872    577.350    480.981    480.872    480.872
105.370    578.000    571.783      6.217    480.570    571.677    480.680    480.570    480.570
105.470    546.865    567.575    -20.709    480.268    567.465    480.380    480.268    480.268
105.570    609.656    564.646     45.010    479.968    564.530    480.083    479.968    479.968
105.670    556.000    562.852     -6.852    479.670    562.731    479.789    479.670    479.670
105.770    538.021    562.091    -24.070    479.372    561.961    479.498    479.372    479.372
105.870    606.000    562.293     43.707    479.076    562.153    479.211    479.076    479.076
105.970    549.423    563.425    -14.002    478.781    563.272    478.927    478.781    478.781
106.070    645.000    565.478     79.522    478.488    565.309    478.647    478.488    478.488
106.170    592.000    568.464     23.536    478.196    568.276    478.371    478.196    478.196
106.270    620.049    572.410     47.639    477.906    572.201    478.100    477.906    477.906
106.370    561.000    577.350    -16.350    477.617    577.116    477.833    477.617    477.617
106.470    619.000    583.313     35.687    477.330    583.050    477.572    477.330    477.330
106.570    592.000    590.319      1.681    477.044    590.023    477.316    477.044    477.044
106.670    622.000    598.363     23.637    476.760    598.031    477.066    476.760    476.760
106.770    594.000    607.412    -13.412    476.478    607.039    476.820    476.478    476.478
106.870    581.782    617.391    -35.609    476.197    616.975    476.579    476.197    476.197
106.970    643.000    628.181     14.819    475.918    627.720    476.343    475.918    475.918
107.070    619.000    639.612    -20.612    475.641    639.103    476.110    475.641    475.641
107.170    659.000    651.443      7.557    475.366    650.887    475.879    475.366    475.366
107.270    670.000    663.452      6.548    475.093    662.849    475.650    475.093    475.093
107.370    722.388    675.305     47.083    474.821    674.658    475.421    474.821    474.821
107.470    694.000    686.641      7.359    474.552    685.954    475.191    474.552    474.552
107.570    691.000    697.081     -6.081    474.284    696.358    474.958    474.284    474.284
107.670    728.000    706.250     21.750    474.019    705.501    474.719    474.019    474.019
107.770    678.347    713.822    -35.475    473.756    713.055    474.475    473.756    473.756
107.870    707.000    719.567    -12.567    473.495    718.793    474.223    473.495    473.495
107.970    730.000    723.395      6.605    473.236    722.624    473.964    473.236    473.236
108.070    667.000    725.378    -58.378    472.979    724.621    473.697    472.979    472.979
108.170    710.000    725.744    -15.744    472.725    725.012    473.422    472.725    472.725
108.270    741.000    724.842     16.158    472.473    724.141    473.142    472.473    472.473
108.370    685.000    723.080    -38.080    472.223    722.418    472.858    472.223    472.223
108.470    776.592    720.877     55.715    471.976    720.258    472.572    471.976    471.976
108.570    718.000    718.614     -0.614    471.731    718.042    472.285    471.731    471.731
108.670    699.000    716.606    -17.606    471.489    716.081    471.998    471.489    471.489
108.770    696.000    715.080    -19.080    471.249    714.603    471.714    471.249    471.249
108.870    759.308    714.168     45.140    471.012    713.738    471.434    471.012    471.012
108.970    695.000    713.905    -18.905    470.777    713.520    471.158    470.777    470.777
109.070    744.007    714.226     29.781    470.546    713.884    470.886    470.546    470.546
109.170    681.652    714.974    -33.322    470.317    714.671    470.621    470.317    470.317
109.270    775.000    715.905     59.095    470.090    715.639    470.361    470.090    470.090
109.370    732.503    716.708     15.795    469.867    716.474    470.108    469.867    469.867
109.470    662.294    717.029    -54.736    469.646    716.825    469.861    469.646    469.646
109.570    746.000    716.508     29.492    469.428    716.329    469.620    469.428    469.428
109.670    667.273    714.821    -47.548    469.214    714.665    469.385    469.214    469.214
109.770    730.593    711.728     18.865    469.002    711.590    469.156    469.002    469.002
109.870    688.000    707.100    -19.100    468.793    706.979    468.932    468.793    468.793
109.970    759.980    700.943     59.037    468.588    700.836    468.714    468.588    468.588
110.070    687.000    693.380     -6.380    468.386    693.284    468.501    468.386    468.386
110.170    715.605    684.628     30.977    468.186    684.541    468.292    468.186    468.186
110.270    666.133    674.962     -8.828    467.991    674.882    468.089    467.991    467.991
110.370    670.000    664.679      5.321    467.798    664.605    467.889    467.798    467.798
110.470    611.694    654.074    -42.380    467.609    654.005    467.695    467.609    467.609
110.570    593.474    643.427    -49.953    467.423    643.362    467.504    467.423    467.423
110.670    627.392    632.986     -5.594    467.241    632.923    467.318    467.241    467.241
110.770    636.000    622.962     13.038    467.062    622.901    467.136    467.062    467.062
110.870    648.945    613.536     35.409    466.887    613.476    466.957    466.887    466.887
110.970    609.000    604.847      4.153    466.715    604.788    466.783    466.715    466.715
111.070    575.000    597.001    -22.001    466.547    596.942    466.613    466.547    466.547
111.170    591.000    590.068      0.932    466.383    590.009    466.447    466.383    466.383
111.270    642.149    584.084     58.065    466.223    584.025    466.285    466.223    466.223
111.370    564.441    579.060    -14.619    466.066    579.000    466.128    466.066    466.066
111.470    635.000    574.976     60.024    465.914    574.916    465.974    465.914    465.914
111.570    584.000    571.797     12.203    465.765    571.737    465.824    465.765    465.765
111.670    586.000    569.470     16.530    465.620    569.408    465.679    465.620    465.620
111.770    584.000    567.929     16.071    465.480    567.866    465.538    465.480    465.480
111.870    592.000    567.104     24.896    465.343    567.041    465.401    465.343    465.343
111.970    611.000    566.922     44.078    465.211    566.858    465.268    465.211    465.211
112.070    582.314    567.307     15.007    465.083    567.243    465.140    465.083    465.083
112.170    584.000    568.193     15.807    464.959    568.128    465.015    464.959    464.959
112.270    566.000    569.521     -3.521    464.839    569.456    464.896    464.839    464.839
112.370    526.000    571.233    -45.233    464.724    571.166    464.781    464.724    464.724
112.470    549.000    573.282    -24.282    464.613    573.214    464.670    464.613    464.613
112.570    569.000    575.634     -6.634    464.507    575.566    464.564    464.507    464.507
112.670    525.000    578.261    -53.261    464.406    578.192    464.463    464.406    464.406
112.770    577.000    581.165     -4.165    464.309    581.095    464.366    464.309    464.309
112.870    613.000    584.354     28.646    464.216    584.283    464.275    464.216    464.216
112.970    628.000    587.842     40.158    464.129    587.770    464.188    464.129    464.129
113.070    563.382    591.663    -28.281    464.046    591.590    464.106    464.046    464.046
113.170    603.650    595.864      7.786    463.968    595.790    464.029    463.968    463.968
113.270    594.167    600.509     -6.342    463.895    600.433    463.957    463.895    463.895
113.370    587.000    605.678    -18.678    463.827    605.601    463.890    463.827    463.827
113.470    554.038    611.478    -57.440    463.764    611.397    463.829    463.764    463.764
113.570    613.000    618.040     -5.040    463.706    617.956    463.773    463.706    463.706
113.670    608.000    625.534    -17.534    463.653    625.447    463.723    463.653    463.653
113.770    632.000    634.178     -2.178    463.605    634.086    463.678    463.605    463.605
113.870    638.000    644.245     -6.245    463.563    644.148    463.639    463.563    463.563
113.970    679.960    656.082     23.878    463.526    655.978    463.607    463.526    463.526
114.070    673.000    670.123      2.877    463.494    670.011    463.580    463.494    463.494
114.170    731.163    686.911     44.252    463.468    686.788    463.560    463.468    463.468
114.270    661.000    707.109    -46.109    463.447    706.974    463.546    463.447    463.447
114.370    706.000    731.527    -25.527    463.432    731.378    463.539    463.432    463.432
114.470    788.341    761.136     27.205    463.423    760.970    463.538    463.423    463.423
114.570    847.000    797.086     49.914    463.419    796.899    463.545    463.419    463.419
114.670    797.000    840.712    -43.712    463.421    840.502    463.559    463.421    463.421
114.770    908.790    893.546     15.244    463.429    893.308    463.580    463.429    463.429
114.870    955.000    957.307     -2.307    463.443    957.036    463.609    463.443    463.443
114.970   1068.000   1033.884     34.116    463.463   1033.576    463.646    463.463    463.463
115.070   1088.000   1125.309    -37.309    463.489   1124.958    463.690    463.489    463.489
115.170   1234.000   1233.703      0.297    463.521   1233.304    463.742    463.521    463.521
115.270   1488.000   1361.217    126.783    463.559   1360.765    463.803    463.559    463.559
115.370   1588.000   1509.946     78.054    463.603   1509.435    463.871    463.603    463.603
115.470   1746.000   1681.827     64.173    463.653   1681.252    463.948    463.653    463.653
115.570   1832.456   1878.523    -46.067    463.710   1877.879    464.033    463.710    463.710
115.670   2169.593   2101.298     68.294    463.774   2100.581    464.126    463.774    463.774
115.770   2481.000   2350.882    130.118    463.844   2350.088    464.227    463.844    463.844
115.870   2702.000   2627.335     74.665    463.920   2626.463    464.336    463.920    463.920
115.970   3071.000   2929.925    141.075    464.003   2928.975    464.454    464.003    464.003
116.070   3289.000   3257.016     31.984    464.093   3255.987    464.579    464.093    464.093
116.170   3784.000   3605.969    178.031    464.189   3604.866    464.711    464.189    464.189
116.270   4136.000   3973.085    162.915    464.293   3971.911    464.851    464.293    464.293
116.370   4357.822   4353.555      4.267    464.403   4352.318    464.999    464.403    464.403
116.470   4772.686   4741.457     31.229    464.520   4740.165    465.153    464.520    464.520
116.570   5067.000   5129.771    -62.771    464.645   5128.435    465.315    464.645    464.645
116.670   5537.000   5510.438     26.562    464.776   5509.070    465.484    464.776    464.776
116.770   5882.000   5874.475      7.525    464.914   5873.090    465.660    464.914    464.914
116.870   6144.000   6212.165    -68.165    465.060   6210.779    465.842    465.060    465.060
116.970   6558.000   6513.372     44.628    465.213   6512.002    466.031    465.213    465.213
117.070   6599.686   6768.011   -168.326    465.374   6766.674    466.226    465.374    465.374
117.170   7081.576   6966.697    114.879    465.542   6965.409    466.426    465.542    465.542
117.270   7056.000   7101.527    -45.527    465.718   7100.303    466.632    465.718    465.718
117.370   7060.000   7166.891   -106.891    465.901   7165.743    466.843    465.901    465.901
117.470   7319.004   7160.128    158.876    466.092   7159.064    467.057    466.092    466.092
117.570   6947.896   7081.863   -133.968    466.290   7080.885    467.276    466.290    466.290
117.670   6990.000   6935.917     54.083    466.497   6935.023    467.498    466.497    466.497
117.770   6552.212   6728.823   -176.611    466.711   6728.009    467.723    466.711    466.711
117.870   6450.550   6469.084    -18.534    466.934   6468.342    467.950    466.934    466.934
117.970   6330.576   6166.355    164.221    467.164   6165.676    468.180    467.164    467.164
118.070   5925.728   5830.703     95.026    467.403   5830.078    468.412    467.403    467.403
118.170   5383.000   5472.013    -89.013    467.650   5471.433    468.647    467.650    467.650
118.270   4980.000   5099.605   -119.605    467.905   5099.063    468.883    467.905    467.905
118.370   4591.209   4722.055   -130.846    468.168   4721.544    469.122    468.168    468.168
118.470   4342.687   4346.831     -4.143    468.440   4346.344    469.364    468.440    468.440
118.570   4060.000   3980.361     79.639    468.720   3979.894    469.610    468.720    468.720
118.670   3674.192   3627.966     46.225    469.009   3627.516    469.861    469.009    469.009
118.770   3353.000   3293.860     59.140    469.307   3293.423    470.117    469.307    469.307
118.870   2938.000   2981.179    -43.179    469.613   2980.753    470.380    469.613    469.613
118.970   2698.000   2692.050      5.950    469.929   2691.633    470.650    469.929    469.929
119.070   2453.000   2427.686     25.314    470.253   2427.278    470.929    470.253    470.253
119.170   2128.000   2188.492    -60.492    470.586   2188.093    471.218    470.586    470.586
119.270   1936.000   1974.193    -38.193    470.928   1973.801    471.517    470.928    470.928
119.370   1825.498   1783.952     41.546    471.280   1783.569    471.828    471.280    471.280
119.470   1550.588   1616.504    -65.916    471.640   1616.130    472.150    471.640    471.640
119.570   1553.467   1470.266     83.202    472.010   1469.900    472.484    472.010    472.010
119.670   1394.000   1343.447     50.553    472.389   1343.090    472.831    472.389    472.389
119.770   1255.949   1234.149     21.800    472.778   1233.800    473.191    472.778    472.778
119.870   1192.813   1140.446     52.368    473.176   1140.105    473.564    473.176    473.176
119.970   1043.000   1060.452    -17.452    473.584   1060.118    473.951    473.584    473.584
120.070   1023.000    992.381     30.619    474.002    992.053    474.352    474.002    474.002
120.170    897.000    934.578    -37.578    474.429    934.255    474.766    474.429    474.429
120.270    850.000    885.547    -35.547    474.867    885.228    475.193    474.867    474.867
120.370    865.000    843.963     21.037    475.314    843.646    475.635    475.314    475.314
120.470    805.000    808.672     -3.672    475.771    808.354    476.089    475.771    475.771
120.570    806.000    778.684     27.316    476.239    778.363    476.558    476.239    476.239
120.670    758.000    753.163      4.837    476.716    752.838    477.039    476.716    476.716
120.770    787.000    731.412     55.588    477.204    731.079    477.534    477.204    477.204
120.870    760.511    712.854     47.657    477.702    712.512    478.043    477.702    477.702
120.970    678.000    697.016    -19.016    478.211    696.663    478.564    478.211    478.211
121.070    680.000    683.515     -3.515    478.731    683.147    479.099    478.731    478.731
121.170    647.000    672.039    -25.039    479.261    671.654    479.647    479.261    479.261
121.270    656.000    662.334     -6.334    479.801    661.930    480.208    479.801    479.801
121.370    631.000    654.196    -23.196    480.353    653.771    480.782    480.353    480.353
121.470    610.000    647.457    -37.457    480.915    647.008    481.369    480.915    480.915
121.570    633.000    641.979     -8.979    481.489    641.504    481.970    481.489    481.489
121.670    615.000    637.647    -22.647    482.073    637.143    482.585    482.073    482.073
121.770    588.182    634.362    -46.180    482.669    633.827    483.214    482.669    482.669
121.870    677.939    632.037     45.902    483.276    631.467    483.856    483.276    483.276
121.970    606.000    630.594    -24.594    483.894    629.987    484.513    483.894    483.894
122.070    630.000    629.959      0.041    484.524    629.312    485.185    484.524    484.524
122.170    676.995    630.062     46.932    485.165    629.372    485.871    485.165    485.165
122.270    643.000    630.833     12.167    485.818    630.095    486.573    485.818    485.818
122.370    588.421    632.198    -43.777    486.483    631.410    487.289    486.483    486.483
122.470    632.000    634.082     -2.082    487.159    633.242    488.021    487.159    487.159
122.570    633.000    636.406     -3.406    487.847    635.510    488.767    487.847    487.847
122.670    644.000    639.086      4.914    488.547    638.131    489.529    488.547    488.547
122.770    638.710    642.029     -3.319    489.260    641.014    490.304    489.260    489.260
122.870    681.700    645.139     36.560    489.984    644.062    491.093    489.984    489.984
122.970    606.000    648.314    -42.314    490.721    647.174    491.895    490.721    490.721
123.070    657.081    651.445      5.636    491.470    650.243    492.710    491.470    491.470
123.170    666.000    654.420     11.580    492.231    653.156    493.536    492.231    492.231
123.270    667.000    657.126      9.874    493.006    655.803    494.372    493.006    493.006
123.370    642.000    659.453    -17.453    493.792    658.074    495.217    493.792    493.792
123.470    625.434    661.296    -35.862    494.592    659.866    496.070    494.592    494.592
123.570    627.000    662.566    -35.566    495.404    661.089    496.930    495.404    495.404
123.670    681.000    663.191     17.809    496.229    661.674    497.797    496.229    496.229
123.770    716.000    663.122     52.878    497.067    661.573    498.669    497.067    497.067
123.870    679.000    662.337     16.663    497.918    660.764    499.545    497.918    497.918
123.970    643.000    660.842    -17.842    498.783    659.254    500.426    498.783    498.783
124.070    687.896    658.666     29.230    499.661    657.071    501.310    499.661    499.661
124.170    621.000    655.859    -34.859    500.552    654.266    502.199    500.552    500.552
124.270    674.000    652.486     21.514    501.457    650.903    503.092    501.457    501.457
124.370    639.245    648.622     -9.378    502.375    647.059    503.989    502.375    502.375
124.470    697.235    644.348     52.887    503.307    642.813    504.891    503.307    503.307
124.570    609.468    639.745    -30.277    504.253    638.246    505.799    504.253    504.253
124.670    579.426    634.897    -55.471    505.213    633.441    506.712    505.213    505.213
124.770    656.000    629.882     26.118    506.186    628.477    507.633    506.186    506.186
124.870    703.000    624.777     78.223    507.174    623.429    508.562    507.174    507.174
124.970    618.000    619.656     -1.656    508.176    618.369    509.499    508.176    508.176
