neutron_powder_diffraction_0233
R_wp: 3.945
Temperature (K): 1038.813
Counts: 83520.00
Wavelength (Ã…): 2.52098
COMMENTS
Test file for demonstrating the .xyy file format in Reel1.0
END OF HEADER
   tth       Y_obs     Y_calc      Y_res    Background    Phase_1_Nuc    Phase_1_Mag    Phase_2_Nuc    Phase_2_Mag
  9.970    606.000    570.664     35.336    570.055    570.635    570.055    570.085    570.055
 10.070    523.012    570.827    -47.815    570.166    570.797    570.166    570.196    570.166
 10.170    582.771    570.990     11.781    570.271    570.960    570.271    570.300    570.271
 10.270    577.000    571.159      5.841    570.369    571.129    570.369    570.399    570.369
 10.370    532.329    571.346    -39.017    570.462    571.315    570.462    570.492    570.462
 10.470    559.649    571.530    -11.881    570.549    571.499    570.549    570.579    570.549
 10.570    577.452    571.721      5.731    570.630    571.690    570.630    570.660    570.630
 10.670    593.000    571.927     21.073    570.705    571.896    570.705    570.736    570.705
 10.770    535.582    572.154    -36.573    570.775    572.123    570.775    570.805    570.775
 10.870    563.676    572.411     -8.736    570.838    572.380    570.838    570.869    570.838
 10.970    577.000    572.709      4.291    570.896    572.677    570.896    570.928    570.896
 11.070    591.000    573.064     17.936    570.949    573.030    570.949    570.982    570.949
 11.170    573.335    573.497     -0.162    570.996    573.462    570.996    571.029    570.996
 11.270    574.000    574.045     -0.045    571.037    574.010    571.037    571.071    571.037
 11.370    612.000    574.769     37.231    571.073    574.734    571.073    571.107    571.073
 11.470    551.000    575.798    -24.798    571.104    575.761    571.104    571.138    571.104
 11.570    614.000    577.491     36.509    571.129    577.454    571.129    571.163    571.129
 11.670    639.000    580.903     58.097    571.149    580.863    571.149    571.183    571.149
 11.770    598.333    588.592      9.741    571.164    588.548    571.164    571.198    571.164
 11.870    625.000    604.915     20.085    571.173    604.860    571.173    571.210    571.173
 11.970    603.516    633.648    -30.132    571.178    633.567    571.178    571.224    571.178
 12.070    708.946    671.698     37.248    571.177    671.592    571.177    571.228    571.177
 12.170    697.000    702.998     -5.998    571.172    702.874    571.172    571.223    571.172
 12.270    756.563    705.930     50.633    571.161    705.804    571.161    571.212    571.161
 12.370    571.000    677.818   -106.818    571.146    677.707    571.146    571.197    571.146
 12.470    633.431    639.187     -5.756    571.125    639.098    571.125    571.177    571.125
 12.570    611.000    608.386      2.614    571.100    608.314    571.100    571.152    571.100
 12.670    561.159    590.266    -29.108    571.070    590.204    571.070    571.122    571.070
 12.770    596.000    581.575     14.425    571.035    581.517    571.035    571.088    571.035
 12.870    508.000    577.739    -69.739    570.996    577.678    570.996    571.054    570.996
 12.970    539.000    575.878    -36.878    570.952    575.815    570.952    571.012    570.952
 13.070    589.144    574.770     14.374    570.904    574.707    570.904    570.964    570.904
 13.170    570.393    573.996     -3.604    570.850    573.934    570.850    570.911    570.850
 13.270    582.000    573.412      8.588    570.793    573.349    570.793    570.854    570.793
 13.370    568.000    572.950     -4.950    570.731    572.888    570.731    570.792    570.731
 13.470    550.000    572.574    -22.574    570.665    572.511    570.665    570.726    570.665
 13.570    584.000    572.258     11.742    570.594    572.195    570.594    570.656    570.594
 13.670    579.000    571.986      7.014    570.519    571.923    570.519    570.581    570.519
 13.770    603.856    571.747     32.109    570.440    571.683    570.440    570.502    570.440
 13.870    570.336    571.531     -1.195    570.356    571.467    570.356    570.419    570.356
 13.970    572.160    571.333      0.826    570.269    571.269    570.269    570.332    570.269
 14.070    526.000    571.149    -45.149    570.177    571.084    570.177    570.241    570.177
 14.170    568.000    570.974     -2.974    570.081    570.910    570.081    570.145    570.081
 14.270    557.536    570.807    -13.271    569.981    570.742    569.981    570.046    569.981
 14.370    531.348    570.645    -39.297    569.878    570.580    569.878    569.942    569.878
 14.470    581.000    570.487     10.513    569.770    570.422    569.770    569.835    569.770
 14.570    616.128    570.332     45.796    569.659    570.266    569.659    569.724    569.659
 14.670    541.000    570.178    -29.178    569.543    570.112    569.543    569.609    569.543
 14.770    545.560    570.026    -24.466    569.424    569.959    569.424    569.490    569.424
 14.870    514.000    569.873    -55.873    569.301    569.806    569.301    569.368    569.301
 14.970    593.000    569.720     23.280    569.175    569.653    569.175    569.242    569.175
 15.070    577.000    569.569      7.431    569.044    569.499    569.044    569.114    569.044
 15.170    568.000    569.418     -1.418    568.911    569.346    568.911    568.982    568.911
 15.270    550.216    569.265    -19.049    568.773    569.192    568.773    568.846    568.773
 15.370    584.000    569.108     14.892    568.632    569.034    568.632    568.706    568.632
 15.470    557.000    568.949    -11.949    568.488    568.875    568.488    568.562    568.488
 15.570    599.000    568.789     30.211    568.340    568.713    568.340    568.415    568.340
 15.670    577.000    568.626      8.374    568.189    568.550    568.189    568.265    568.189
 15.770    608.541    568.461     40.080    568.035    568.384    568.035    568.111    568.035
 15.870    548.315    568.293    -19.978    567.877    568.216    567.877    567.953    567.877
 15.970    529.000    568.124    -39.124    567.716    568.046    567.716    567.793    567.716
 16.070    576.000    567.952      8.048    567.551    567.874    567.551    567.629    567.551
 16.170    541.522    567.777    -26.256    567.384    567.699    567.384    567.462    567.384
 16.270    558.000    567.601     -9.601    567.213    567.522    567.213    567.292    567.213
 16.370    582.000    567.421     14.579    567.039    567.342    567.039    567.119    567.039
 16.470    554.749    567.240    -12.491    566.863    567.160    566.863    566.942    566.863
 16.570    620.000    567.056     52.944    566.683    566.976    566.683    566.763    566.683
 16.670    553.481    566.869    -13.388    566.500    566.789    566.500    566.581    566.500
 16.770    569.000    566.682      2.318    566.314    566.601    566.314    566.395    566.314
 16.870    610.000    566.492     43.508    566.126    566.410    566.126    566.207    566.126
 16.970    569.000    566.298      2.702    565.934    566.216    565.934    566.016    565.934
 17.070    563.000    566.102     -3.102    565.740    566.019    565.740    565.823    565.740
 17.170    562.000    565.903     -3.903    565.543    565.820    565.543    565.626    565.543
 17.270    576.000    565.703     10.297    565.343    565.619    565.343    565.427    565.343
 17.370    551.000    565.501    -14.501    565.141    565.415    565.141    565.226    565.141
 17.470    547.000    565.296    -18.296    564.936    565.209    564.936    565.022    564.936
 17.570    624.000    565.088     58.912    564.728    565.000    564.728    564.815    564.728
 17.670    587.000    564.878     22.122    564.517    564.789    564.517    564.606    564.517
 17.770    594.351    564.665     29.686    564.305    564.577    564.305    564.393    564.305
 17.870    571.000    564.453      6.547    564.089    564.363    564.089    564.179    564.089
 17.970    569.000    564.237      4.763    563.871    564.147    563.871    563.961    563.871
 18.070    512.000    564.018    -52.018    563.651    563.928    563.651    563.742    563.651
 18.170    556.000    563.797     -7.797    563.428    563.706    563.428    563.520    563.428
 18.270    564.000    563.574      0.426    563.203    563.482    563.203    563.295    563.203
 18.370    585.000    563.349     21.651    562.976    563.256    562.976    563.069    562.976
 18.470    552.341    563.122    -10.781    562.746    563.028    562.746    562.840    562.746
 18.570    542.771    562.893    -20.122    562.515    562.798    562.515    562.609    562.515
 18.670    579.000    562.661     16.339    562.281    562.567    562.281    562.375    562.281
 18.770    571.000    562.428      8.572    562.044    562.333    562.044    562.140    562.044
 18.870    523.692    562.194    -38.502    561.806    562.097    561.806    561.902    561.806
 18.970    566.302    561.957      4.345    561.566    561.860    561.566    561.663    561.566
 19.070    605.000    561.718     43.282    561.323    561.621    561.323    561.421    561.323
 19.170    587.895    561.478     26.417    561.078    561.379    561.078    561.177    561.078
 19.270    559.000    561.237     -2.237    560.832    561.137    560.832    560.932    560.832
 19.370    522.000    560.996    -38.996    560.583    560.892    560.583    560.687    560.583
 19.470    520.317    560.755    -40.438    560.333    560.647    560.333    560.441    560.333
 19.570    596.000    560.511     35.489    560.081    560.401    560.081    560.190    560.081
 19.670    522.000    560.263    -38.263    559.827    560.153    559.827    559.937    559.827
 19.770    544.000    560.013    -16.013    559.571    559.902    559.571    559.682    559.571
 19.870    579.448    559.762     19.686    559.313    559.650    559.313    559.425    559.313
 19.970    568.829    559.510      9.320    559.053    559.396    559.053    559.167    559.053
 20.070    593.000    559.256     33.744    558.792    559.142    558.792    558.907    558.792
 20.170    515.931    559.001    -43.070    558.529    558.886    558.529    558.645    558.529
 20.270    576.000    558.745     17.255    558.265    558.628    558.265    558.381    558.265
 20.370    568.000    558.488      9.512    557.999    558.371    557.999    558.116    557.999
 20.470    551.720    558.239     -6.519    557.731    558.120    557.731    557.849    557.731
 20.570    549.000    557.993     -8.993    557.461    557.873    557.461    557.581    557.461
 20.670    553.000    557.734     -4.734    557.191    557.613    557.191    557.312    557.191
 20.770    525.000    557.473    -32.473    556.918    557.351    556.918    557.040    556.918
 20.870    582.000    557.211     24.789    556.645    557.088    556.645    556.768    556.645
 20.970    584.019    556.948     27.071    556.369    556.824    556.369    556.494    556.369
 21.070    571.000    556.685     14.315    556.093    556.559    556.093    556.219    556.093
 21.170    552.000    556.421     -4.421    555.815    556.294    555.815    555.942    555.815
 21.270    580.173    556.157     24.016    555.535    556.029    555.535    555.664    555.535
 21.370    578.000    555.893     22.107    555.255    555.763    555.255    555.385    555.255
 21.470    549.797    555.629     -5.831    554.973    555.497    554.973    555.104    554.973
 21.570    533.477    555.364    -21.887    554.690    555.231    554.690    554.823    554.690
 21.670    543.000    555.100    -12.100    554.406    554.966    554.406    554.540    554.406
 21.770    520.053    554.836    -34.783    554.120    554.700    554.120    554.256    554.120
 21.870    573.562    554.573     18.989    553.834    554.435    553.834    553.971    553.834
 21.970    526.586    554.310    -27.724    553.546    554.171    553.546    553.685    553.546
 22.070    530.000    554.049    -24.049    553.257    553.908    553.257    553.398    553.257
 22.170    574.000    553.789     20.211    552.967    553.646    552.967    553.110    552.967
 22.270    519.420    553.535    -34.114    552.676    553.390    552.676    552.821    552.676
 22.370    549.000    553.322     -4.322    552.384    553.176    552.384    552.531    552.384
 22.470    582.316    553.128     29.188    552.092    552.980    552.092    552.240    552.092
 22.570    587.000    552.899     34.101    551.798    552.749    551.798    551.948    551.798
 22.670    549.000    552.686     -3.686    551.503    552.534    551.503    551.656    551.503
 22.770    548.000    552.450     -4.450    551.207    552.295    551.207    551.362    551.207
 22.870    544.000    552.216     -8.216    550.911    552.059    550.911    551.068    550.911
 22.970    518.000    551.995    -33.995    550.614    551.836    550.614    550.773    550.614
 23.070    527.000    551.819    -24.819    550.316    551.657    550.316    550.478    550.316
 23.170    585.464    551.642     33.821    550.017    551.478    550.017    550.181    550.017
 23.270    545.000    551.459     -6.459    549.717    551.290    549.717    549.886    549.717
 23.370    546.974    551.293     -4.319    549.417    551.120    549.417    549.590    549.417
 23.470    591.000    551.151     39.849    549.116    550.976    549.116    549.292    549.116
 23.570    581.000    551.044     29.956    548.814    550.865    548.814    548.994    548.814
 23.670    518.000    550.982    -32.982    548.512    550.800    548.512    548.694    548.512
 23.770    508.000    550.984    -42.984    548.209    550.799    548.209    548.395    548.209
 23.870    552.000    551.075      0.925    547.905    550.887    547.905    548.095    547.905
 23.970    510.260    551.305    -41.045    547.601    551.114    547.601    547.794    547.601
 24.070    564.000    551.784     12.216    547.297    551.589    547.297    547.493    547.297
 24.170    561.000    552.829      8.171    546.992    552.632    546.992    547.192    546.992
 24.270    580.484    555.306     25.178    546.686    555.107    546.686    546.891    546.686
 24.370    551.140    561.113     -9.973    546.380    560.913    546.380    546.589    546.380
 24.470    618.000    573.058     44.942    546.073    572.863    546.073    546.287    546.073
 24.570    576.982    592.891    -15.910    545.767    592.706    545.767    545.985    545.767
 24.670    611.000    617.322     -6.322    545.459    617.149    545.459    545.683    545.459
 24.770    618.000    635.056    -17.056    545.152    634.891    545.152    545.381    545.152
 24.870    635.000    633.513      1.487    544.844    633.342    544.844    545.079    544.844
 24.970    642.277    613.813     28.463    544.535    613.622    544.535    544.776    544.535
 25.070    608.000    589.040     18.960    544.227    588.824    544.227    544.474    544.227
 25.170    606.184    569.559     36.625    543.918    569.322    543.918    544.172    543.918
 25.270    538.914    557.897    -18.983    543.609    557.645    543.609    543.870    543.609
 25.370    541.000    552.049    -11.049    543.300    551.785    543.300    543.569    543.300
 25.470    572.000    549.274     22.726    542.990    549.000    542.990    543.268    542.990
 25.570    534.000    547.826    -13.826    542.681    547.542    542.681    542.967    542.681
 25.670    553.000    546.898      6.102    542.371    546.605    542.371    542.667    542.371
 25.770    509.963    546.215    -36.252    542.061    545.910    542.061    542.367    542.061
 25.870    565.471    545.664     19.807    541.751    545.348    541.751    542.068    541.751
 25.970    574.293    545.201     29.091    541.441    544.874    541.441    541.769    541.441
 26.070    528.000    544.811    -16.811    541.131    544.471    541.131    541.472    541.131
 26.170    541.000    544.480     -3.480    540.821    544.126    540.821    541.175    540.821
 26.270    588.437    544.203     44.235    540.511    543.834    540.511    540.880    540.511
 26.370    546.000    543.977      2.023    540.201    543.592    540.201    540.586    540.201
 26.470    528.715    543.792    -15.077    539.891    543.390    539.891    540.294    539.891
 26.570    516.000    543.654    -27.654    539.581    543.232    539.581    540.003    539.581
 26.670    517.000    543.569    -26.569    539.271    543.126    539.271    539.714    539.271
 26.770    527.000    543.543    -16.543    538.961    543.077    538.961    539.427    538.961
 26.870    614.000    543.590     70.410    538.652    543.098    538.652    539.143    538.652
 26.970    540.000    543.741     -3.741    538.342    543.221    538.342    538.862    538.342
 27.070    547.717    544.016      3.700    538.033    543.464    538.033    538.584    538.033
 27.170    559.014    544.408     14.607    537.724    543.821    537.724    538.310    537.724
 27.270    576.000    544.991     31.009    537.415    544.364    537.415    538.040    537.415
 27.370    523.000    545.847    -22.847    537.106    545.175    537.106    537.776    537.106
 27.470    584.000    547.114     36.886    536.797    546.392    536.797    537.518    536.797
 27.570    567.000    549.151     17.849    536.489    548.371    536.489    537.267    536.489
 27.670    574.634    553.203     21.431    536.181    552.356    536.181    537.025    536.181
 27.770    586.000    563.675     22.325    535.874    562.749    535.874    536.792    535.874
 27.870    580.010    592.079    -12.069    535.566    591.056    535.566    536.573    535.566
 27.970    670.000    657.111     12.889    535.259    655.964    535.259    536.369    535.259
 28.070    770.000    768.665      1.335    534.953    767.366    534.953    536.183    534.953
 28.170    862.000    897.115    -35.115    534.646    895.645    534.646    536.021    534.646
 28.270    956.927    965.627     -8.700    534.341    963.986    534.341    535.889    534.341
 28.370    917.000    919.186     -2.186    534.035    917.370    534.035    535.795    534.035
 28.470    816.000    806.085      9.915    533.730    804.044    533.730    535.752    533.730
 28.570    730.000    713.583     16.417    533.426    711.226    533.426    535.778    533.426
 28.670    673.780    690.649    -16.869    533.122    687.855    533.122    535.907    533.122
 28.770    744.000    735.601      8.399    532.818    732.204    532.818    536.198    532.818
 28.870    810.000    808.566      1.434    532.515    804.301    532.515    536.758    532.515
 28.970    814.099    847.137    -33.038    532.213    841.563    532.213    537.774    532.213
 29.070    807.000    811.445     -4.445    531.911    803.833    531.911    539.528    531.911
 29.170    703.000    730.351    -27.351    531.609    719.599    531.609    542.376    531.609
 29.270    658.446    654.184      4.262    531.308    638.853    531.308    546.654    531.308
 29.370    639.000    607.529     31.471    531.008    586.072    531.008    552.474    531.008
 29.470    571.449    588.229    -16.781    530.709    559.575    530.709    559.366    530.709
 29.570    655.000    583.577     71.423    530.410    548.239    530.410    565.747    530.410
 29.670    594.000    582.127     11.873    530.111    543.339    530.111    568.898    530.111
 29.770    608.000    577.855     30.145    529.814    540.766    529.814    566.900    529.814
 29.870    547.494    570.391    -22.898    529.517    539.106    529.517    560.800    529.517
 29.970    603.000    562.009     40.991    529.220    537.933    529.220    553.294    529.220
 30.070    611.000    554.597     56.403    528.925    537.114    528.925    546.406    528.925
 30.170    594.806    548.944     45.863    528.630    536.613    528.630    540.959    528.630
 30.270    554.531    545.203      9.329    528.336    536.521    528.336    537.015    528.336
 30.370    514.160    543.488    -29.328    528.042    537.229    528.042    534.298    528.042
 30.470    563.000    544.529     18.471    527.750    539.827    527.750    532.446    527.750
 30.570    546.474    550.167     -3.693    527.458    546.469    527.458    531.144    527.458
 30.670    580.000    562.740     17.260    527.167    559.712    527.167    530.173    527.167
 30.770    606.000    582.441     23.559    526.877    579.884    526.877    529.398    526.877
 30.870    622.156    603.678     18.479    526.588    601.470    526.588    528.745    526.588
 30.970    595.000    614.448    -19.448    526.299    612.519    526.299    528.173    526.299
 31.070    560.451    606.054    -45.603    526.011    604.362    526.011    527.658    526.011
 31.170    561.000    584.812    -23.812    525.725    583.321    525.725    527.186    525.725
 31.270    529.000    562.885    -33.885    525.439    561.560    525.439    526.747    525.439
 31.370    575.526    547.205     28.321    525.154    546.016    525.154    526.335    525.154
 31.470    545.089    538.421      6.668    524.870    537.344    524.870    525.943    524.870
 31.570    520.000    534.208    -14.208    524.587    533.224    524.587    525.569    524.587
 31.670    516.000    532.236    -16.236    524.305    531.330    524.305    525.208    524.305
 31.770    516.932    531.181    -14.249    524.023    530.344    524.023    524.860    524.023
 31.870    516.000    530.504    -14.504    523.743    529.725    523.743    524.521    523.743
 31.970    535.000    530.020      4.980    523.464    529.292    523.464    524.191    523.464
 32.070    545.000    529.668     15.332    523.186    528.985    523.186    523.868    523.186
 32.170    515.749    529.425    -13.676    522.908    528.782    522.908    523.551    522.908
 32.270    540.000    529.284     10.716    522.632    528.675    522.632    523.240    522.632
 32.370    556.000    529.243     26.757    522.357    528.665    522.357    522.933    522.357
 32.470    598.000    529.310     68.690    522.083    528.760    522.083    522.632    522.083
 32.570    542.561    529.500     13.061    521.810    528.975    521.810    522.334    521.810
 32.670    526.000    529.836     -3.836    521.538    529.333    521.538    522.040    521.538
 32.770    521.000    530.347     -9.347    521.267    529.864    521.267    521.749    521.267
 32.870    533.000    531.085      1.915    520.997    530.620    520.997    521.461    520.997
 32.970    534.000    532.124      1.876    520.728    531.675    520.728    521.176    520.728
 33.070    504.000    533.576    -29.576    520.461    533.142    520.461    520.893    520.461
 33.170    578.000    535.639     42.361    520.194    535.218    520.194    520.613    520.194
 33.270    499.806    538.764    -38.957    519.929    538.354    519.929    520.336    519.929
 33.370    556.000    544.191     11.809    519.665    543.792    519.665    520.061    519.665
 33.470    540.000    555.327    -15.327    519.402    554.936    519.402    519.787    519.402
 33.570    603.000    579.959     23.041    519.140    579.573    519.140    519.516    519.140
 33.670    660.000    631.208     28.792    518.879    630.821    518.879    519.247    518.879
 33.770    719.000    722.277     -3.277    518.620    721.882    518.620    518.980    518.620
 33.870    883.000    851.992     31.008    518.362    851.586    518.362    518.715    518.362
 33.970   1011.000    987.292     23.708    518.105    986.882    518.105    518.451    518.105
 34.070   1011.428   1061.414    -49.986    517.849   1061.019    517.849    518.189    517.849
 34.170    989.741   1023.811    -34.070    517.594   1023.448    517.594    517.929    517.594
 34.270    899.000    902.573     -3.573    517.341    902.240    517.341    517.671    517.341
 34.370    697.000    765.515    -68.515    517.089    765.197    517.089    517.414    517.089
 34.470    625.000    658.705    -33.705    516.838    658.392    516.838    517.159    516.838
 34.570    584.510    593.324     -8.814    516.589    593.012    516.589    516.906    516.589
 34.670    535.849    559.708    -23.859    516.340    559.396    516.340    516.654    516.340
 34.770    535.229    543.924     -8.695    516.093    543.613    516.093    516.404    516.093
 34.870    548.250    536.231     12.019    515.848    535.923    515.848    516.156    515.848
 34.970    564.903    531.840     33.062    515.603    531.535    515.603    515.909    515.603
 35.070    514.000    528.870    -14.870    515.360    528.567    515.360    515.663    515.360
 35.170    518.000    526.643     -8.643    515.119    526.342    515.119    515.420    515.119
 35.270    498.000    524.887    -26.887    514.878    524.587    514.878    515.177    514.878
 35.370    495.000    523.461    -28.461    514.639    523.163    514.639    514.937    514.639
 35.470    556.000    522.277     33.723    514.402    521.981    514.402    514.698    514.402
 35.570    510.000    521.277    -11.277    514.165    520.982    514.165    514.460    514.165
 35.670    559.000    520.417     38.583    513.930    520.124    513.930    514.224    513.930
 35.770    509.000    519.669    -10.669    513.697    519.376    513.697    513.990    513.697
 35.870    507.000    519.009    -12.009    513.465    518.717    513.465    513.757    513.465
 35.970    510.901    518.420     -7.520    513.234    518.129    513.234    513.525    513.234
 36.070    541.769    517.891     23.878    513.005    517.600    513.005    513.295    513.005
 36.170    530.000    517.412     12.588    512.777    517.122    512.777    513.067    512.777
 36.270    517.000    516.977      0.023    512.550    516.686    512.550    512.840    512.550
 36.370    526.000    516.579      9.421    512.325    516.289    512.325    512.615    512.325
 36.470    510.648    516.217     -5.570    512.101    515.927    512.101    512.392    512.101
 36.570    558.000    515.889     42.111    511.879    515.598    511.879    512.169    511.879
 36.670    537.053    515.595     21.458    511.658    515.304    511.658    511.949    511.658
 36.770    487.000    515.341    -28.341    511.439    515.050    511.439    511.730    511.439
 36.870    479.000    515.141    -36.141    511.221    514.849    511.221    511.513    511.221
 36.970    493.000    515.037    -22.037    511.004    514.745    511.004    511.297    511.004
 37.070    545.000    515.136     29.864    510.789    514.843    510.789    511.082    510.789
 37.170    511.000    515.650     -4.650    510.576    515.357    510.576    510.870    510.576
 37.270    526.330    516.907      9.423    510.364    516.613    510.364    510.659    510.364
 37.370    522.228    519.220      3.008    510.153    518.925    510.153    510.449    510.153
 37.470    504.413    522.587    -18.174    509.944    522.291    509.944    510.241    509.944
 37.570    485.640    526.330    -40.689    509.737    526.034    509.737    510.035    509.737
 37.670    528.000    528.984     -0.984    509.531    528.688    509.531    509.830    509.531
 37.770    531.000    529.110      1.890    509.326    528.816    509.326    509.627    509.326
 37.870    554.000    526.714     27.286    509.123    526.420    509.123    509.425    509.123
 37.970    544.755    523.132     21.623    508.922    522.838    508.922    509.225    508.922
 38.070    549.000    519.596     29.404    508.722    519.301    508.722    509.027    508.722
 38.170    547.812    516.648     31.164    508.523    516.350    508.523    508.830    508.523
 38.270    498.000    514.443    -16.443    508.326    514.141    508.326    508.635    508.326
 38.370    547.145    512.926     34.219    508.131    512.620    508.131    508.442    508.131
 38.470    487.655    511.928    -24.273    507.937    511.617    507.937    508.250    507.937
 38.570    529.000    511.273     17.727    507.745    510.960    507.745    508.060    507.745
 38.670    523.798    510.825     12.973    507.554    510.509    507.554    507.871    507.554
 38.770    485.697    510.490    -24.793    507.365    510.171    507.365    507.684    507.365
 38.870    491.000    510.214    -19.214    507.177    509.892    507.177    507.499    507.177
 38.970    509.000    509.970     -0.970    506.991    509.646    506.991    507.315    506.991
 39.070    549.669    509.746     39.923    506.806    509.419    506.806    507.133    506.806
 39.170    509.905    509.537      0.369    506.623    509.207    506.623    506.953    506.623
 39.270    515.000    509.339      5.661    506.442    509.007    506.442    506.775    506.442
 39.370    543.000    509.152     33.848    506.262    508.817    506.262    506.598    506.262
 39.470    501.000    508.974     -7.974    506.084    508.636    506.084    506.422    506.084
 39.570    532.000    508.804     23.196    505.907    508.463    505.907    506.249    505.907
 39.670    502.418    508.642     -6.224    505.732    508.298    505.732    506.077    505.732
 39.770    487.000    508.488    -21.488    505.559    508.140    505.559    505.907    505.559
 39.870    522.000    508.340     13.660    505.387    507.989    505.387    505.738    505.387
 39.970    516.000    508.200      7.800    505.217    507.846    505.217    505.572    505.217
 40.070    550.651    508.068     42.583    505.048    507.710    505.048    505.407    505.048
 40.170    549.807    507.944     41.863    504.881    507.582    504.881    505.243    504.881
 40.270    550.666    507.828     42.838    504.716    507.463    504.716    505.082    504.716
 40.370    483.000    507.722    -24.722    504.552    507.352    504.552    504.922    504.552
 40.470    533.000    507.625     25.375    504.390    507.252    504.390    504.764    504.390
 40.570    510.067    507.540      2.527    504.229    507.162    504.229    504.607    504.229
 40.670    488.000    507.468    -19.468    504.070    507.086    504.070    504.453    504.070
 40.770    480.000    507.410    -27.410    503.913    507.023    503.913    504.300    503.913
 40.870    488.026    507.369    -19.344    503.757    506.978    503.757    504.149    503.757
 40.970    485.000    507.349    -22.349    503.603    506.953    503.603    503.999    503.603
 41.070    512.418    507.353      5.066    503.450    506.952    503.450    503.852    503.450
 41.170    487.000    507.386    -20.386    503.299    506.980    503.299    503.706    503.299
 41.270    483.000    507.456    -24.456    503.150    507.045    503.150    503.562    503.150
 41.370    504.187    507.573     -3.386    503.002    507.156    503.002    503.420    503.002
 41.470    460.000    507.750    -47.750    502.856    507.328    502.856    503.279    502.856
 41.570    449.000    508.009    -59.009    502.712    507.581    502.712    503.141    502.712
 41.670    473.199    508.386    -35.187    502.569    507.953    502.569    503.004    502.569
 41.770    467.000    508.963    -41.963    502.428    508.524    502.428    502.869    502.428
 41.870    487.302    509.938    -22.635    502.288    509.492    502.288    502.736    502.288
 41.970    515.000    511.783      3.217    502.150    511.332    502.150    502.605    502.150
 42.070    558.735    515.494     43.241    502.014    515.037    502.014    502.476    502.014
 42.170    514.000    522.756     -8.756    501.879    522.295    501.879    502.348    501.879
 42.270    538.000    535.675      2.325    501.746    535.213    501.746    502.223    501.746
 42.370    588.000    555.653     32.347    501.615    555.192    501.615    502.099    501.615
 42.470    556.000    581.522    -25.522    501.485    581.066    501.485    501.977    501.485
 42.570    584.742    607.774    -23.032    501.357    607.325    501.357    501.857    501.357
 42.670    637.640    624.709     12.931    501.231    624.263    501.231    501.740    501.231
 42.770    604.513    623.767    -19.254    501.106    623.315    501.106    501.624    501.106
 42.870    595.497    605.466     -9.969    500.983    604.998    500.983    501.510    500.983
 42.970    555.000    578.784    -23.784    500.861    578.292    500.861    501.398    500.861
 43.070    563.000    553.133      9.867    500.741    552.617    500.741    501.288    500.741
 43.170    504.000    533.606    -29.606    500.623    533.067    500.623    501.180    500.623
 43.270    487.000    521.075    -34.075    500.506    520.518    500.506    501.074    500.506
 43.370    505.000    514.022     -9.022    500.391    513.449    500.391    500.970    500.391
 43.470    513.000    510.354      2.646    500.278    509.767    500.278    500.869    500.278
 43.570    497.000    508.445    -11.445    500.166    507.844    500.166    500.769    500.166
 43.670    551.499    507.356     44.143    500.056    506.741    500.056    500.672    500.056
 43.770    484.806    506.643    -21.837    499.947    506.014    499.947    500.577    499.947
 43.870    527.000    506.122     20.878    499.840    505.479    499.840    500.484    499.840
 43.970    510.606    505.717      4.889    499.735    505.060    499.735    500.393    499.735
 44.070    463.299    505.394    -42.095    499.631    504.721    499.631    500.305    499.631
 44.170    526.000    505.133     20.867    499.529    504.444    499.529    500.219    499.529
 44.270    508.496    504.920      3.577    499.429    504.213    499.429    500.136    499.429
 44.370    500.000    504.746     -4.746    499.330    504.021    499.330    500.055    499.330
 44.470    516.000    504.604     11.396    499.233    503.861    499.233    499.976    499.233
 44.570    508.000    504.490      3.510    499.137    503.727    499.137    499.900    499.137
 44.670    541.000    504.399     36.601    499.043    503.615    499.043    499.827    499.043
 44.770    469.773    504.330    -34.557    498.951    503.524    498.951    499.757    498.951
 44.870    504.000    504.279     -0.279    498.860    503.450    498.860    499.689    498.860
 44.970    515.000    504.247     10.753    498.771    503.393    498.771    499.625    498.771
 45.070    507.000    504.231      2.769    498.683    503.352    498.683    499.563    498.683
 45.170    503.724    504.232     -0.508    498.597    503.325    498.597    499.505    498.597
 45.270    492.000    504.248    -12.248    498.513    503.312    498.513    499.450    498.513
 45.370    537.752    504.281     33.471    498.430    503.314    498.430    499.398    498.430
 45.470    507.000    504.331      2.669    498.349    503.330    498.349    499.350    498.349
 45.570    512.000    504.398      7.602    498.270    503.361    498.270    499.306    498.270
 45.670    520.000    504.482     15.518    498.192    503.408    498.192    499.266    498.192
 45.770    523.000    504.587     18.413    498.116    503.472    498.116    499.230    498.116
 45.870    529.000    504.712     24.288    498.041    503.553    498.041    499.199    498.041
 45.970    518.000    504.860     13.140    497.968    503.655    497.968    499.173    497.968
 46.070    510.269    505.034      5.235    497.896    503.778    497.896    499.152    497.896
 46.170    493.000    505.237    -12.237    497.826    503.926    497.826    499.136    497.826
 46.270    544.510    505.473     39.037    497.757    504.103    497.757    499.127    497.757
 46.370    485.000    505.748    -20.748    497.691    504.313    497.691    499.125    497.691
 46.470    508.000    506.068      1.932    497.625    504.563    497.625    499.129    497.625
 46.570    498.000    506.443     -8.443    497.562    504.861    497.562    499.142    497.562
 46.670    505.000    506.886     -1.886    497.499    505.220    497.499    499.164    497.499
 46.770    492.942    507.420    -14.477    497.439    505.662    497.439    499.196    497.439
 46.870    517.042    508.090      8.952    497.380    506.230    497.380    499.238    497.380
 46.970    489.463    508.997    -19.534    497.322    507.024    497.322    499.293    497.322
 47.070    491.000    510.372    -19.372    497.266    508.273    497.266    499.363    497.266
 47.170    502.504    512.675    -10.171    497.212    510.434    497.212    499.448    497.212
 47.270    529.000    516.683     12.317    497.159    514.283    497.159    499.551    497.159
 47.370    506.000    523.445    -17.445    497.107    520.864    497.107    499.677    497.107
 47.470    512.000    533.904    -21.904    497.057    531.115    497.057    499.827    497.057
 47.570    606.000    548.226     57.774    497.009    545.200    497.009    500.006    497.009
 47.670    566.000    564.925      1.075    496.962    561.626    496.962    500.220    496.962
 47.770    538.000    580.358    -42.358    496.917    576.748    496.917    500.475    496.917
 47.870    571.133    589.342    -18.209    496.873    585.378    496.873    500.781    496.873
 47.970    626.000    588.206     37.794    496.831    583.836    496.831    501.149    496.831
 48.070    540.070    578.110    -38.040    496.790    573.263    496.790    501.594    496.790
 48.170    559.000    563.846     -4.846    496.751    558.426    496.751    502.139    496.751
 48.270    571.000    550.190     20.810    496.713    544.062    496.713    502.820    496.713
 48.370    545.436    539.986      5.450    496.677    532.952    496.677    503.698    496.677
 48.470    539.000    534.123      4.877    496.642    525.879    496.642    504.878    496.642
 48.570    509.000    532.271    -23.271    496.609    522.333    496.609    506.541    496.609
 48.670    525.000    533.746     -8.746    496.577    521.333    496.577    508.985    496.577
 48.770    513.481    538.123    -24.641    496.547    522.003    496.547    512.663    496.547
 48.870    566.471    545.472     20.999    496.518    523.805    496.518    518.181    496.518
 48.970    547.000    556.291     -9.291    496.490    526.540    496.490    526.237    496.490
 49.070    558.000    571.296    -13.296    496.464    530.307    496.464    537.448    496.464
 49.170    559.000    591.255    -32.255    496.440    535.616    496.440    552.072    496.440
 49.270    622.000    617.141      4.859    496.416    543.922    496.416    569.626    496.416
 49.370    699.000    651.057     47.943    496.395    559.018    496.395    588.420    496.395
 49.470    724.568    698.504     26.064    496.374    589.727    496.374    605.127    496.374
 49.570    754.230    772.296    -18.066    496.356    653.445    496.356    615.164    496.356
 49.670    879.000    896.382    -17.382    496.338    777.734    496.338    614.912    496.338
 49.770   1152.000   1102.822     49.178    496.322    994.553    496.322    604.475    496.322
 49.870   1421.000   1413.908      7.092    496.308   1322.481    496.308    587.581    496.308
 49.970   1832.000   1813.279     18.721    496.294   1740.631    496.294    568.780    496.294
 50.070   2138.453   2224.279    -85.826    496.283   2169.120    496.283    551.322    496.283
 50.170   2561.000   2517.927     43.073    496.272   2477.347    496.272    536.836    496.272
 50.270   2509.000   2569.789    -60.789    496.263   2540.401    496.263    525.761    496.263
 50.370   2320.000   2349.818    -29.818    496.256   2328.457    496.256    517.819    496.256
 50.470   1886.000   1951.471    -65.471    496.249   1935.564    496.249    512.383    496.249
 50.570   1506.000   1514.902     -8.902    496.244   1502.587    496.244    508.760    496.244
 50.670   1073.000   1146.089    -73.089    496.241   1136.133    496.241    506.346    496.241
 50.770    838.989    889.877    -50.888    496.239    881.517    496.239    504.699    496.239
 50.870    688.654    740.159    -51.505    496.238    732.937    496.238    503.526    496.238
 50.970    670.000    665.361      4.639    496.238    658.998    496.238    502.649    496.238
 51.070    595.120    631.293    -36.173    496.240    625.608    496.240    501.966    496.240
 51.170    608.524    613.034     -4.510    496.243    607.896    496.243    501.417    496.243
 51.270    589.000    597.729     -8.729    496.248    593.040    496.248    500.968    496.248
 51.370    610.616    582.013     28.603    496.254    577.696    496.254    500.596    496.254
 51.470    600.073    566.930     33.142    496.261    562.925    496.261    500.285    496.261
 51.570    599.000    554.135     44.865    496.269    550.393    496.269    500.025    496.269
 51.670    570.000    544.504     25.496    496.279    540.986    496.279    499.806    496.279
 51.770    550.000    538.021     11.979    496.290    534.694    496.290    499.623    496.290
 51.870    496.289    534.105    -37.816    496.302    530.943    496.302    499.469    496.302
 51.970    519.000    532.032    -13.032    496.316    529.011    496.316    499.340    496.316
 52.070    544.000    531.216     12.784    496.330    528.315    496.330    499.234    496.330
 52.170    525.867    531.317     -5.450    496.346    528.519    496.346    499.146    496.346
 52.270    534.174    532.237      1.936    496.364    529.527    496.364    499.076    496.364
 52.370    513.440    534.123    -20.682    496.382    531.486    496.382    499.020    496.382
 52.470    583.000    537.473     45.527    496.402    534.899    496.402    498.978    496.402
 52.570    574.000    543.454     30.546    496.423    540.929    496.423    498.948    496.423
 52.670    594.000    554.415     39.585    496.445    551.932    496.445    498.929    496.445
 52.770    597.000    574.496     22.504    496.469    572.043    496.469    498.920    496.469
 52.870    658.000    609.823     48.177    496.493    607.393    496.493    498.921    496.493
 52.970    718.119    667.576     50.543    496.519    665.161    496.519    498.930    496.519
 53.070    774.988    753.256     21.732    496.546    750.850    496.546    498.947    496.546
 53.170    815.649    866.394    -50.745    496.575    863.991    496.575    498.973    496.575
 53.270    947.259    996.061    -48.802    496.604    993.660    496.604    499.006    496.604
 53.370   1092.969   1118.286    -25.317    496.635   1115.884    496.635    499.046    496.635
 53.470   1223.410   1199.090     24.319    496.666   1196.687    496.666    499.093    496.666
 53.570   1241.000   1208.930     32.070    496.699   1206.518    496.699    499.148    496.699
 53.670   1120.986   1143.644    -22.659    496.733   1141.212    496.733    499.209    496.733
 53.770    967.000   1028.334    -61.334    496.768   1025.869    496.768    499.277    496.768
 53.870    907.000    898.063      8.937    496.805    895.553    496.805    499.352    496.805
 53.970    719.000    779.921    -60.921    496.842    777.356    496.842    499.435    496.842
 54.070    642.152    687.844    -45.691    496.881    685.220    496.881    499.524    496.881
 54.170    581.218    624.401    -43.183    496.920    621.713    496.920    499.621    496.920
 54.270    570.000    585.049    -15.049    496.961    582.292    496.961    499.725    496.961
 54.370    550.000    562.650    -12.650    497.003    559.820    497.003    499.838    497.003
 54.470    550.000    550.653     -0.653    497.046    547.743    497.046    499.959    497.046
 54.570    558.628    544.426     14.202    497.089    541.429    497.089    500.088    497.089
 54.670    551.000    541.242      9.758    497.134    538.152    497.134    500.227    497.134
 54.770    561.699    539.711     21.988    497.181    536.518    497.181    500.376    497.181
 54.870    552.780    539.196     13.584    497.228    535.890    497.228    500.535    497.228
 54.970    510.000    539.429    -29.429    497.276    536.001    497.276    500.705    497.276
 55.070    546.000    540.313      5.687    497.325    536.752    497.325    500.887    497.325
 55.170    561.000    541.828     19.172    497.375    538.121    497.375    501.083    497.375
 55.270    561.202    544.003     17.199    497.426    540.137    497.426    501.293    497.426
 55.370    566.000    546.915     19.085    497.479    542.876    497.479    501.518    497.479
 55.470    588.828    550.706     38.123    497.532    546.478    497.532    501.761    497.532
 55.570    528.594    555.640    -27.046    497.586    551.205    497.586    502.022    497.586
 55.670    554.340    562.267     -7.926    497.641    557.604    497.641    502.304    497.641
 55.770    617.697    571.787     45.910    497.697    566.874    497.697    502.609    497.697
 55.870    621.397    586.803     34.594    497.754    581.616    497.754    502.940    497.754
 55.970    609.000    612.590     -3.590    497.812    607.097    497.812    503.300    497.812
 56.070    670.894    658.711     12.183    497.871    652.879    497.871    503.692    497.871
 56.170    717.000    740.192    -23.192    497.931    733.980    497.931    504.121    497.931
 56.270    830.206    876.571    -46.366    497.992    869.935    497.992    504.592    497.992
 56.370   1044.000   1086.936    -42.936    498.054   1079.827    498.054    505.111    498.054
 56.470   1271.000   1380.343   -109.343    498.116   1372.712    498.116    505.685    498.116
 56.570   1731.000   1743.864    -12.864    498.180   1735.664    498.180    506.322    498.180
 56.670   2098.000   2133.028    -35.028    498.244   2124.211    498.244    507.032    498.244
 56.770   2539.591   2470.457     69.134    498.309   2460.970    498.309    507.829    498.309
 56.870   2663.000   2662.458      0.542    498.376   2652.227    498.376    508.726    498.376
 56.970   2652.727   2643.454      9.273    498.443   2632.362    498.443    509.743    498.443
 57.070   2344.437   2421.455    -77.018    498.510   2409.326    498.510    510.904    498.510
 57.170   2168.000   2071.372     96.628    498.579   2057.984    498.579    512.240    498.579
 57.270   1730.780   1685.974     44.806    498.649   1671.072    498.649    513.793    498.649
 57.370   1305.000   1337.070    -32.070    498.719   1320.356    498.719    515.626    498.719
 57.470   1086.000   1063.081     22.919    498.790   1044.172    498.790    517.835    498.790
 57.570    871.000    872.366     -1.366    498.862    850.736    498.862    520.581    498.862
 57.670    804.105    753.751     50.353    498.935    728.607    498.935    524.132    498.935
 57.770    747.000    688.519     58.481    499.008    658.625    499.008    528.930    499.008
 57.870    683.000    659.480     23.520    499.083    622.899    499.083    535.675    499.083
 57.970    665.000    655.472      9.528    499.158    609.227    499.158    545.404    499.158
 58.070    678.000    671.928      6.072    499.233    611.636    499.233    559.517    499.233
 58.170    750.000    709.369     40.631    499.310    628.953    499.310    579.707    499.310
 58.270    818.000    770.943     47.057    499.387    662.579    499.387    607.722    499.387
 58.370    896.000    859.669     36.331    499.465    714.156    499.465    644.938    499.465
 58.470    978.000    975.778      2.222    499.544    783.494    499.544    691.778    499.544
 58.570   1126.000   1114.484     11.516    499.623    867.031    499.623    747.022    499.623
 58.670   1314.838   1264.639     50.198    499.704    957.274    499.704    807.018    499.704
 58.770   1438.000   1409.339     28.661    499.784   1044.208    499.784    864.877    499.784
 58.870   1564.671   1529.098     35.573    499.866   1118.611    499.866    910.333    499.866
 58.970   1595.604   1605.680    -10.075    499.948   1173.471    499.948    932.159    499.948
 59.070   1680.711   1625.794     54.916    500.031   1201.985    500.031    923.866    500.031
 59.170   1668.000   1586.676     81.324    500.114   1198.680    500.114    888.155    500.114
 59.270   1457.000   1500.227    -43.227    500.198   1165.617    500.198    834.857    500.198
 59.370   1416.299   1389.534     26.764    500.283   1114.780    500.283    775.074    500.283
 59.470   1225.584   1279.245    -53.662    500.368   1062.354    500.368    717.272    500.368
 59.570   1174.000   1189.430    -15.430    500.454   1023.356    500.454    666.504    500.454
 59.670   1169.000   1136.038     32.962    500.541   1011.490    500.541    625.019    500.541
 59.770   1156.000   1131.425     24.575    500.628   1038.861    500.628    593.070    500.628
 59.870   1212.000   1180.215     31.785    500.716   1111.108    500.716    569.645    500.716
 59.970   1303.341   1274.193     29.149    500.804   1221.655    500.804    553.112    500.804
 60.070   1487.000   1390.405     96.595    500.893   1349.312    500.893    541.717    500.893
 60.170   1571.000   1493.427     77.573    500.982   1460.214    500.982    533.914    500.982
 60.270   1528.000   1543.964    -15.964    501.072   1516.278    501.072    528.498    501.072
 60.370   1508.272   1515.820     -7.548    501.162   1492.146    501.162    524.627    501.162
 60.470   1422.324   1410.944     11.380    501.253   1390.300    501.253    521.750    501.253
 60.570   1362.000   1256.162    105.838    501.344   1237.884    501.344    519.532    501.344
 60.670   1148.000   1086.213     61.787    501.436   1069.826    501.436    517.776    501.436
 60.770    944.839    929.757     15.082    501.529    914.897    501.529    516.369    501.529
 60.870    754.000    803.764    -49.764    501.622    790.131    501.622    515.248    501.622
 60.970    712.000    713.702     -1.702    501.715    701.034    501.715    514.379    501.715
 61.070    688.614    657.007     31.607    501.809    645.065    501.809    513.746    501.809
 61.170    649.000    627.805     21.195    501.903    616.360    501.903    513.338    501.903
 61.270    659.062    621.029     38.033    501.998    609.861    501.998    513.147    501.998
 61.370    659.177    634.855     24.321    502.093    623.762    502.093    513.157    502.093
 61.470    687.000    671.183     15.817    502.188    659.989    502.188    513.336    502.188
 61.570    755.000    734.306     20.694    502.284    722.893    502.284    513.629    502.284
 61.670    775.817    828.073    -52.256    502.380    816.406    502.380    513.950    502.380
 61.770    906.000    952.116    -46.116    502.477    940.285    502.477    514.181    502.477
 61.870   1122.443   1098.256     24.186    502.574   1086.482    502.574    514.192    502.574
 61.970   1174.000   1248.392    -74.392    502.671   1236.991    502.671    513.899    502.671
 62.070   1335.000   1375.251    -40.251    502.769   1364.539    502.769    513.309    502.769
 62.170   1442.000   1448.161     -6.161    502.867   1438.369    502.867    512.511    502.867
 62.270   1438.000   1445.622     -7.622    502.966   1436.855    502.966    511.625    502.966
 62.370   1335.000   1368.011    -33.011    503.064   1360.261    503.064    510.752    503.064
 62.470   1285.498   1237.349     48.149    503.163   1230.529    503.163    509.958    503.163
 62.570   1041.000   1084.394    -43.394    503.263   1078.377    503.263    509.280    503.263
 62.670    924.000    936.180    -12.180    503.362    930.827    503.362    508.727    503.362
 62.770    781.000    810.340    -29.340    503.462    805.522    503.462    508.296    503.462
 62.870    705.862    714.420     -8.558    503.562    710.024    503.562    507.971    503.562
 62.970    624.000    647.900    -23.900    503.663    643.838    503.663    507.733    503.663
 63.070    582.000    605.513    -23.513    503.763    601.717    503.763    507.563    503.763
 63.170    582.339    580.483      1.856    503.864    576.905    503.864    507.442    503.864
 63.270    522.902    566.769    -43.867    503.965    563.373    503.965    507.359    503.965
 63.370    595.888    560.074     35.814    504.067    556.835    504.067    507.302    504.067
 63.470    578.000    557.994     20.006    504.168    554.892    504.168    507.265    504.168
 63.570    579.000    559.759     19.241    504.270    556.777    504.270    507.244    504.270
 63.670    535.773    565.928    -30.155    504.372    563.053    504.372    507.234    504.372
 63.770    618.000    578.125     39.875    504.474    575.346    504.474    507.235    504.474
 63.870    633.000    598.724     34.276    504.576    596.028    504.576    507.245    504.576
 63.970    662.540    630.307     32.233    504.679    627.683    504.679    507.262    504.679
 64.070    634.198    674.808    -40.610    504.781    672.245    504.781    507.287    504.781
 64.170    728.000    732.399     -4.399    504.884    729.889    504.884    507.318    504.884
 64.270    845.286    800.370     44.915    504.987    797.906    504.987    507.354    504.987
 64.370    846.000    872.337    -26.337    505.089    869.917    505.089    507.395    505.089
 64.470    992.000    938.278     53.722    505.192    935.904    505.192    507.442    505.192
 64.570   1005.000    986.350     18.650    505.296    984.029    505.296    507.492    505.296
 64.670   1030.000   1007.060     22.940    505.399   1004.801    505.399    507.547    505.399
 64.770    984.000    997.400    -13.400    505.502    995.206    505.502    507.606    505.502
 64.870    917.799    961.423    -43.623    505.605    959.297    505.605    507.668    505.605
 64.970    910.000    907.843      2.157    505.708    905.783    505.708    507.733    505.708
 65.070    888.928    846.933     41.994    505.812    844.933    505.812    507.800    505.812
 65.170    793.000    787.504      5.496    505.915    785.554    505.915    507.871    505.915
 65.270    718.000    734.929    -16.929    506.019    733.022    506.019    507.945    506.019
 65.370    689.000    691.055     -2.055    506.122    689.181    506.122    508.022    506.122
 65.470    688.927    655.520     33.407    506.225    653.671    506.225    508.101    506.225
 65.570    611.000    627.257    -16.257    506.329    625.426    506.329    508.183    506.329
 65.670    626.000    605.194     20.806    506.432    603.378    506.432    508.267    506.432
 65.770    585.776    588.350     -2.574    506.535    586.546    506.535    508.353    506.535
 65.870    527.000    575.850    -48.850    506.639    574.056    506.639    508.442    506.639
 65.970    563.000    566.945     -3.945    506.742    565.159    506.742    508.532    506.742
 66.070    560.879    560.996     -0.118    506.845    559.219    506.845    508.625    506.845
 66.170    544.729    557.455    -12.726    506.948    555.685    506.948    508.719    506.948
 66.270    582.000    555.853     26.147    507.051    554.089    507.051    508.816    507.051
 66.370    536.203    555.824    -19.620    507.154    554.063    507.154    508.914    507.154
 66.470    524.000    557.137    -33.137    507.257    555.379    507.257    509.014    507.257
 66.570    559.861    559.756      0.105    507.359    558.000    507.359    509.116    507.359
 66.670    538.000    563.930    -25.930    507.462    562.172    507.462    509.220    507.462
 66.770    610.000    570.363     39.637    507.564    568.602    507.564    509.326    507.564
 66.870    568.000    580.520    -12.520    507.666    578.753    507.666    509.434    507.666
 66.970    613.000    597.081     15.919    507.768    595.304    507.768    509.544    507.768
 67.070    588.357    624.485    -36.128    507.870    622.696    507.870    509.655    507.870
 67.170    646.000    669.374    -23.374    507.972    667.568    507.972    509.769    507.972
 67.270    745.000    740.554      4.446    508.073    738.728    508.073    509.885    508.073
 67.370    856.000    848.024      7.976    508.174    846.176    508.174    510.003    508.174
 67.470    942.000   1000.710    -58.710    508.276    998.841    508.276    510.123    508.276
 67.570   1209.486   1202.966      6.520    508.376   1201.080    508.376    510.246    508.376
 67.670   1471.011   1450.541     20.470    508.477   1448.649    508.477    510.371    508.477
 67.770   1749.000   1727.202     21.798    508.577   1725.316    508.577    510.499    508.577
 67.870   1997.000   2003.241     -6.241    508.677   2001.376    508.677    510.629    508.677
 67.970   2159.561   2237.218    -77.657    508.777   2235.389    508.777    510.762    508.777
 68.070   2374.000   2383.393     -9.393    508.877   2381.604    508.877    510.898    508.877
 68.170   2357.000   2407.093    -50.093    508.976   2405.332    508.976    511.038    508.976
 68.270   2317.000   2302.041     14.959    509.075   2300.278    509.075    511.181    509.075
 68.370   2088.943   2094.260     -5.317    509.174   2092.455    509.174    511.328    509.174
 68.470   1775.482   1827.929    -52.447    509.272   1826.047    509.272    511.479    509.272
 68.570   1507.480   1547.471    -39.991    509.370   1545.485    509.370    511.634    509.370
 68.670   1297.835   1287.230     10.605    509.468   1285.127    509.468    511.794    509.468
 68.770   1015.487   1068.183    -52.696    509.565   1065.957    509.565    511.959    509.565
 68.870    875.000    898.501    -23.501    509.662    896.152    509.662    512.130    509.662
 68.970    818.000    776.394     41.606    509.759    773.926    509.759    512.308    509.759
 69.070    739.843    694.067     45.776    509.855    691.483    509.855    512.492    509.855
 69.170    688.000    641.529     46.471    509.951    638.830    509.951    512.683    509.951
 69.270    632.000    609.345     22.655    510.046    606.530    510.046    512.883    510.046
 69.370    623.000    590.044     32.956    510.141    587.107    510.141    513.093    510.141
 69.470    553.137    578.425    -25.288    510.236    575.358    510.236    513.312    510.236
 69.570    575.210    571.226      3.984    510.330    568.020    510.330    513.543    510.330
 69.670    609.534    566.573     42.961    510.424    563.215    510.424    513.787    510.424
 69.770    584.686    563.458     21.228    510.517    559.933    510.517    514.046    510.517
 69.870    603.000    561.368     41.632    510.610    557.661    510.610    514.320    510.610
 69.970    584.000    560.050     23.950    510.702    556.142    510.702    514.613    510.702
 70.070    605.000    559.387     45.613    510.794    555.255    510.794    514.927    510.794
 70.170    601.360    559.332     42.028    510.886    554.953    510.886    515.265    510.886
 70.270    521.925    559.896    -37.971    510.977    555.242    510.977    515.630    510.977
 70.370    598.503    561.158     37.345    511.067    556.197    511.067    516.027    511.067
 70.470    579.410    563.308     16.102    511.157    558.003    511.157    516.460    511.157
 70.570    599.327    566.723     32.604    511.246    561.031    511.246    516.935    511.246
 70.670    559.000    572.122    -13.122    511.335    565.991    511.335    517.460    511.335
 70.770    569.720    580.777    -11.057    511.424    574.146    511.424    518.044    511.424
 70.870    573.000    594.794    -21.794    511.511    587.589    511.511    518.701    511.511
 70.970    573.094    617.382    -44.287    511.599    609.507    511.599    519.449    511.599
 71.070    613.000    652.996    -39.996    511.685    644.327    511.685    520.317    511.685
 71.170    696.000    707.150    -11.150    511.771    697.516    511.771    521.350    511.771
 71.270    758.000    785.698    -27.698    511.857    774.855    511.857    522.622    511.857
 71.370    877.000    893.484    -16.484    511.942    881.066    511.942    524.254    511.942
 71.470   1067.000   1032.463     34.537    512.026   1017.918    512.026    526.436    512.026
 71.570   1226.000   1199.707     26.293    512.109   1182.197    512.109    529.456    512.109
 71.670   1444.075   1385.825     58.249    512.192   1364.102    512.192    533.730    512.192
 71.770   1603.000   1574.330     28.670    512.275   1546.590    512.275    539.819    512.275
 71.870   1804.275   1742.380     61.895    512.357   1706.126    512.357    548.417    512.357
 71.970   1853.000   1863.937    -10.937    512.438   1815.894    512.438    560.307    512.438
 72.070   1909.956   1916.968     -7.012    512.518   1853.102    512.518    576.244    512.518
 72.170   1889.000   1893.305     -4.305    512.598   1809.001    512.598    596.799    512.598
 72.270   1730.577   1803.325    -72.747    512.677   1693.789    512.677    622.145    512.677
 72.370   1613.159   1670.142    -56.983    512.755   1531.017    512.755    651.840    512.755
 72.470   1565.000   1519.299     45.701    512.833   1347.486    512.833    684.626    512.833
 72.570   1322.686   1371.618    -48.932    512.910   1166.257    512.910    718.261    512.910
 72.670   1229.000   1240.209    -11.209    512.986   1003.735    512.986    749.456    512.986
 72.770   1121.432   1130.095     -8.663    513.061    869.084    513.061    774.070    513.061
 72.870    974.000   1039.777    -65.777    513.136    764.997    513.136    787.913    513.136
 72.970    983.000    964.366     18.634    513.210    689.366    513.210    788.206    513.210
 73.070    825.000    898.942    -73.942    513.283    637.321    513.283    774.900    513.283
 73.170    796.080    840.440    -44.360    513.356    603.089    513.356    750.703    513.356
 73.270    751.000    787.669    -36.669    513.428    581.306    513.428    719.788    513.428
 73.370    707.000    740.510    -33.510    513.499    567.693    513.499    686.313    513.499
 73.470    653.463    699.253    -45.790    513.569    559.218    513.569    653.603    513.569
 73.570    596.000    664.228    -68.228    513.638    553.938    513.638    623.929    513.638
 73.670    560.000    635.594    -75.594    513.707    550.724    513.707    598.580    513.707
 73.770    597.155    613.219    -16.064    513.774    548.980    513.774    578.018    513.774
 73.870    579.000    596.652    -17.652    513.841    548.414    513.841    562.087    513.841
 73.970    554.124    585.178    -31.054    513.907    548.872    513.907    550.225    513.907
 74.070    631.000    577.910     53.090    513.973    550.221    513.973    541.678    513.973
 74.170    606.000    573.883     32.117    514.037    552.277    514.037    535.665    514.037
 74.270    588.773    572.115     16.658    514.101    554.758    514.101    531.486    514.101
 74.370    580.000    571.654      8.346    514.163    557.277    514.163    528.576    514.163
 74.470    544.031    571.606    -27.575    514.225    559.357    514.225    526.514    514.225
 74.570    578.000    571.187      6.813    514.286    560.508    514.286    525.009    514.286
 74.670    558.040    569.839    -11.800    514.346    560.363    514.346    523.867    514.346
 74.770    628.000    567.354     60.646    514.405    558.834    514.405    522.968    514.405
 74.870    566.653    563.899      2.754    514.463    556.166    514.463    522.235    514.463
 74.970    640.000    559.898     80.102    514.521    552.830    514.521    521.623    514.521
 75.070    588.173    555.873     32.300    514.577    549.375    514.577    521.102    514.577
 75.170    546.188    552.338     -6.150    514.633    546.339    514.633    520.653    514.633
 75.270    580.000    549.781     30.219    514.687    544.219    514.687    520.264    514.687
 75.370    530.000    548.668    -18.668    514.741    543.493    514.741    519.924    514.741
 75.470    530.000    549.476    -19.476    514.793    544.646    514.793    519.626    514.793
 75.570    569.000    552.708     16.292    514.845    548.186    514.845    519.365    514.845
 75.670    515.961    558.886    -42.925    514.896    554.639    514.896    519.134    514.896
 75.770    547.248    568.480    -21.232    514.945    564.481    514.945    518.930    514.945
 75.870    611.506    581.795     29.710    514.994    578.019    514.994    518.749    514.994
 75.970    594.086    598.799     -4.713    515.042    595.222    515.042    518.589    515.042
 76.070    587.238    618.953    -31.715    515.089    615.557    515.089    518.446    515.089
 76.170    600.113    641.085    -40.972    515.135    637.853    515.135    518.319    515.135
 76.270    662.898    663.336     -0.438    515.179    660.255    515.179    518.206    515.179
 76.370    707.000    683.234     23.766    515.223    680.292    515.223    518.105    515.223
 76.470    640.000    697.968    -57.968    515.266    695.157    515.266    518.014    515.266
 76.570    654.383    704.998    -50.615    515.307    702.311    515.307    517.934    515.307
 76.670    660.680    702.928    -42.249    515.348    700.359    515.348    517.861    515.348
 76.770    736.000    692.122     43.878    515.388    689.665    515.388    517.797    515.388
 76.870    653.000    674.517    -21.517    515.426    672.165    515.426    517.739    515.426
 76.970    631.000    652.833    -21.833    515.464    650.579    515.464    517.687    515.464
 77.070    650.000    629.775     20.225    515.500    627.612    515.500    517.640    515.500
 77.170    636.000    607.566     28.434    515.535    605.487    515.535    517.598    515.535
 77.270    576.317    587.759    -11.442    515.570    585.758    515.570    517.560    515.570
 77.370    543.000    571.212    -28.212    515.603    569.282    515.603    517.526    515.603
 77.470    534.674    558.170    -23.496    515.635    556.304    515.635    517.496    515.635
 77.570    561.928    548.415     13.513    515.666    546.609    515.666    517.468    515.666
 77.670    563.925    541.452     22.473    515.696    539.702    515.696    517.443    515.696
 77.770    510.000    536.674    -26.674    515.724    534.976    515.724    517.421    515.724
 77.870    484.000    533.482    -49.482    515.752    531.832    515.752    517.401    515.752
 77.970    537.000    531.375      5.625    515.779    529.770    515.779    517.382    515.779
 78.070    537.000    530.023      6.977    515.804    528.460    515.804    517.366    515.804
 78.170    502.497    529.136    -26.640    515.828    527.613    515.828    517.351    515.828
 78.270    494.084    528.540    -34.456    515.851    527.054    515.851    517.337    515.851
 78.370    497.000    528.131    -31.131    515.873    526.679    515.873    517.325    515.873
 78.470    543.000    527.852     15.148    515.894    526.432    515.894    517.313    515.894
 78.570    506.000    527.676    -21.676    515.914    526.286    515.914    517.303    515.914
 78.670    547.000    527.593     19.407    515.932    526.231    515.932    517.294    515.932
 78.770    525.374    527.611     -2.236    515.949    526.274    515.949    517.286    515.949
 78.870    546.257    527.743     18.514    515.965    526.429    515.965    517.279    515.965
 78.970    515.000    528.015    -13.015    515.980    526.720    515.980    517.274    515.980
 79.070    505.832    528.455    -22.623    515.994    527.178    515.994    517.271    515.994
 79.170    524.000    529.097     -5.097    516.007    527.833    516.007    517.270    516.007
 79.270    542.000    529.975     12.025    516.018    528.719    516.018    517.272    516.018
 79.370    539.000    531.119      7.881    516.028    529.865    516.028    517.279    516.028
 79.470    520.573    532.559    -11.985    516.037    531.301    516.037    517.292    516.037
 79.570    508.000    534.326    -26.326    516.045    533.056    516.045    517.311    516.045
 79.670    502.000    536.466    -34.466    516.051    535.174    516.051    517.339    516.051
 79.770    526.000    539.053    -13.053    516.056    537.728    516.056    517.376    516.056
 79.870    574.803    542.208     32.595    516.060    540.839    516.060    517.423    516.060
 79.970    527.982    546.127    -18.145    516.063    544.703    516.063    517.481    516.063
 80.070    526.000    551.105    -25.105    516.064    549.616    516.064    517.548    516.064
 80.170    516.000    557.548    -41.548    516.065    555.986    516.065    517.623    516.065
 80.270    530.000    565.944    -35.944    516.064    564.305    516.064    517.701    516.064
 80.370    558.000    576.773    -18.773    516.061    575.057    516.061    517.778    516.061
 80.470    578.000    590.384    -12.384    516.058    588.601    516.058    517.846    516.058
 80.570    571.000    606.877    -35.877    516.053    605.042    516.053    517.896    516.053
 80.670    591.000    626.005    -35.005    516.047    624.144    516.047    517.922    516.047
 80.770    673.000    647.118     25.882    516.040    645.263    516.040    517.915    516.040
 80.870    641.000    669.169    -28.169    516.031    667.352    516.031    517.874    516.031
 80.970    675.059    690.814    -15.755    516.021    689.065    516.021    517.803    516.021
 81.070    761.215    710.600     50.615    516.010    708.941    516.010    517.710    516.010
 81.170    701.000    727.169    -26.169    515.998    725.613    515.998    517.602    515.998
 81.270    752.041    739.399     12.642    515.984    737.950    515.984    517.487    515.984
 81.370    740.000    746.494     -6.494    515.969    745.150    515.969    517.373    515.969
 81.470    727.000    748.090    -21.090    515.952    746.843    515.952    517.264    515.952
 81.570    742.000    744.281     -2.281    515.935    743.121    515.935    517.163    515.935
 81.670    722.000    735.552    -13.552    515.916    734.467    515.916    517.071    515.916
 81.770    716.000    722.697     -6.697    515.895    721.675    515.895    516.989    515.895
 81.870    663.646    706.802    -43.157    515.874    705.829    515.874    516.916    515.874
 81.970    689.244    689.141      0.103    515.851    688.206    515.851    516.852    515.851
 82.070    678.000    670.939      7.061    515.827    670.034    515.827    516.795    515.827
 82.170    694.000    653.131     40.869    515.801    652.248    515.801    516.743    515.801
 82.270    617.000    636.264    -19.264    515.774    635.397    515.774    516.696    515.774
 82.370    625.386    620.574      4.812    515.746    619.718    515.746    516.652    515.746
 82.470    586.000    606.153    -20.153    515.716    605.305    515.716    516.609    515.716
 82.570    553.000    593.095    -40.095    515.685    592.252    515.685    516.568    515.685
 82.670    567.000    581.545    -14.545    515.653    580.704    515.653    516.528    515.653
 82.770    563.514    571.672     -8.158    515.619    570.831    515.619    516.487    515.619
 82.870    572.000    563.633      8.367    515.584    562.792    515.584    516.446    515.584
 82.970    577.515    557.557     19.958    515.548    556.714    515.548    516.405    515.548
 83.070    572.000    553.526     18.474    515.510    552.679    515.510    516.363    515.510
 83.170    597.044    551.556     45.488    515.471    550.706    515.471    516.320    515.471
 83.270    518.998    551.581    -32.583    515.431    550.728    515.431    516.277    515.431
 83.370    549.000    553.429     -4.429    515.389    552.570    515.389    516.232    515.389
 83.470    514.053    556.803    -42.750    515.346    555.939    515.346    516.187    515.346
 83.570    554.817    561.280     -6.463    515.301    560.411    515.301    516.141    515.301
 83.670    570.000    566.320      3.680    515.255    565.446    515.255    516.093    515.255
 83.770    603.000    571.288     31.712    515.208    570.409    515.208    516.045    515.208
 83.870    567.000    575.496     -8.496    515.159    574.614    515.159    515.996    515.159
 83.970    569.000    578.286     -9.286    515.109    577.402    515.109    515.946    515.109
 84.070    601.000    579.150     21.850    515.058    578.267    515.058    515.894    515.058
 84.170    551.000    577.870    -26.870    515.005    576.989    515.005    515.842    515.005
 84.270    539.000    574.577    -35.577    514.951    573.699    514.951    515.788    514.951
 84.370    593.269    569.693     23.576    514.895    568.819    514.895    515.734    514.895
 84.470    569.000    563.784      5.216    514.839    562.915    514.839    515.678    514.839
 84.570    547.000    557.433    -10.433    514.780    556.567    514.780    515.622    514.780
 84.670    517.155    551.149    -33.994    514.721    550.287    514.721    515.564    514.721
 84.770    529.000    545.330    -16.330    514.660    544.469    514.660    515.505    514.660
 84.870    539.000    540.238     -1.238    514.597    539.379    514.597    515.445    514.597
 84.970    545.527    536.008      9.519    514.533    535.149    514.533    515.384    514.533
 85.070    573.739    532.664     41.075    514.468    531.803    514.468    515.322    514.468
 85.170    529.098    530.146     -1.048    514.401    529.283    514.401    515.259    514.401
 85.270    525.422    528.348     -2.927    514.333    527.483    514.333    515.195    514.333
 85.370    489.655    527.147    -37.492    514.264    526.277    514.264    515.130    514.264
 85.470    563.393    526.424     36.970    514.193    525.550    514.193    515.063    514.193
 85.570    553.000    526.087     26.913    514.121    525.209    514.121    514.996    514.121
 85.670    498.639    526.078    -27.439    514.048    525.194    514.048    514.927    514.048
 85.770    528.000    526.379      1.621    513.973    525.488    513.973    514.858    513.973
 85.870    508.000    527.013    -19.013    513.896    526.116    513.896    514.787    513.896
 85.970    536.000    528.049      7.951    513.818    527.144    513.818    514.716    513.818
 86.070    557.000    529.599     27.401    513.739    528.686    513.739    514.643    513.739
 86.170    503.409    531.816    -28.408    513.659    530.893    513.659    514.569    513.659
 86.270    499.000    534.884    -35.884    513.577    533.949    513.577    514.495    513.577
 86.370    520.000    539.000    -19.000    513.494    538.053    513.494    514.419    513.494
 86.470    575.386    544.354     31.032    513.409    543.392    513.409    514.342    513.409
 86.570    587.024    551.080     35.944    513.323    550.101    513.323    514.265    513.323
 86.670    601.000    559.238     41.762    513.235    558.241    513.235    514.186    513.235
 86.770    580.000    568.769     11.231    513.147    567.751    513.147    514.107    513.147
 86.870    626.760    579.419     47.342    513.056    578.379    513.056    514.026    513.056
 86.970    626.116    590.750     35.365    512.965    589.688    512.965    513.945    512.965
 87.070    620.000    602.135     17.865    512.872    601.050    512.872    513.863    512.872
 87.170    629.000    612.766     16.234    512.777    611.660    512.777    513.780    512.777
 87.270    656.000    621.723     34.277    512.681    620.598    512.681    513.696    512.681
 87.370    671.798    628.084     43.714    512.584    626.942    512.584    513.611    512.584
 87.470    651.000    631.119     19.881    512.486    629.965    512.486    513.526    512.486
 87.570    582.434    630.500    -48.066    512.386    629.338    512.386    513.440    512.386
 87.670    639.000    626.404     12.596    512.285    625.237    512.285    513.353    512.285
 87.770    628.000    619.447      8.553    512.182    618.277    512.182    513.266    512.182
 87.870    629.158    610.512     18.646    512.078    609.339    512.078    513.178    512.078
 87.970    619.512    600.575     18.938    511.973    599.399    511.973    513.089    511.973
 88.070    557.881    590.586    -32.705    511.866    589.406    511.866    513.000    511.866
 88.170    604.000    581.395     22.605    511.758    580.209    511.758    512.910    511.758
 88.270    615.000    573.693     41.307    511.648    572.499    511.648    512.820    511.648
 88.370    571.018    567.984      3.034    511.537    566.780    511.537    512.728    511.537
 88.470    539.616    564.568    -24.951    511.425    563.351    511.425    512.638    511.425
 88.570    553.948    563.540     -9.591    511.312    562.308    511.312    512.547    511.312
 88.670    579.000    564.804     14.196    511.197    563.556    511.197    512.457    511.197
 88.770    577.000    568.088      8.912    511.080    566.822    511.080    512.366    511.080
 88.870    588.000    572.964     15.036    510.963    571.679    510.963    512.275    510.963
 88.970    562.244    578.874    -16.630    510.844    577.568    510.844    512.185    510.844
 89.070    606.000    585.154     20.846    510.724    583.825    510.724    512.095    510.724
 89.170    633.000    591.074     41.926    510.602    589.720    510.602    512.005    510.602
 89.270    620.000    595.888     24.112    510.479    594.506    510.479    511.917    510.479
 89.370    553.444    598.921    -45.478    510.355    597.508    510.355    511.829    510.355
 89.470    582.053    599.687    -17.634    510.229    598.238    510.229    511.742    510.229
 89.570    582.000    597.998    -15.998    510.102    596.509    510.102    511.656    510.102
 89.670    619.518    594.009     25.509    509.974    592.475    509.974    511.572    509.974
 89.770    625.000    588.152     36.848    509.845    586.567    509.845    511.489    509.845
 89.870    588.000    581.008      6.992    509.714    579.368    509.714    511.408    509.714
 89.970    576.000    573.191      2.809    509.582    571.490    509.582    511.330    509.582
 90.070    573.000    565.260      7.740    509.448    563.493    509.448    511.255    509.448
 90.170    498.000    557.677    -59.677    509.313    555.841    509.313    511.183    509.313
 90.270    561.795    550.787     11.008    509.177    548.876    509.177    511.115    509.177
 90.370    497.000    544.807    -47.807    509.040    542.817    509.040    511.051    509.040
 90.470    513.967    539.839    -25.872    508.901    537.763    508.901    510.993    508.901
 90.570    539.000    535.887      3.113    508.762    533.719    508.762    510.941    508.762
 90.670    533.706    532.882      0.824    508.620    530.614    508.620    510.897    508.620
 90.770    488.000    530.685    -42.685    508.478    528.306    508.478    510.863    508.478
 90.870    516.114    529.212    -13.098    508.334    526.708    508.334    510.841    508.334
 90.970    486.000    528.357    -42.357    508.189    525.711    508.189    510.836    508.189
 91.070    498.000    528.001    -30.001    508.043    525.192    508.043    510.853    508.043
 91.170    527.000    528.077     -1.077    507.896    525.073    507.896    510.899    507.896
 91.270    524.000    528.559     -4.559    507.747    525.323    507.747    510.983    507.747
 91.370    563.204    529.477     33.727    507.597    525.953    507.597    511.119    507.597
 91.470    534.000    530.895      3.105    507.446    527.014    507.446    511.324    507.446
 91.570    565.000    532.929     32.071    507.294    528.599    507.294    511.619    507.294
 91.670    536.000    535.746      0.254    507.140    530.847    507.140    512.033    507.140
 91.770    496.201    539.554    -43.354    506.986    533.935    506.986    512.596    506.986
 91.870    546.000    544.600      1.400    506.830    538.072    506.830    513.346    506.830
 91.970    583.000    551.149     31.851    506.673    543.483    506.673    514.324    506.673
 92.070    559.000    559.470     -0.470    506.514    550.396    506.514    515.570    506.514
 92.170    564.387    569.804     -5.416    506.355    559.010    506.355    517.124    506.355
 92.270    542.587    582.333    -39.747    506.194    569.475    506.194    519.022    506.194
 92.370    606.000    597.151      8.849    506.033    581.860    506.033    521.288    506.033
 92.470    589.369    614.225    -24.856    505.870    596.124    505.870    523.928    505.870
 92.570    645.570    633.372     12.198    505.705    612.096    505.705    526.931    505.705
 92.670    691.354    654.244     37.110    505.540    629.468    505.540    530.260    505.540
 92.770    687.000    676.329     10.671    505.374    647.791    505.374    533.849    505.374
 92.870    714.000    698.930     15.070    505.206    666.473    505.206    537.595    505.206
 92.970    725.819    721.226      4.593    505.038    684.830    505.038    541.361    505.038
 93.070    740.798    742.352     -1.554    504.868    702.177    504.868    544.967    504.868
 93.170    733.496    761.532    -28.035    504.697    717.950    504.697    548.202    504.697
 93.270    773.441    778.212     -4.770    504.525    731.832    504.525    550.828    504.525
 93.370    850.000    792.145     57.855    504.352    743.808    504.352    552.614    504.352
 93.470    753.793    803.381    -49.588    504.178    754.111    504.178    553.374    504.178
 93.570    799.000    812.194    -13.194    504.003    763.111    504.003    553.014    504.003
 93.670    892.000    819.008     72.992    503.827    771.209    503.827    551.556    503.827
 93.770    794.364    824.358    -29.994    503.650    778.806    503.650    549.134    503.650
 93.870    864.000    828.887     35.113    503.471    786.338    503.471    545.955    503.471
 93.970    843.000    833.332      9.668    503.292    794.304    503.292    542.258    503.292
 94.070    861.000    838.455     22.545    503.112    803.236    503.112    538.271    503.112
 94.170    798.220    844.883    -46.663    502.930    813.560    502.930    534.196    502.930
 94.270    821.000    852.916    -31.916    502.748    825.414    502.748    530.195    502.748
 94.370    848.000    862.384    -14.384    502.565    838.504    502.565    526.394    502.565
 94.470    888.000    872.594     15.406    502.380    852.046    502.380    522.881    502.380
 94.570    926.000    882.369     43.631    502.195    864.810    502.195    519.712    502.195
 94.670    908.000    890.175     17.825    502.009    875.234    502.009    516.915    502.009
 94.770    915.000    894.327     20.673    501.821    881.628    501.821    514.493    501.821
 94.870    883.940    893.281     -9.341    501.633    882.463    501.633    512.433    501.633
 94.970    947.000    885.972     61.028    501.444    876.700    501.444    510.706    501.444
 95.070    913.000    872.079     40.921    501.254    864.057    501.254    509.275    501.254
 95.170    847.000    852.164     -5.164    501.063    845.134    501.063    508.100    501.063
 95.270    855.329    827.494     27.835    500.872    821.239    500.872    507.138    500.872
 95.370    870.000    799.798     70.202    500.679    794.141    500.679    506.351    500.679
 95.470    771.345    771.028      0.317    500.485    765.826    500.485    505.704    500.485
 95.570    772.255    743.157     29.099    500.291    738.297    500.291    505.167    500.291
 95.670    729.000    718.057     10.943    500.096    713.452    500.096    504.715    500.096
 95.770    710.000    697.428     12.572    499.900    693.009    499.900    504.328    499.900
 95.870    633.000    682.759    -49.759    499.703    678.474    499.703    503.991    499.703
 95.970    693.000    675.323     17.677    499.505    671.132    499.505    503.693    499.505
 96.070    659.000    676.188    -17.188    499.306    672.059    499.306    503.424    499.306
 96.170    715.000    686.220     28.780    499.107    682.127    499.107    503.179    499.107
 96.270    740.000    706.103     33.897    498.907    702.026    498.907    502.953    498.907
 96.370    687.137    736.280    -49.143    498.706    732.201    498.706    502.744    498.706
 96.470    790.000    776.911     13.089    498.505    772.814    498.505    502.549    498.505
 96.570    849.000    827.770     21.230    498.302    823.642    498.302    502.367    498.302
 96.670    911.548    888.137     23.410    498.099    883.965    498.099    502.197    498.099
 96.770    987.348    956.692     30.656    497.895    952.466    497.895    502.039    497.895
 96.870    995.000   1031.433    -36.433    497.691   1027.142    497.691    501.893    497.691
 96.970   1113.000   1109.640      3.360    497.486   1105.275    497.486    501.758    497.486
 97.070   1232.275   1187.894     44.380    497.280   1183.447    497.280    501.634    497.280
 97.170   1222.406   1262.170    -39.764    497.073   1257.632    497.073    501.523    497.073
 97.270   1358.000   1328.033     29.967    496.866   1323.396    496.866    501.424    496.866
 97.370   1414.000   1380.997     33.003    496.658   1376.252    496.658    501.339    496.658
 97.470   1381.747   1417.069    -35.322    496.450   1412.204    496.450    501.267    496.450
 97.570   1423.000   1433.421    -10.421    496.241   1428.424    496.241    501.211    496.241
 97.670   1485.000   1428.964     56.036    496.031   1423.818    496.031    501.172    496.031
 97.770   1385.000   1404.548    -19.548    495.821   1399.233    495.821    501.151    495.821
 97.870   1303.000   1362.700    -59.700    495.611   1357.192    495.611    501.151    495.611
 97.970   1287.000   1307.062    -20.062    495.399   1301.332    495.399    501.175    495.399
 98.070   1261.000   1241.803     19.197    495.188   1235.819    495.188    501.228    495.188
 98.170   1193.000   1171.174     21.826    494.975   1164.897    494.975    501.315    494.975
 98.270   1100.000   1099.208      0.792    494.763   1092.590    494.763    501.444    494.763
 98.370   1028.631   1029.533     -0.902    494.549   1022.518    494.549    501.626    494.549
 98.470    990.000    965.270     24.730    494.336    957.788    494.336    501.876    494.336
 98.570    890.135    908.994    -18.859    494.121    900.954    494.121    502.212    494.121
 98.670    866.000    862.740      3.260    493.907    854.027    493.907    502.662    493.907
 98.770    816.000    828.083    -12.083    493.692    818.549    493.692    503.260    493.692
 98.870    750.868    806.192    -55.324    493.476    795.644    493.476    504.048    493.476
 98.970    800.000    797.893      2.107    493.261    786.085    493.261    505.084    493.261
 99.070    794.000    803.774     -9.774    493.044    790.391    493.044    506.434    493.044
 99.170    822.000    824.224     -2.224    492.828    808.871    492.828    508.180    492.828
 99.270    835.000    859.443    -24.443    492.611    841.628    492.611    510.418    492.611
 99.370    878.000    909.409    -31.409    492.394    888.535    492.394    513.254    492.394
 99.470    991.000    973.808     17.192    492.176    949.164    492.176    516.805    492.176
 99.570   1065.000   1051.947     13.053    491.959   1022.701    491.959    521.188    491.959
 99.670   1172.000   1142.647     29.353    491.741   1107.851    491.741    526.521    491.741
 99.770   1301.000   1244.141     56.859    491.522   1202.745    491.522    532.908    491.522
 99.870   1358.428   1354.001      4.426    491.304   1304.873    491.304    540.431    491.304
 99.970   1486.824   1469.097     17.726    491.085   1411.058    491.085    549.136    491.085
100.070   1575.000   1585.628    -10.628    490.866   1517.498    490.866    559.024    490.866
100.170   1654.000   1699.272    -45.272    490.647   1619.930    490.647    570.038    490.647
100.270   1859.000   1805.473     53.527    490.428   1713.923    490.428    582.050    490.428
100.370   1908.000   1899.851      8.149    490.209   1795.300    490.209    594.858    490.209
100.470   2065.304   1978.599     86.705    489.990   1860.541    489.990    608.172    489.990
100.570   2111.050   2038.726     72.324    489.770   1907.031    489.770    621.614    489.770
100.670   2080.000   2078.068      1.932    489.550   1933.077    489.550    634.715    489.550
100.770   2107.353   2095.198     12.156    489.331   1937.805    489.331    646.918    489.331
100.870   2198.000   2089.426    108.574    489.111   1921.147    489.111    657.600    489.111
100.970   2126.851   2061.000     65.851    488.891   1883.997    488.891    666.116    488.891
101.070   2066.460   2011.404     55.056    488.672   1828.438    488.672    671.866    488.672
101.170   2011.000   1943.530     67.470    488.452   1757.814    488.452    674.397    488.452
101.270   1842.441   1861.525    -19.084    488.232   1676.497    488.232    673.484    488.232
101.370   1835.977   1770.345     65.632    488.013   1589.385    488.013    669.188    488.013
101.470   1622.201   1675.159    -52.957    487.793   1501.321    487.793    661.833    487.793
101.570   1592.000   1580.800     11.200    487.574   1416.614    487.574    651.947    487.574
101.670   1448.000   1491.361    -43.361    487.355   1338.732    487.355    640.154    487.355
101.770   1406.000   1409.956     -3.956    487.135   1270.145    487.135    627.100    487.135
101.870   1325.011   1338.607    -13.596    486.917   1212.279    486.917    613.382    486.917
101.970   1268.000   1278.246    -10.246    486.698   1165.544    486.698    599.523    486.698
102.070   1226.000   1228.776     -2.776    486.479   1129.410    486.479    585.955    486.479
102.170   1090.000   1189.187    -99.187    486.261   1102.526    486.261    573.021    486.261
102.270   1086.000   1157.725    -71.725    486.043   1082.885    486.043    560.975    486.043
102.370   1097.000   1132.095    -35.095    485.825   1068.020    485.825    549.987    485.825
102.470   1131.000   1109.716     21.284    485.608   1055.253    485.608    540.156    485.608
102.570   1029.000   1088.034    -59.034    485.390   1041.994    485.390    531.514    485.390
102.670   1014.196   1064.842    -50.647    485.174   1026.060    485.174    524.041    485.174
102.770   1080.937   1038.572     42.365    484.957   1005.941    484.957    517.674    484.957
102.870   1009.399   1008.439      0.960    484.741    980.945    484.741    512.321    484.741
102.970    995.038    974.428     20.610    484.525    951.167    484.525    507.873    484.525
103.070    975.676    937.126     38.550    484.310    917.310    484.310    504.210    484.310
103.170    882.000    897.501    -15.501    484.096    880.464    484.096    501.214    484.096
103.270    850.665    856.704     -6.039    483.881    841.890    483.881    498.773    483.881
103.370    858.951    815.910     43.040    483.668    802.865    483.668    496.784    483.668
103.470    811.000    776.215     34.785    483.454    764.578    483.454    495.157    483.454
103.570    708.669    738.571    -29.902    483.242    728.054    483.242    493.817    483.242
103.670    739.000    703.723     35.277    483.030    694.103    483.030    492.701    483.030
103.770    661.000    672.215    -11.215    482.818    663.319    482.818    491.758    482.818
103.870    616.373    644.360    -27.987    482.607    636.057    482.607    490.949    482.607
103.970    654.000    620.262     33.738    482.397    612.448    482.397    490.242    482.397
104.070    594.000    599.844     -5.844    482.188    592.444    482.188    489.614    482.188
104.170    565.000    582.893    -17.893    481.979    575.844    481.979    489.049    481.979
104.270    540.000    569.092    -29.092    481.771    562.348    481.771    488.532    481.771
104.370    538.000    558.073    -20.073    481.564    551.594    481.564    488.054    481.564
104.470    534.000    549.442    -15.442    481.357    543.199    481.357    487.609    481.357
104.570    560.000    542.820     17.180    481.151    536.787    481.151    487.191    481.151
104.670    578.744    537.858     40.887    480.946    532.012    480.946    486.797    480.946
104.770    496.468    534.253    -37.785    480.742    528.576    480.742    486.422    480.742
104.870    579.000    531.758     47.242    480.539    526.232    480.539    486.066    480.539
104.970    535.000    530.180      4.820    480.337    524.791    480.337    485.726    480.337
105.070    510.000    529.384    -19.384    480.136    524.117    480.136    485.401    480.136
105.170    516.411    529.281    -12.870    479.936    524.129    479.936    485.085    479.936
105.270    564.290    529.842     34.448    479.736    524.789    479.736    484.784    479.736
105.370    596.000    531.069     64.931    479.538    526.104    479.538    484.497    479.538
105.470    566.035    533.004     33.031    479.341    528.116    479.341    484.221    479.341
105.570    587.000    535.719     51.281    479.145    530.899    479.145    483.956    479.145
105.670    589.000    539.307     49.693    478.950    534.545    478.950    483.700    478.950
105.770    552.000    543.870      8.130    478.756    539.158    478.756    483.454    478.756
105.870    553.000    549.510      3.490    478.563    544.840    478.563    483.216    478.563
105.970    578.000    556.306     21.694    478.371    551.671    478.371    482.987    478.371
106.070    585.000    564.299     20.701    478.181    559.702    478.181    482.757    478.181
106.170    651.000    573.506     77.494    477.992    568.932    477.992    482.540    477.992
106.270    584.000    583.867      0.133    477.804    579.307    477.804    482.335    477.804
106.370    584.000    595.253    -11.253    477.618    590.700    477.618    482.138    477.618
106.470    587.000    607.469    -20.469    477.433    602.918    477.433    481.948    477.433
106.570    653.000    620.250     32.750    477.249    615.694    477.249    481.765    477.249
106.670    613.000    633.263    -20.263    477.067    628.699    477.067    481.589    477.067
106.770    674.553    646.123     28.430    476.886    641.544    476.886    481.421    476.886
106.870    649.000    658.404     -9.404    476.706    653.805    476.706    481.259    476.706
106.970    650.000    669.665    -19.665    476.528    665.043    476.528    481.105    476.528
107.070    645.000    679.485    -34.485    476.352    674.834    476.352    480.957    476.352
107.170    669.107    687.509    -18.402    476.177    682.825    476.177    480.816    476.177
107.270    686.621    693.497     -6.876    476.003    688.777    476.003    480.683    476.003
107.370    668.000    697.375    -29.375    475.832    692.613    475.832    480.556    475.832
107.470    715.000    699.251     15.749    475.662    694.442    475.662    480.437    475.662
107.570    648.000    699.404    -51.404    475.493    694.543    475.493    480.325    475.493
107.670    668.000    698.241    -30.241    475.327    693.323    475.327    480.220    475.327
107.770    663.000    696.233    -33.233    475.162    691.251    475.162    480.123    475.162
107.870    704.000    693.849     10.151    474.998    688.798    474.998    480.034    474.998
107.970    622.000    691.508    -69.508    474.837    686.381    474.837    479.953    474.837
108.070    648.000    689.539    -41.539    474.678    684.330    474.678    479.880    474.678
108.170    723.238    688.157     35.082    474.520    682.859    474.520    479.815    474.520
108.270    676.354    687.449    -11.095    474.364    682.055    474.364    479.759    474.364
108.370    692.000    687.372      4.628    474.210    681.875    474.210    479.713    474.210
108.470    643.000    687.754    -44.754    474.059    682.146    474.059    479.675    474.059
108.570    663.000    688.313    -25.313    473.909    682.586    473.909    479.648    473.909
108.670    696.000    688.679      7.321    473.761    682.825    473.761    479.630    473.761
108.770    675.000    688.434    -13.434    473.615    682.443    473.615    479.624    473.615
108.870    684.000    687.161     -3.161    473.472    681.026    473.472    479.628    473.472
108.970    672.000    684.507    -12.507    473.330    678.216    473.330    479.644    473.330
109.070    724.843    680.229     44.613    473.191    673.773    473.191    479.672    473.191
109.170    665.000    674.234     -9.234    473.054    667.600    473.054    479.713    473.054
109.270    658.000    666.570     -8.570    472.919    659.747    472.919    479.768    472.919
109.370    639.735    657.433    -17.698    472.786    650.409    472.786    479.837    472.786
109.470    636.000    647.159    -11.159    472.656    639.920    472.656    479.921    472.656
109.570    654.000    636.065     17.935    472.528    628.597    472.528    480.021    472.528
109.670    628.330    624.510      3.820    472.403    616.797    472.403    480.139    472.403
109.770    655.000    612.845     42.155    472.280    604.871    472.280    480.275    472.280
109.870    604.000    601.394      2.606    472.159    593.141    472.159    480.431    472.159
109.970    574.000    590.437    -16.437    472.041    581.888    472.041    480.608    472.041
110.070    649.000    580.210     68.790    471.925    571.342    471.925    480.808    471.925
110.170    555.000    570.891    -15.891    471.812    561.682    471.812    481.034    471.812
110.270    582.304    562.606     19.698    471.702    553.031    471.702    481.287    471.702
110.370    597.000    555.428     41.572    471.594    545.458    471.594    481.573    471.594
110.470    545.000    549.382     -4.382    471.489    538.985    471.489    481.893    471.489
110.570    549.973    544.452      5.521    471.387    533.591    471.387    482.253    471.387
110.670    529.273    540.593    -11.320    471.287    529.223    471.287    482.661    471.287
110.770    506.000    537.733    -31.733    471.190    525.802    471.190    483.123    471.190
110.870    577.000    535.790     41.210    471.096    523.237    471.096    483.650    471.096
110.970    608.000    534.672     73.328    471.005    521.422    471.005    484.254    471.005
111.070    543.000    534.294      8.706    470.917    520.256    470.917    484.953    470.917
111.170    521.241    534.575    -13.334    470.832    519.636    470.832    485.767    470.832
111.270    582.000    535.446     46.554    470.750    519.470    470.750    486.722    470.750
111.370    527.000    536.855     -9.855    470.671    519.672    470.671    487.849    470.671
111.470    535.230    538.768     -3.538    470.595    520.168    470.595    489.188    470.595
111.570    540.000    541.168     -1.168    470.521    520.896    470.521    490.787    470.521
111.670    528.812    544.060    -15.249    470.452    521.802    470.452    492.703    470.452
111.770    576.912    547.472     29.440    470.385    522.847    470.385    495.003    470.385
111.870    590.505    551.452     39.053    470.322    524.000    470.322    497.766    470.322
111.970    544.963    556.069    -11.106    470.261    525.241    470.261    501.082    470.261
112.070    539.040    561.418    -22.377    470.205    526.561    470.205    505.052    470.205
112.170    596.198    567.609     28.589    470.151    527.963    470.151    509.788    470.151
112.270    593.000    574.775     18.225    470.101    529.457    470.101    515.410    470.101
112.370    579.000    583.060     -4.060    470.054    531.061    470.054    522.044    470.054
112.470    599.838    592.621      7.218    470.011    532.803    470.011    529.818    470.011
112.570    604.830    603.616      1.213    469.971    534.718    469.971    538.860    469.971
112.670    603.000    616.210    -13.210    469.935    536.847    469.935    549.287    469.935
112.770    597.000    630.560    -33.560    469.903    539.248    469.903    561.203    469.903
112.870    576.000    646.817    -70.817    469.874    541.988    469.874    574.691    469.874
112.970    651.000    665.126    -14.126    469.849    545.157    469.849    589.804    469.849
113.070    727.911    685.616     42.294    469.827    548.874    469.827    606.555    469.827
113.170    693.304    708.414    -15.110    469.810    553.292    469.810    624.915    469.810
113.270    675.000    733.640    -58.640    469.796    558.616    469.796    644.802    469.796
113.370    763.321    761.423      1.898    469.786    565.115    469.786    666.074    469.786
113.470    799.000    791.909      7.091    469.780    573.141    469.780    688.524    469.780
113.570    772.115    825.282    -53.166    469.778    583.154    469.778    711.879    469.778
113.670    852.000    861.786     -9.786    469.780    595.744    469.780    735.790    469.780
113.770    921.000    901.748     19.252    469.786    611.659    469.786    759.839    469.786
113.870    992.000    945.610     46.390    469.796    631.836    469.796    783.528    469.796
113.970   1084.000    993.957     90.043    469.810    657.424    469.810    806.291    469.810
114.070   1045.000   1047.554     -2.554    469.828    689.818    469.828    827.502    469.828
114.170   1070.000   1107.380    -37.380    469.851    730.668    469.851    846.487    469.851
114.270   1123.000   1174.672    -51.672    469.877    781.895    469.877    862.564    469.877
114.370   1214.220   1250.963    -36.743    469.909    845.678    469.909    875.085    469.909
114.470   1294.000   1338.116    -44.116    469.944    924.436    469.944    883.493    469.944
114.570   1459.000   1438.336     20.664    469.984   1020.773    469.984    887.390    469.984
114.670   1556.912   1554.150      2.762    470.028   1137.407    470.028    886.584    470.028
114.770   1678.000   1688.321    -10.321    470.077   1277.059    470.077    881.118    470.077
114.870   1873.036   1843.713     29.323    470.131   1442.321    470.131    871.263    470.131
114.970   2059.482   2023.086     36.397    470.189   1635.492    470.189    857.482    470.189
115.070   2319.000   2228.853     90.147    470.251   1858.389    470.251    840.370    470.251
115.170   2521.000   2462.820     58.180    470.319   2112.155    470.319    820.594    470.319
115.270   2780.000   2725.928     54.072    470.391   2397.045    470.391    798.838    470.391
115.370   3137.000   3018.016    118.984    470.467   2712.245    470.467    775.759    470.467
115.470   3305.000   3337.632    -32.632    470.549   3055.696    470.549    751.966    470.549
115.570   3687.000   3681.891      5.109    470.636   3423.972    470.636    728.001    470.636
115.670   3851.000   4046.389   -195.389    470.727   3812.205    470.727    704.331    470.727
115.770   4308.000   4425.193   -117.193    470.824   4214.068    470.824    681.352    470.824
115.870   4677.075   4810.893   -133.818    470.925   4621.833    470.925    659.384    470.925
115.970   5150.137   5194.738    -44.601    471.032   5026.500    471.032    638.677    471.032
116.070   5502.000   5566.836    -64.836    471.144   5417.999    471.144    619.414    471.144
116.170   5737.000   5916.456   -179.456    471.261   5785.476    471.261    601.714    471.261
116.270   6282.000   6232.407     49.593    471.383   6117.681    471.383    585.642    471.383
116.370   6607.000   6503.542    103.458    471.510   6403.451    471.510    571.209    471.510
116.470   6680.213   6719.487    -39.275    471.643   6632.440    471.643    558.386    471.643
116.570   6925.000   6871.242     53.758    471.781   6795.709    471.781    547.111    471.781
116.670   7014.000   6952.066     61.934    471.925   6886.604    471.925    537.291    471.925
116.770   7102.000   6958.143    143.857    472.074   6901.415    472.074    528.818    472.074
116.870   6917.000   6889.002     27.998    472.228   6839.786    472.228    521.569    472.228
116.970   6886.000   6747.552    138.448    472.389   6704.750    472.389    515.417    472.389
117.070   6551.419   6539.735     11.684    472.554   6502.372    472.554    510.234    472.554
117.170   6202.000   6273.880    -71.880    472.726   6241.104    472.726    505.895    472.726
117.270   5834.000   5959.934   -125.934    472.903   5931.007    472.903    502.282    472.903
117.370   5559.393   5608.701    -49.307    473.086   5582.993    473.086    499.290    473.086
117.470   5110.000   5231.193   -121.193    473.275   5208.171    473.275    496.819    473.275
117.570   4649.000   4838.102   -189.102    473.470   4817.320    473.470    494.784    473.470
117.670   4471.000   4439.402     31.598    473.671   4420.489    473.671    493.112    473.671
117.770   4130.000   4044.047     85.953    473.878   4026.698    473.878    491.738    473.878
117.870   3690.455   3659.759     30.696    474.091   3643.726    474.091    490.608    474.091
117.970   3501.000   3292.902    208.098    474.310   3277.983    474.310    489.678    474.310
118.070   2869.458   2948.424    -78.967    474.535   2934.456    474.535    488.913    474.535
118.170   2576.204   2629.877    -53.674    474.766   2616.728    474.766    488.281    474.766
118.270   2377.000   2339.494     37.506    475.004   2327.058    475.004    487.760    475.004
118.370   2115.000   2078.316     36.684    475.248   2066.509    475.248    487.330    475.248
118.470   1872.836   1846.356     26.480    475.499   1835.110    475.499    486.977    475.499
118.570   1673.039   1642.778     30.260    475.756   1632.038    475.756    486.689    475.756
118.670   1463.000   1466.081     -3.081    476.019   1455.800    476.019    486.456    476.019
118.770   1279.000   1314.284    -35.284    476.289   1304.426    476.289    486.272    476.289
118.870   1201.054   1185.097     15.957    476.566   1175.629    476.566    486.130    476.566
118.970   1071.000   1076.072     -5.072    476.849   1066.968    476.849    486.027    476.849
119.070    943.000    984.738    -41.738    477.139    975.973    477.139    485.959    477.139
119.170    936.000    908.699     27.301    477.436    900.251    477.436    485.923    477.436
119.270    898.399    845.710     52.689    477.740    837.561    477.740    485.917    477.740
119.370    763.000    793.732    -30.732    478.050    785.862    478.050    485.939    478.050
119.470    761.000    750.954     10.046    478.368    743.345    478.368    485.989    478.368
119.570    681.000    715.801    -34.801    478.693    708.438    478.693    486.064    478.693
119.670    693.880    686.935      6.945    479.024    679.799    479.024    486.165    479.024
119.770    635.000    663.230    -28.230    479.363    656.306    479.363    486.291    479.363
119.870    665.616    643.759     21.856    479.709    637.030    479.709    486.441    479.709
119.970    593.389    627.765    -34.376    480.062    621.214    480.062    486.617    480.062
120.070    569.000    614.636    -45.636    480.423    608.245    480.423    486.817    480.423
120.170    572.000    603.884    -31.884    480.791    597.636    480.791    487.042    480.791
120.270    626.000    595.120     30.880    481.167    588.997    481.167    487.293    481.167
120.370    594.000    588.039      5.961    481.550    582.022    481.550    487.570    481.550
120.470    592.000    582.402      9.598    481.940    576.471    481.940    487.875    481.940
120.570    589.000    578.021     10.979    482.338    572.156    482.338    488.208    482.338
120.670    557.459    574.751    -17.292    482.744    568.930    482.744    488.570    482.744
120.770    582.000    572.478      9.522    483.158    566.679    483.158    488.962    483.158
120.870    531.000    571.114    -40.114    483.579    565.314    483.579    489.386    483.579
120.970    532.000    570.589    -38.589    484.008    564.762    484.008    489.843    484.008
121.070    556.000    570.846    -14.846    484.446    564.967    484.446    490.333    484.446
121.170    589.000    571.835     17.165    484.891    565.878    484.891    490.857    484.891
121.270    614.586    573.512     41.073    485.344    567.451    485.344    491.416    485.344
121.370    595.000    575.834     19.166    485.806    569.641    485.806    492.010    485.806
121.470    548.000    578.753    -30.753    486.275    572.402    486.275    492.640    486.275
121.570    559.000    582.219    -23.219    486.753    575.683    486.753    493.305    486.753
121.670    612.000    586.173     25.827    487.239    579.427    487.239    494.003    487.239
121.770    587.000    590.549     -3.549    487.734    583.569    487.734    494.735    487.734
121.870    602.985    595.272      7.713    488.237    588.035    488.237    495.496    488.237
121.970    579.773    600.255    -20.482    488.748    592.743    488.748    496.286    488.748
122.070    597.021    605.405     -8.384    489.268    597.601    489.268    497.101    489.268
122.170    613.702    610.618      3.083    489.797    602.509    489.797    497.937    489.797
122.270    604.193    615.783    -11.591    490.334    607.362    490.334    498.790    490.334
122.370    642.114    620.785     21.329    490.880    612.049    490.880    499.653    490.880
122.470    625.000    625.503     -0.503    491.435    616.457    491.435    500.522    491.435
122.570    639.000    629.821      9.179    491.999    620.475    491.999    501.387    491.999
122.670    618.000    633.628    -15.628    492.572    624.001    492.572    502.244    492.572
122.770    677.000    636.828     40.172    493.154    626.941    493.154    503.087    493.154
122.870    637.000    639.338     -2.338    493.745    629.225    493.745    503.906    493.745
122.970    716.000    641.099     74.901    494.345    630.801    494.345    504.692    494.345
123.070    697.000    642.083     54.917    494.954    631.646    494.954    505.441    494.954
123.170    650.588    642.285      8.303    495.573    631.764    495.573    506.143    495.573
123.270    693.000    641.730     51.270    496.201    631.183    496.201    506.796    496.201
123.370    626.196    640.465    -14.269    496.838    629.954    496.838    507.397    496.838
123.470    699.000    638.555     60.445    497.485    628.143    497.485    507.944    497.485
123.570    673.253    636.081     37.173    498.142    625.827    498.142    508.440    498.142
123.670    632.286    633.127     -0.842    498.808    623.089    498.808    508.888    498.808
123.770    617.700    629.785    -12.086    499.484    620.015    499.484    509.294    499.484
123.870    593.000    626.145    -33.145    500.169    616.687    500.169    509.664    500.169
123.970    651.000    622.294     28.706    500.865    613.186    500.865    510.006    500.865
124.070    595.260    618.312    -23.052    501.570    609.584    501.570    510.329    501.570
124.170    605.000    614.271     -9.271    502.286    605.945    502.286    510.638    502.286
124.270    632.000    610.232     21.768    503.011    602.324    503.011    510.943    503.011
124.370    605.000    606.245     -1.245    503.747    598.764    503.747    511.249    503.747
124.470    624.576    602.350     22.226    504.493    595.297    504.493    511.564    504.493
124.570    601.000    598.569      2.431    505.249    591.942    505.249    511.892    505.249
124.670    593.000    594.926     -1.926    506.015    588.716    506.015    512.238    506.015
124.770    631.245    591.427     39.818    506.792    585.623    506.792    512.607    506.792
124.870    578.000    588.073    -10.073    507.579    582.660    507.579    513.002    507.579
124.970    571.000    584.862    -13.862    508.377    579.821    508.377    513.426    508.377
