neutron_powder_diffraction_0009
R_wp: 3.593
Temperature (K): 447.773
Counts: 83951.00
Wavelength (Ã…): 2.52098
COMMENTS
Test file for demonstrating the .xyy file format in Reel1.0
END OF HEADER
   tth       Y_obs     Y_calc      Y_res    Background    Phase_1_Nuc    Phase_1_Mag    Phase_2_Nuc    Phase_2_Mag
  9.970    779.000    748.829     30.171    747.146    748.148    747.827    747.146    747.146
 10.070    781.000    747.603     33.397    745.833    746.915    746.521    745.833    745.833
 10.170    760.000    746.397     13.603    744.528    745.701    745.223    744.528    744.528
 10.270    708.004    745.212    -37.208    743.232    744.509    743.934    743.232    743.232
 10.370    701.688    744.051    -42.362    741.943    743.340    742.652    741.943    741.943
 10.470    787.000    742.917     44.083    740.661    742.198    741.379    740.661    740.661
 10.570    709.390    741.814    -32.424    739.388    741.088    740.114    739.388    739.388
 10.670    748.069    740.748      7.321    738.123    740.014    738.856    738.123    738.123
 10.770    736.000    739.727     -3.727    736.866    738.984    737.607    736.866    736.866
 10.870    732.021    738.759     -6.738    735.616    738.008    736.366    735.616    735.616
 10.970    772.251    737.858     34.393    734.375    737.098    735.132    734.375    734.375
 11.070    723.000    737.041    -14.041    733.141    736.273    733.907    733.141    733.141
 11.170    741.000    736.334      4.666    731.915    735.557    732.690    731.915    731.915
 11.270    745.000    735.774      9.226    730.696    734.988    731.480    730.696    730.696
 11.370    741.508    735.420      6.087    729.486    734.625    730.278    729.486    729.486
 11.470    731.943    735.380     -3.437    728.283    734.575    729.084    728.283    728.283
 11.570    786.000    735.883     50.117    727.087    735.067    727.898    727.087    727.087
 11.670    754.288    737.439     16.850    725.900    736.612    726.720    725.900    725.900
 11.770    786.000    741.107     44.893    724.720    740.269    725.549    724.720    724.720
 11.870    741.611    748.695     -7.084    723.547    747.842    724.387    723.547    723.547
 11.970    842.000    762.447     79.553    722.382    761.575    723.232    722.382    722.382
 12.070    781.000    783.708     -2.708    721.225    782.813    722.085    721.225    721.225
 12.170    896.000    810.379     85.621    720.075    809.457    720.946    720.075    720.075
 12.270    886.894    833.478     53.416    718.933    832.533    719.814    718.933    718.933
 12.370    806.382    839.345    -32.963    717.798    838.385    718.690    717.798    717.798
 12.470    854.000    822.477     31.523    716.671    821.515    717.573    716.671    716.671
 12.570    736.000    793.813    -57.813    715.551    792.855    716.465    715.551    715.551
 12.670    768.000    766.477      1.523    714.439    765.523    715.363    714.439    714.439
 12.770    686.000    746.178    -60.178    713.334    745.224    714.270    713.334    713.334
 12.870    714.021    733.128    -19.107    712.236    732.169    713.184    712.236    712.236
 12.970    662.000    725.305    -63.305    711.146    724.338    712.105    711.146    711.146
 13.070    766.160    720.526     45.634    710.063    719.549    711.034    710.063    710.063
 13.170    717.000    717.300     -0.300    708.987    716.312    709.970    708.987    708.987
 13.270    667.000    714.846    -47.846    707.918    713.846    708.915    707.918    707.918
 13.370    653.000    712.806    -59.806    706.857    711.794    707.866    706.857    706.857
 13.470    756.390    711.018     45.372    705.803    709.994    706.825    705.803    705.803
 13.570    715.000    709.406      5.594    704.756    708.368    705.791    704.756    704.756
 13.670    714.000    707.921      6.079    703.716    706.870    704.765    703.716    703.716
 13.770    659.723    706.533    -46.810    702.684    705.469    703.746    702.684    702.684
 13.870    672.000    705.220    -33.220    701.658    704.142    702.735    701.658    701.658
 13.970    739.912    703.968     35.944    700.640    702.875    701.731    700.640    700.640
 14.070    672.385    702.764    -30.379    699.628    701.657    700.734    699.628    699.628
 14.170    733.000    701.602     31.398    698.624    700.480    699.745    698.624    698.624
 14.270    734.568    700.472     34.096    697.627    699.335    698.763    697.627    697.627
 14.370    680.000    699.371    -19.371    696.637    698.218    697.788    696.637    696.637
 14.470    728.000    698.302     29.698    695.653    697.133    696.821    695.653    695.653
 14.570    651.059    697.269    -46.209    694.677    696.083    695.862    694.677    694.677
 14.670    731.171    696.235     34.936    693.707    695.033    694.909    693.707    693.707
 14.770    704.721    695.217      9.504    692.745    693.999    693.963    692.745    692.745
 14.870    649.563    694.215    -44.652    691.789    692.979    693.025    691.789    691.789
 14.970    719.452    693.228     26.224    690.840    691.974    692.094    690.840    690.840
 15.070    679.000    692.254    -13.254    689.898    690.983    691.170    689.898    689.898
 15.170    657.000    691.297    -34.297    688.963    690.007    690.253    688.963    688.963
 15.270    646.000    690.350    -44.350    688.035    689.040    689.344    688.035    688.035
 15.370    674.000    689.412    -15.412    687.113    688.084    688.441    687.113    687.113
 15.470    660.000    688.485    -28.485    686.198    687.137    687.546    686.198    686.198
 15.570    673.313    687.569    -14.255    685.290    686.200    686.658    685.290    685.290
 15.670    728.260    686.662     41.598    684.388    685.273    685.777    684.388    684.388
 15.770    650.000    685.765    -35.765    683.494    684.355    684.903    683.494    683.494
 15.870    749.000    684.878     64.122    682.605    683.446    684.037    682.605    682.605
 15.970    708.000    683.999     24.001    681.724    682.546    683.177    681.724    681.724
 16.070    692.000    683.130      8.870    680.849    681.654    682.325    680.849    680.849
 16.170    646.379    682.269    -35.890    679.980    680.770    681.480    679.980    679.980
 16.270    670.000    681.417    -11.417    679.118    679.894    680.641    679.118    679.118
 16.370    667.000    680.574    -13.574    678.263    679.026    679.810    678.263    678.263
 16.470    698.000    679.739     18.261    677.414    678.166    678.986    677.414    677.414
 16.570    632.075    678.912    -46.836    676.571    677.314    678.169    676.571    676.571
 16.670    650.000    678.093    -28.093    675.735    676.469    677.359    675.735    675.735
 16.770    652.000    677.282    -25.282    674.906    675.631    676.557    674.906    674.906
 16.870    667.000    676.480     -9.480    674.082    674.802    675.761    674.082    674.082
 16.970    669.592    675.692     -6.099    673.266    673.985    674.972    673.266    673.266
 17.070    699.000    674.905     24.095    672.455    673.170    674.191    672.455    672.455
 17.170    615.000    674.126    -59.126    671.651    672.361    673.416    671.651    671.651
 17.270    668.000    673.355     -5.355    670.853    671.559    672.649    670.853    670.853
 17.370    645.465    672.598    -27.132    670.061    670.771    671.888    670.061    670.061
 17.470    623.000    671.856    -48.856    669.276    669.996    671.135    669.276    669.276
 17.570    684.738    671.166     13.572    668.497    669.271    670.392    668.497    668.497
 17.670    672.000    670.446      1.554    667.724    668.516    669.654    667.724    667.724
 17.770    650.000    669.714    -19.714    666.957    667.750    668.922    666.957    666.957
 17.870    629.000    668.989    -39.989    666.197    666.989    668.197    666.197    666.197
 17.970    661.000    668.272     -7.272    665.442    666.235    667.479    665.442    665.442
 18.070    652.000    667.564    -15.564    664.694    665.489    666.769    664.694    664.694
 18.170    631.411    666.881    -35.470    663.952    664.768    666.065    663.952    663.952
 18.270    694.669    666.198     28.471    663.216    664.045    665.369    663.216    663.216
 18.370    709.229    665.512     43.717    662.485    663.318    664.680    662.485    662.485
 18.470    678.000    664.833     13.167    661.761    662.596    663.998    661.761    661.761
 18.570    691.095    664.161     26.934    661.043    661.881    663.323    661.043    661.043
 18.670    681.000    663.497     17.503    660.331    661.173    662.656    660.331    660.331
 18.770    704.000    662.841     41.159    659.625    660.470    661.995    659.625    659.625
 18.870    712.000    662.192     49.808    658.925    659.774    661.343    658.925    658.925
 18.970    614.375    661.551    -47.176    658.230    659.085    660.697    658.230    658.230
 19.070    629.148    660.919    -31.771    657.542    658.402    660.059    657.542    657.542
 19.170    652.000    660.303     -8.303    656.859    657.734    659.428    656.859    656.859
 19.270    669.965    659.690     10.275    656.182    657.067    658.805    656.182    656.182
 19.370    643.000    659.081    -16.081    655.511    656.402    658.190    655.511    655.511
 19.470    652.000    658.480     -6.480    654.846    655.744    657.581    654.846    654.846
 19.570    623.000    657.889    -34.889    654.186    655.094    656.982    654.186    654.186
 19.670    703.413    657.338     46.075    653.533    654.470    656.400    653.533    653.533
 19.770    626.899    656.807    -29.908    652.885    653.862    655.829    652.885    652.885
 19.870    598.000    656.265    -58.265    652.242    653.253    655.254    652.242    652.242
 19.970    631.000    655.713    -24.713    651.606    652.634    654.685    651.606    651.606
 20.070    686.305    655.163     31.142    650.975    652.014    654.124    650.975    650.975
 20.170    686.000    654.621     31.379    650.349    651.400    653.570    650.349    650.349
 20.270    684.000    654.089     29.911    649.729    650.793    653.025    649.729    649.729
 20.370    649.000    653.582     -4.582    649.115    650.206    652.490    649.115    649.115
 20.470    619.475    653.106    -33.631    648.506    649.633    651.979    648.506    648.506
 20.570    660.000    652.638      7.362    647.903    649.068    651.473    647.903    647.903
 20.670    666.000    652.166     13.834    647.306    648.508    650.964    647.306    647.306
 20.770    647.000    651.726     -4.726    646.713    647.977    650.462    646.713    646.713
 20.870    618.262    651.274    -33.013    646.127    647.432    649.969    646.127    646.127
 20.970    617.000    650.819    -33.819    645.545    646.880    649.485    645.545    645.545
 21.070    618.000    650.384    -32.384    644.970    646.343    649.010    644.970    644.970
 21.170    605.000    649.966    -44.966    644.399    645.820    648.545    644.399    644.399
 21.270    634.000    649.534    -15.534    643.834    645.280    648.089    643.834    643.834
 21.370    631.741    649.111    -17.370    643.274    644.744    647.642    643.274    643.274
 21.470    646.000    648.708     -2.708    642.720    644.220    647.208    642.720    642.720
 21.570    643.000    648.322     -5.322    642.171    643.706    646.787    642.171    642.171
 21.670    605.000    647.945    -42.945    641.627    643.200    646.372    641.627    641.627
 21.770    642.000    647.579     -5.579    641.088    642.700    645.967    641.088    641.088
 21.870    607.312    647.218    -39.906    640.555    642.200    645.573    640.555    640.555
 21.970    657.000    646.870     10.130    640.026    641.706    645.190    640.026    640.026
 22.070    618.847    646.537    -27.690    639.503    641.222    644.818    639.503    639.503
 22.170    649.000    646.220      2.780    638.986    640.747    644.459    638.986    638.986
 22.270    636.000    645.918     -9.918    638.473    640.279    644.112    638.473    638.473
 22.370    613.000    645.633    -32.633    637.965    639.820    643.779    637.965    637.965
 22.470    673.590    645.366     28.224    637.463    639.371    643.458    637.463    637.463
 22.570    691.849    645.119     46.730    636.965    638.933    643.151    636.965    636.965
 22.670    618.000    644.892    -26.892    636.473    638.506    642.859    636.473    636.473
 22.770    633.000    644.687    -11.687    635.986    638.090    642.582    635.986    635.986
 22.870    608.593    644.505    -35.912    635.503    637.687    642.321    635.503    635.503
 22.970    597.907    644.350    -46.443    635.026    637.299    642.077    635.026    635.026
 23.070    670.000    644.228     25.772    634.553    636.931    641.851    634.553    634.553
 23.170    667.314    644.137     23.177    634.086    636.581    641.642    634.086    634.086
 23.270    643.000    644.079     -1.079    633.623    636.250    641.452    633.623    633.623
 23.370    643.000    644.061     -1.061    633.165    635.944    641.283    633.165    633.165
 23.470    656.000    644.091     11.909    632.713    635.669    641.135    632.713    632.713
 23.570    666.000    644.175     21.825    632.265    635.431    641.010    632.265    632.265
 23.670    623.000    644.324    -21.324    631.821    635.238    640.908    631.821    631.821
 23.770    679.892    644.551     35.341    631.383    635.103    640.832    631.383    631.383
 23.870    630.769    644.875    -14.106    630.949    635.043    640.783    630.949    630.949
 23.970    602.262    645.323    -43.060    630.521    635.082    640.763    630.521    630.521
 24.070    666.793    645.935     20.858    630.096    635.259    640.774    630.096    630.096
 24.170    604.266    646.786    -42.520    629.677    635.646    640.820    629.677    629.677
 24.270    670.000    648.027     21.973    629.262    636.391    640.901    629.262    629.262
 24.370    598.000    649.994    -51.994    628.852    637.829    641.022    628.852    628.852
 24.470    655.000    653.372      1.628    628.447    640.641    641.185    628.447    628.447
 24.570    714.000    659.327     54.673    628.046    645.989    641.394    628.046    628.046
 24.670    693.000    669.328     23.672    627.650    655.341    641.654    627.650    627.650
 24.770    691.000    684.328      6.672    627.258    669.646    641.968    627.258    627.258
 24.870    726.231    703.202     23.029    626.871    687.771    642.342    626.871    626.871
 24.970    704.000    720.728    -16.728    626.488    704.486    642.783    626.488    626.488
 25.070    727.000    727.742     -0.742    626.110    710.613    643.297    626.110    626.110
 25.170    756.482    719.322     37.160    625.737    701.217    643.893    625.737    625.737
 25.270    696.000    701.987     -5.987    625.368    682.814    644.578    625.368    625.368
 25.370    691.000    684.775      6.225    625.003    664.439    645.365    625.003    625.003
 25.470    652.312    672.044    -19.732    624.643    650.438    646.264    624.643    624.643
 25.570    637.000    664.346    -27.346    624.287    641.352    647.291    624.287    624.287
 25.670    686.000    660.527     25.473    623.936    636.007    648.461    623.936    623.936
 25.770    643.000    659.144    -16.144    623.588    632.941    649.795    623.588    623.588
 25.870    651.000    659.147     -8.147    623.246    631.079    651.315    623.246    623.246
 25.970    665.000    659.964      5.036    622.907    629.823    653.050    622.907    622.907
 26.070    678.000    661.350     16.650    622.573    628.892    655.032    622.573    622.573
 26.170    634.270    663.221    -28.951    622.243    628.163    657.301    622.243    622.243
 26.270    701.000    665.568     35.432    621.917    627.579    659.907    621.917    621.917
 26.370    706.000    668.428     37.572    621.596    627.109    662.914    621.596    621.596
 26.470    669.000    671.832     -2.832    621.279    626.725    666.384    621.279    621.279
 26.570    703.000    675.871     27.129    620.965    626.420    670.415    620.965    620.965
 26.670    645.000    680.658    -35.658    620.657    626.189    675.124    620.657    620.657
 26.770    652.000    686.341    -34.341    620.352    626.030    680.660    620.352    620.352
 26.870    689.000    693.115     -4.115    620.051    625.948    687.215    620.051    620.051
 26.970    671.709    701.240    -29.531    619.754    625.948    695.042    619.754    619.754
 27.070    736.000    711.066     24.934    619.462    626.042    704.481    619.462    619.462
 27.170    683.000    723.072    -40.072    619.173    626.250    715.990    619.173    619.173
 27.270    770.061    737.923     32.138    618.889    626.597    730.208    618.889    618.889
 27.370    755.605    756.565     -0.960    618.609    627.122    748.042    618.609    618.609
 27.470    771.000    780.395     -9.395    618.332    627.886    770.829    618.332    618.332
 27.570    816.000    811.649      4.351    618.060    628.982    800.711    618.060    618.060
 27.670    791.000    854.763    -63.763    617.791    630.597    841.935    617.791    617.791
 27.770    888.000    921.908    -33.908    617.526    633.244    906.159    617.526    617.526
 27.870   1083.000   1051.757     31.243    617.266    638.543   1030.424    617.266    617.266
 27.970   1410.676   1352.854     57.822    617.009    651.036   1318.705    617.009    617.009
 28.070   1938.000   2051.721   -113.721    616.756    680.200   1988.002    616.756    616.756
 28.170   3451.769   3441.029     10.740    616.507    738.280   3318.704    616.507    616.507
 28.270   5541.306   5599.537    -58.231    616.261    828.597   5386.303    616.261    616.261
 28.370   7805.000   7980.149   -175.149    616.020    928.356   7666.703    616.020    616.020
 28.470   9166.000   9333.093   -167.093    615.782    985.491   8962.459    615.782    615.782
 28.570   8881.000   8715.702    165.298    615.548    961.023   8369.847    615.548    615.548
 28.670   6830.211   6764.838     65.373    615.317    882.496   6497.732    615.317    615.317
 28.770   4980.000   4874.739    105.261    615.091    809.768   4680.275    615.091    615.091
 28.870   4055.559   3941.108    114.451    614.868    781.927   3774.197    614.868    614.868
 28.970   4109.000   4053.770     55.230    614.648    802.726   3865.750    614.648    614.648
 29.070   4702.000   4718.020    -16.020    614.433    847.597   4484.924    614.433    614.433
 29.170   5173.000   5161.802     11.198    614.221    875.920   4900.315    614.221    614.221
 29.270   4853.702   4826.627     27.075    614.012    857.617   4583.419    614.012    614.012
 29.370   3897.144   3854.038     43.105    613.807    801.814   3666.490    613.807    613.807
 29.470   2595.000   2755.349   -160.349    613.606    738.475   2630.862    613.606    613.606
 29.570   1847.000   1890.468    -43.468    613.408    688.585   1815.546    613.408    613.408
 29.670   1326.000   1349.728    -23.728    613.214    657.435   1305.651    613.214    613.214
 29.770   1115.000   1061.677     53.323    613.023    640.911   1033.862    613.023    613.023
 29.870    963.625    919.276     44.349    612.836    632.825    899.323    612.836    612.836
 29.970    938.000    845.672     92.328    612.652    628.737    829.608    612.652    612.652
 30.070    831.000    801.875     29.125    612.472    626.404    787.956    612.472    612.472
 30.170    756.716    771.938    -15.222    612.295    624.924    759.317    612.295    612.295
 30.270    779.000    749.835     29.165    612.121    623.981    737.980    612.121    612.121
 30.370    775.229    733.108     42.121    611.951    623.503    721.559    611.951    611.951
 30.470    771.000    720.723     50.277    611.784    623.587    708.921    611.784    611.784
 30.570    681.613    712.656    -31.042    611.620    624.597    699.676    611.620    611.620
 30.670    773.000    710.015     62.985    611.460    627.315    694.153    611.460    611.460
 30.770    742.000    715.003     26.997    611.303    632.962    693.329    611.303    611.303
 30.870    726.000    729.911     -3.911    611.149    642.751    698.281    611.149    611.149
 30.970    726.763    754.712    -27.949    610.999    656.774    708.891    610.999    610.999
 31.070    805.000    783.751     21.249    610.852    672.455    722.085    610.852    610.852
 31.170    852.000    803.919     48.081    610.708    683.699    730.858    610.708    610.708
 31.270    823.118    801.190     21.929    610.567    683.965    727.727    610.567    610.567
 31.370    769.000    774.751     -5.751    610.429    672.908    712.222    610.429    610.429
 31.470    771.000    737.998     33.002    610.295    656.849    691.410    610.295    610.295
 31.570    677.794    704.354    -26.559    610.163    642.119    672.378    610.163    610.163
 31.670    663.480    679.762    -16.282    610.035    631.530    658.255    610.035    610.035
 31.770    709.000    664.248     44.752    609.909    625.113    649.038    609.909    609.909
 31.870    709.000    655.227     53.773    609.787    621.667    643.343    609.787    609.787
 31.970    606.117    649.973    -43.856    609.668    619.926    639.712    609.668    609.668
 32.070    633.334    646.659    -13.325    609.552    619.043    637.166    609.552    609.552
 32.170    634.939    644.347     -9.408    609.439    618.586    635.199    609.439    609.439
 32.270    647.000    642.629      4.371    609.329    618.373    633.584    609.329    609.329
 32.370    651.000    641.338      9.662    609.222    618.335    632.223    609.222    609.222
 32.470    688.626    640.401     48.225    609.117    618.446    631.071    609.117    609.117
 32.570    681.000    639.788     41.212    609.016    618.702    630.101    609.016    609.016
 32.670    600.999    639.490    -38.491    608.917    619.108    629.299    608.917    608.917
 32.770    677.395    639.517     37.878    608.822    619.680    628.658    608.822    608.822
 32.870    658.351    639.898     18.454    608.729    620.445    628.181    608.729    608.729
 32.970    628.000    640.681    -12.681    608.639    621.443    627.876    608.639    608.639
 33.070    653.800    641.946     11.853    608.552    622.733    627.764    608.552    608.552
 33.170    658.000    643.810     14.190    608.468    624.399    627.878    608.468    608.468
 33.270    676.000    646.459     29.541    608.387    626.573    628.271    608.387    608.387
 33.370    628.000    650.217    -22.217    608.308    629.480    629.044    608.308    608.308
 33.470    611.725    655.754    -44.028    608.232    633.580    630.403    608.232    608.232
 33.570    690.631    664.580     26.051    608.159    639.911    632.823    608.159    608.159
 33.670    717.000    680.043     36.957    608.088    650.769    637.355    608.088    608.088
 33.770    690.025    708.634    -18.608    608.020    670.603    646.039    608.020    608.020
 33.870    744.000    760.478    -16.478    607.955    706.352    662.062    607.955    607.955
 33.970    834.796    846.791    -11.995    607.892    765.703    688.952    607.892    607.892
 34.070    923.108    972.648    -49.539    607.832    852.137    728.307    607.832    607.832
 34.170   1106.962   1125.930    -18.967    607.775    957.356    776.313    607.775    607.775
 34.270   1217.958   1265.591    -47.632    607.720   1053.238    820.050    607.720    607.720
 34.370   1320.000   1324.456     -4.456    607.668   1093.751    838.374    607.668    607.668
 34.470   1282.000   1263.302     18.698    607.618   1052.008    818.930    607.618    607.618
 34.570   1084.387   1122.228    -37.841    607.571    955.483    774.339    607.571    607.571
 34.670   1016.000    968.415     47.585    607.527    850.213    725.748    607.527    607.527
 34.770    893.549    842.450     51.099    607.484    764.014    685.934    607.484    607.484
 34.870    740.831    756.074    -15.243    607.445    704.934    658.593    607.445    607.445
 34.970    724.278    704.017     20.261    607.407    669.363    642.066    607.407    607.407
 35.070    666.003    675.021     -9.018    607.373    649.587    632.809    607.373    607.373
 35.170    652.000    658.998     -6.998    607.340    638.692    627.647    607.340    607.340
 35.270    670.000    649.506     20.494    607.310    632.265    624.552    607.310    607.310
 35.370    652.901    643.236      9.665    607.282    628.037    622.481    607.282    607.282
 35.470    659.000    638.692     20.308    607.257    624.985    620.965    607.257    607.257
 35.570    608.673    635.212    -26.539    607.234    622.652    619.795    607.234    607.234
 35.670    628.703    632.466     -3.764    607.213    620.813    618.867    607.213    607.213
 35.770    653.000    630.264     22.736    607.195    619.336    618.123    607.195    607.195
 35.870    605.371    628.479    -23.108    607.179    618.136    617.522    607.179    607.179
 35.970    643.000    627.022     15.978    607.165    617.149    617.039    607.165    607.165
 36.070    608.000    625.830    -17.830    607.153    616.331    616.653    607.153    607.153
 36.170    587.793    624.856    -37.063    607.144    615.648    616.352    607.144    607.144
 36.270    662.000    624.067     37.933    607.137    615.076    616.128    607.137    607.137
 36.370    632.279    623.440      8.839    607.132    614.597    615.975    607.132    607.132
 36.470    641.000    622.956     18.044    607.129    614.195    615.891    607.129    607.129
 36.570    612.000    622.607    -10.607    607.128    613.860    615.876    607.128    607.128
 36.670    622.806    622.389      0.417    607.129    613.584    615.935    607.129    607.129
 36.770    611.000    622.303    -11.303    607.133    613.361    616.075    607.133    607.133
 36.870    628.000    622.359      5.641    607.138    613.190    616.307    607.138    607.138
 36.970    606.529    622.571    -16.042    607.146    613.070    616.647    607.146    607.146
 37.070    644.000    622.971     21.029    607.156    613.006    617.120    607.156    607.156
 37.170    645.513    623.607     21.906    607.167    613.013    617.762    607.167    607.167
 37.270    628.000    624.574      3.426    607.181    613.125    618.631    607.181    607.181
 37.370    588.351    626.052    -37.701    607.197    613.416    619.833    607.197    607.197
 37.470    645.920    628.390     17.530    607.215    614.013    621.592    607.215    607.215
 37.570    650.000    632.248     17.752    607.234    615.104    624.379    607.234    607.234
 37.670    646.000    638.766      7.234    607.256    616.883    629.139    607.256    607.256
 37.770    688.000    649.672     38.328    607.279    619.449    637.503    607.279    607.279
 37.870    649.000    667.071    -18.071    607.305    622.627    651.750    607.305    607.305
 37.970    661.000    692.584    -31.584    607.332    625.769    674.149    607.332    607.332
 38.070    733.782    725.871      7.911    607.361    627.734    705.501    607.361    607.361
 38.170    746.000    763.273    -17.273    607.392    627.613    743.057    607.392    607.392
 38.270    800.000    796.484      3.516    607.425    625.631    778.288    607.425    607.425
 38.370    780.000    812.525    -32.525    607.459    622.753    797.247    607.459    607.459
 38.470    848.611    802.096     46.515    607.496    619.810    789.801    607.496    607.496
 38.570    774.624    770.134      4.489    607.534    617.292    760.397    607.534    607.534
 38.670    694.927    730.430    -35.504    607.574    615.401    722.620    607.574    607.574
 38.770    686.537    694.238     -7.701    607.615    614.122    687.745    607.615    607.615
 38.870    692.000    666.663     25.337    607.659    613.320    661.012    607.659    607.659
 38.970    672.000    648.176     23.824    607.704    612.842    643.045    607.704    607.704
 39.070    593.106    636.882    -43.776    607.750    612.566    632.071    607.750    607.750
 39.170    612.856    630.321    -17.464    607.799    612.410    625.712    607.799    607.799
 39.270    584.204    626.486    -42.282    607.849    612.325    622.011    607.849    607.849
 39.370    670.474    624.102     46.372    607.901    612.285    619.719    607.901    607.901
 39.470    654.360    622.487     31.873    607.954    612.275    618.167    607.954    607.954
 39.570    584.495    621.307    -36.812    608.009    612.286    617.031    608.009    608.009
 39.670    609.000    620.406    -11.406    608.065    612.316    616.156    608.065    608.065
 39.770    642.154    619.699     22.455    608.123    612.359    615.464    608.123    608.123
 39.870    567.000    619.137    -52.137    608.183    612.413    614.907    608.183    608.183
 39.970    600.000    618.694    -18.694    608.244    612.483    614.456    608.244    608.244
 40.070    623.000    618.344      4.656    608.306    612.565    614.086    608.306    608.306
 40.170    625.078    618.070      7.008    608.370    612.659    613.782    608.370    608.370
 40.270    557.000    617.859    -60.859    608.436    612.763    613.532    608.436    608.436
 40.370    659.107    617.701     41.406    608.503    612.879    613.325    608.503    608.503
 40.470    589.873    617.590    -27.717    608.571    613.007    613.155    608.571    608.571
 40.570    615.000    617.520     -2.520    608.641    613.147    613.016    608.641    608.641
 40.670    618.000    617.489      0.511    608.712    613.300    612.902    608.712    608.712
 40.770    597.000    617.493    -20.493    608.785    613.467    612.811    608.785    608.785
 40.870    593.000    617.531    -24.531    608.859    613.651    612.739    608.859    608.859
 40.970    605.976    617.602    -11.626    608.934    613.853    612.684    608.934    608.934
 41.070    623.000    617.709      5.291    609.011    614.075    612.645    609.011    609.011
 41.170    636.639    617.851     18.788    609.089    614.322    612.619    609.089    609.089
 41.270    603.000    618.033    -15.033    609.168    614.597    612.605    609.168    609.168
 41.370    602.724    618.260    -15.535    609.249    614.907    612.603    609.249    609.249
 41.470    603.985    618.536    -14.551    609.330    615.257    612.611    609.330    609.330
 41.570    648.000    618.872     29.128    609.413    615.658    612.629    609.413    609.413
 41.670    624.000    619.281      4.719    609.498    616.123    612.657    609.498    609.498
 41.770    617.328    619.780     -2.452    609.583    616.669    612.695    609.583    609.583
 41.870    640.000    620.397     19.603    609.670    617.324    612.744    609.670    609.670
 41.970    650.213    621.181     29.032    609.758    618.136    612.805    609.758    609.758
 42.070    586.255    622.228    -35.973    609.847    619.196    612.881    609.847    609.847
 42.170    611.000    623.729    -12.729    609.937    620.690    612.979    609.937    609.937
 42.270    634.000    626.064      7.936    610.028    622.982    613.115    610.028    610.028
 42.370    584.032    629.901    -45.869    610.121    626.716    613.312    610.121    610.121
 42.470    626.000    636.256    -10.256    610.214    632.867    613.611    610.214    610.214
 42.570    662.176    646.353     15.823    610.309    642.616    614.058    610.309    610.309
 42.670    644.000    661.192    -17.192    610.404    656.923    614.693    610.404    610.404
 42.770    593.000    680.795    -87.795    610.501    675.810    615.515    610.501    610.501
 42.870    656.954    703.252    -46.298    610.599    697.439    616.452    610.599    610.599
 42.970    688.465    723.790    -35.326    610.697    717.222    617.317    610.697    610.697
 43.070    713.000    735.214    -22.214    610.797    728.238    617.832    610.797    610.797
 43.170    754.419    732.246     22.174    610.898    725.410    617.793    610.898    610.898
 43.270    673.000    716.538    -43.538    611.000    710.326    617.264    611.000    611.000
 43.370    684.947    694.819     -9.872    611.102    689.459    616.506    611.102    611.102
 43.470    658.000    673.447    -15.447    611.206    668.922    615.763    611.206    611.206
 43.570    629.000    655.953    -26.953    611.310    652.112    615.173    611.310    611.310
 43.670    612.000    643.361    -31.361    611.416    640.016    614.775    611.416    611.416
 43.770    616.939    635.162    -18.223    611.522    632.144    614.550    611.522    611.522
 43.870    665.000    630.202     34.798    611.629    627.384    614.453    611.629    611.629
 43.970    606.544    627.314    -20.770    611.737    624.618    614.438    611.737    611.737
 44.070    630.000    625.625      4.375    611.846    623.002    614.472    611.846    611.846
 44.170    672.000    624.593     47.407    611.955    622.017    614.535    611.955    611.955
 44.270    644.000    623.925     20.075    612.066    621.380    614.613    612.066    612.066
 44.370    604.000    623.475    -19.475    612.177    620.951    614.703    612.177    612.177
 44.470    623.000    623.168     -0.168    612.289    620.658    614.800    612.289    612.289
 44.570    650.000    622.966     27.034    612.402    620.465    614.904    612.402    612.402
 44.670    629.927    622.846      7.081    612.515    620.348    615.014    612.515    612.515
 44.770    616.942    622.790     -5.849    612.629    620.291    615.129    612.629    612.629
 44.870    612.000    622.788    -10.788    612.744    620.285    615.249    612.744    612.744
 44.970    640.000    622.832     17.168    612.860    620.320    615.373    612.860    612.860
 45.070    652.000    622.914     29.086    612.976    620.390    615.501    612.976    612.976
 45.170    604.000    623.031    -19.031    613.093    620.491    615.633    613.093    613.093
 45.270    616.892    623.178     -6.286    613.211    620.619    615.770    613.211    613.211
 45.370    620.000    623.354     -3.354    613.329    620.773    615.911    613.329    613.329
 45.470    655.000    623.557     31.443    613.448    620.949    616.056    613.448    613.448
 45.570    575.328    623.785    -48.457    613.567    621.147    616.205    613.567    613.567
 45.670    607.000    624.038    -17.038    613.687    621.366    616.359    613.687    613.687
 45.770    586.366    624.316    -37.950    613.808    621.606    616.517    613.808    613.808
 45.870    613.000    624.619    -11.619    613.929    621.867    616.681    613.929    613.929
 45.970    628.000    624.949      3.051    614.051    622.150    616.849    614.051    614.051
 46.070    595.000    625.307    -30.307    614.173    622.455    617.024    614.173    614.173
 46.170    644.000    625.694     18.306    614.296    622.784    617.204    614.296    614.296
 46.270    631.000    626.113      4.887    614.419    623.140    617.391    614.419    614.419
 46.370    649.000    626.567     22.433    614.543    623.523    617.586    614.543    614.543
 46.470    629.059    627.061      1.998    614.667    623.939    617.788    614.667    614.667
 46.570    615.000    627.600    -12.600    614.791    624.391    618.000    614.791    614.791
 46.670    672.000    628.190     43.810    614.916    624.884    618.221    614.916    614.916
 46.770    623.645    628.839     -5.195    615.042    625.426    618.454    615.042    615.042
 46.870    591.039    629.560    -38.521    615.168    626.027    618.699    615.168    615.168
 46.970    629.000    630.367     -1.367    615.294    626.699    618.961    615.294    615.294
 47.070    619.000    631.286    -12.286    615.421    627.463    619.241    615.421    615.421
 47.170    684.000    632.356     51.644    615.548    628.356    619.546    615.548    615.548
 47.270    673.000    633.656     39.344    615.675    629.444    619.884    615.675    615.675
 47.370    636.779    635.331      1.447    615.803    630.856    620.275    615.803    615.803
 47.470    658.708    637.645     21.064    615.931    632.822    620.749    615.931    615.931
 47.570    626.000    641.026    -15.026    616.059    635.721    621.357    616.059    616.059
 47.670    594.000    646.085    -52.085    616.188    640.089    622.174    616.188    616.188
 47.770    656.000    653.529      2.471    616.317    646.550    623.281    616.317    616.317
 47.870    693.724    663.938     29.786    616.446    655.613    624.750    616.446    616.446
 47.970    676.303    677.394     -1.091    616.575    667.348    626.592    616.575    616.575
 48.070    712.000    693.037     18.963    616.705    680.995    628.708    616.705    616.705
 48.170    687.000    708.622    -21.622    616.835    694.569    630.841    616.835    616.835
 48.270    683.707    720.436    -36.729    616.965    704.788    632.560    616.965    616.965
 48.370    748.000    724.594     23.406    617.095    708.219    633.417    617.095    617.095
 48.470    668.000    719.891    -51.891    617.226    703.792    633.276    617.226    617.226
 48.570    690.000    709.048    -19.048    617.356    693.902    632.463    617.356    617.356
 48.670    659.839    696.310    -36.471    617.487    682.285    631.481    617.487    617.487
 48.770    654.000    684.908    -30.908    617.618    671.785    630.719    617.618    617.618
 48.870    673.000    676.517     -3.517    617.749    663.864    630.386    617.749    617.749
 48.970    637.630    671.617    -33.988    617.880    658.930    630.556    617.880    617.880
 49.070    647.567    669.975    -22.408    618.011    656.752    631.227    618.011    618.011
 49.170    686.060    671.075     14.986    618.143    656.841    632.370    618.143    618.143
 49.270    665.659    674.465     -8.807    618.274    658.752    633.982    618.274    618.274
 49.370    649.000    680.018    -31.018    618.405    662.283    636.134    618.405    618.405
 49.470    706.702    688.209     18.494    618.537    667.681    639.059    618.537    618.537
 49.570    689.000    700.690    -11.690    618.668    676.018    643.332    618.668    618.668
 49.670    688.000    721.420    -33.420    618.800    690.024    650.183    618.800    618.800
 49.770    738.000    759.525    -21.525    618.931    715.573    662.860    618.931    618.931
 49.870    835.000    831.090      3.910    619.063    763.465    686.644    619.063    619.063
 49.970    941.000    961.014    -20.014    619.194    850.374    729.759    619.194    619.194
 50.070   1114.000   1179.634    -65.634    619.326    996.576    802.261    619.326    619.326
 50.170   1437.000   1511.207    -74.207    619.457   1218.291    912.197    619.457    619.457
 50.270   2000.256   1954.976     45.280    619.589   1515.025   1059.318    619.589    619.589
 50.370   2463.000   2465.595     -2.595    619.720   1856.487   1228.593    619.720    619.720
 50.470   2935.838   2943.980     -8.142    619.851   2176.473   1387.167    619.851    619.851
 50.570   3302.821   3253.784     49.037    619.982   2383.866   1489.816    619.982    619.982
 50.670   3171.000   3281.635   -110.635    620.113   2402.895   1498.908    620.113    620.113
 50.770   3043.000   3016.241     26.759    620.244   2226.025   1410.627    620.244    620.244
 50.870   2574.000   2558.726     15.274    620.374   1920.913   1258.405    620.374    620.374
 50.970   2086.852   2048.367     38.485    620.505   1580.778   1088.307    620.505    620.505
 51.070   1592.000   1593.527     -1.527    620.635   1278.208    936.129    620.635    620.635
 51.170   1248.858   1248.924     -0.066    620.765   1049.907    819.910    620.765    620.765
 51.270   1030.000   1021.697      8.303    620.895    900.671    742.008    620.895    620.895
 51.370    909.000    889.847     19.153    621.025    815.623    695.309    621.025    621.025
 51.470    867.000    821.764     45.236    621.155    773.164    669.799    621.155    621.155
 51.570    751.067    789.101    -38.034    621.284    753.522    656.901    621.284    621.284
 51.670    767.000    771.871     -4.871    621.413    742.321    650.997    621.413    621.413
 51.770    720.812    759.165    -38.352    621.542    731.631    649.104    621.542    621.542
 51.870    757.000    747.556      9.444    621.670    719.377    649.871    621.670    621.670
 51.970    733.394    737.485     -4.091    621.799    706.667    652.630    621.799    621.799
 52.070    781.000    729.934     51.066    621.927    695.119    656.747    621.927    621.927
 52.170    700.000    724.988    -24.988    622.054    685.780    661.261    622.054    622.054
 52.270    757.000    721.640     35.360    622.182    679.032    664.783    622.182    622.182
 52.370    767.000    718.270     48.730    622.309    674.765    665.806    622.309    622.309
 52.470    682.000    713.753    -31.753    622.435    672.614    663.566    622.435    622.435
 52.570    725.041    708.289     16.752    622.562    672.184    658.660    622.562    622.562
 52.670    741.000    703.015     37.985    622.688    673.203    652.495    622.688    622.688
 52.770    693.000    699.213     -6.213    622.813    675.629    646.395    622.813    622.813
 52.870    720.000    698.030     21.970    622.938    679.751    641.216    622.938    622.938
 52.970    701.000    700.617      0.383    623.063    686.346    637.334    623.063    623.063
 53.070    726.145    708.469     17.676    623.188    696.907    634.750    623.188    623.188
 53.170    712.270    723.773    -11.503    623.311    713.896    633.188    623.311    623.311
 53.270    819.000    750.060     68.940    623.435    740.889    632.603    623.435    623.435
 53.370    821.000    791.474     29.526    623.558    782.227    632.802    623.558    623.558
 53.470    891.933    852.049     39.883    623.681    842.074    633.651    623.681    623.681
 53.570    892.000    934.010    -42.010    623.803    922.719    635.088    623.803    623.803
 53.670    985.000   1035.462    -50.462    623.924   1022.368    637.014    623.924    623.924
 53.770   1181.000   1147.960     33.040    624.046   1132.782    639.224    624.046    624.046
 53.870   1306.444   1254.460     51.985    624.166   1237.288    641.347    624.166    624.166
 53.970   1330.000   1329.923      0.077    624.286   1311.375    642.853    624.286    624.286
 54.070   1345.000   1349.883     -4.883    624.406   1331.091    643.229    624.406    624.406
 54.170   1300.000   1306.641     -6.641    624.525   1288.895    642.309    624.525    624.525
 54.270   1191.818   1216.121    -24.304    624.644   1200.380    640.424    624.644    624.644
 54.370   1089.000   1105.118    -16.118    624.762   1091.787    638.127    624.762    624.762
 54.470   1045.156    996.171     48.984    624.879    985.191    635.888    624.879    624.879
 54.570    964.000    902.706     61.294    624.996    893.741    633.983    624.996    624.996
 54.670    812.000    830.184    -18.184    625.112    822.786    632.526    625.112    625.112
 54.770    729.000    778.453    -49.453    625.228    772.179    631.513    625.228    625.228
 54.870    775.000    744.138     30.862    625.343    738.616    630.873    625.343    625.343
 54.970    734.000    722.724     11.276    625.457    717.676    630.511    625.457    625.457
 55.070    716.000    710.007      5.993    625.571    705.242    630.340    625.571    625.571
 55.170    736.000    702.791     33.209    625.684    698.185    630.293    625.684    625.684
 55.270    745.000    698.973     46.027    625.797    694.445    630.327    625.797    625.797
 55.370    747.000    697.330     49.670    625.908    692.824    630.417    625.908    625.908
 55.470    672.000    697.221    -25.221    626.020    692.692    630.550    626.020    626.020
 55.570    703.000    698.354      4.646    626.130    693.764    630.722    626.130    626.130
 55.670    653.844    700.636    -46.791    626.240    695.946    630.931    626.240    626.240
 55.770    729.552    704.107     25.445    626.349    699.276    631.181    626.349    626.349
 55.870    674.000    708.937    -34.937    626.457    703.916    631.480    626.457    626.457
 55.970    726.000    715.492     10.508    626.565    710.216    631.841    626.565    626.565
 56.070    744.000    724.498     19.502    626.671    718.880    632.291    626.671    626.671
 56.170    749.000    737.375     11.625    626.778    731.271    632.882    626.778    626.778
 56.270    742.736    756.764    -14.028    626.883    749.938    633.709    626.883    626.883
 56.370    782.000    787.271     -5.271    626.987    779.318    634.937    626.987    626.987
 56.470    864.537    836.193     28.344    627.091    826.447    636.830    627.091    627.091
 56.570    954.986    913.808     41.178    627.194    901.231    639.758    627.194    627.194
 56.670    979.000   1032.504    -53.504    627.296   1015.614    644.165    627.296    627.296
 56.770   1146.836   1204.129    -57.294    627.398   1181.019    650.478    627.398    627.398
 56.870   1425.000   1435.448    -10.448    627.498   1403.968    658.940    627.498    627.498
 56.970   1749.000   1722.453     26.547    627.598   1680.603    669.410    627.598    627.598
 57.070   2008.000   2044.840    -36.840    627.697   1991.354    681.158    627.697    627.697
 57.170   2397.000   2361.922     35.078    627.795   2296.996    692.726    627.795    627.795
 57.270   2620.000   2613.038      6.962    627.892   2539.051    701.935    627.892    627.892
 57.370   2691.000   2731.948    -40.948    627.989   2653.651    706.409    627.989    627.989
 57.470   2650.148   2681.027    -30.879    628.084   2604.504    704.798    628.084    628.084
 57.570   2507.000   2478.108     28.892    628.179   2408.776    697.744    628.179    628.179
 57.670   2226.000   2182.407     43.593    628.272   2123.541    687.381    628.272    628.272
 57.770   1878.000   1859.074     18.926    628.365   1811.607    676.056    628.365    628.365
 57.870   1568.832   1557.264     11.567    628.457   1520.356    665.552    628.457    628.457
 57.970   1220.000   1305.368    -85.368    628.548   1277.134    656.927    628.548    628.548
 58.070   1091.654   1113.756    -22.103    628.638   1091.877    650.622    628.638    628.638
 58.170    986.000    980.016      5.984    628.727    962.132    646.682    628.727    628.727
 58.270    918.000    894.911     23.089    628.815    878.766    645.005    628.815    628.815
 58.370    863.000    847.700     15.300    628.902    831.064    645.562    628.902    628.902
 58.470    824.000    829.632     -5.632    628.988    810.109    648.518    628.988    628.988
 58.570    815.000    835.302    -20.302    629.074    810.155    654.214    629.074    629.074
 58.670    881.000    862.200     18.800    629.158    828.353    662.986    629.158    629.158
 58.770    898.219    909.189    -10.969    629.241    863.508    674.891    629.241    629.241
 58.870    938.698    974.608    -35.910    629.323    914.497    689.393    629.323    629.323
 58.970   1019.000   1054.574    -35.574    629.405    978.779    705.153    629.405    629.405
 59.070   1109.962   1141.915    -31.953    629.485   1051.350    720.003    629.485    629.485
 59.170   1162.430   1226.634    -64.204    629.564   1124.820    731.339    629.564    629.564
 59.270   1333.000   1298.709     34.291    629.642   1191.235    737.093    629.642    629.642
 59.370   1365.928   1351.277     14.651    629.719   1244.293    736.698    629.719    629.719
 59.470   1392.000   1380.588     11.412    629.796   1279.372    731.024    629.796    629.796
 59.570   1401.267   1384.394     16.874    629.871   1292.790    721.503    629.871    629.871
 59.670   1396.497   1363.706     32.791    629.944   1284.086    709.603    629.944    629.944
 59.770   1368.000   1326.336     41.664    630.017   1259.559    696.830    630.017    630.017
 59.870   1352.000   1285.834     66.166    630.089   1231.327    684.614    630.089    630.089
 59.970   1323.000   1255.994     67.006    630.160   1212.180    673.962    630.160    630.160
 60.070   1196.692   1246.438    -49.746    630.229   1211.321    665.295    630.229    630.229
 60.170   1247.000   1261.846    -14.846    630.298   1233.478    658.570    630.298    630.298
 60.270   1310.000   1303.528      6.472    630.365   1280.223    653.525    630.365    630.365
 60.370   1369.000   1369.848     -0.848    630.432   1350.221    649.866    630.432    630.432
 60.470   1526.000   1453.728     72.272    630.497   1436.665    647.324    630.497    630.497
 60.570   1586.000   1540.037     45.963    630.561   1524.674    645.660    630.561    630.561
 60.670   1582.163   1606.178    -24.015    630.624   1591.857    644.673    630.624    630.624
 60.770   1689.000   1628.016     60.984    630.685   1614.240    644.208    630.685    630.685
 60.870   1650.000   1591.340     58.660    630.746   1577.713    644.160    630.746    630.746
 60.970   1484.000   1500.553    -16.553    630.805   1486.735    644.460    630.805    630.805
 61.070   1369.000   1375.009     -6.009    630.863   1360.680    645.079    630.863    630.863
 61.170   1246.000   1238.027      7.973    630.920   1222.847    646.025    630.920    630.920
 61.270   1092.000   1108.954    -16.954    630.976   1092.517    647.366    630.976    630.976
 61.370   1033.470   1000.509     32.962    631.031    982.244    649.266    631.031    631.031
 61.470    930.000    919.058     10.942    631.084    898.075    652.044    631.084    631.084
 61.570    892.000    866.272     25.728    631.137    841.117    656.269    631.137    631.137
 61.670    846.833    841.454      5.379    631.188    809.756    662.856    631.188    631.188
 61.770    882.000    843.800     38.200    631.237    801.849    673.146    631.237    631.237
 61.870    880.000    873.880      6.120    631.286    816.223    688.883    631.286    631.286
 61.970    874.000    933.849    -59.849    631.333    853.083    712.014    631.333    631.333
 62.070   1062.232   1026.301     35.931    631.379    913.308    744.255    631.379    631.379
 62.170   1202.000   1152.071     49.929    631.424    996.912    786.431    631.424    631.424
 62.270   1354.000   1307.573     46.427    631.468   1101.140    837.711    631.468    631.468
 62.370   1463.000   1482.399    -19.399    631.510   1218.756    894.932    631.510    631.510
 62.470   1676.641   1657.796     18.846    631.551   1336.940    952.166    631.551    631.551
 62.570   1795.000   1806.920    -11.920    631.591   1437.425   1000.845    631.591    631.591
 62.670   1892.000   1899.211     -7.211    631.629   1499.437   1031.187    631.629    631.629
 62.770   1879.000   1911.228    -32.228    631.666   1507.041   1035.680    631.666    631.666
 62.870   1816.000   1839.323    -23.323    631.702   1457.738   1013.163    631.702    631.702
 62.970   1715.000   1702.078     12.922    631.737   1364.121    969.615    631.737    631.737
 63.070   1587.650   1529.466     58.184    631.770   1246.523    914.670    631.770    631.770
 63.170   1283.000   1350.143    -67.143    631.802   1124.386    857.539    631.802    631.802
 63.270   1166.000   1185.144    -19.144    631.833   1011.982    804.989    631.833    631.833
 63.370   1062.000   1046.820     15.180    631.862    917.690    760.992    631.862    631.862
 63.470    956.496    939.693     16.803    631.890    844.575    727.009    631.890    631.890
 63.570    890.000    862.515     27.485    631.917    791.787    702.644    631.917    631.917
 63.670    884.000    810.638     73.362    631.942    756.170    686.406    631.942    631.942
 63.770    736.000    778.256    -42.256    631.966    733.786    676.430    631.966    631.966
 63.870    809.404    760.068     49.336    631.989    721.038    671.010    631.989    631.989
 63.970    818.000    752.217     65.783    632.010    715.303    668.913    632.010    632.010
 64.070    747.000    752.642     -5.642    632.030    715.150    669.507    632.030    632.030
 64.170    760.000    761.058     -1.058    632.048    720.287    672.800    632.048    632.048
 64.270    807.000    778.768     28.232    632.065    731.370    679.437    632.065    632.065
 64.370    785.000    808.338    -23.338    632.081    749.705    690.678    632.081    632.081
 64.470    835.000    853.103    -18.103    632.095    776.846    708.303    632.095    632.095
 64.570    872.383    916.406    -44.023    632.108    814.067    734.379    632.108    632.108
 64.670   1032.000   1000.542     31.458    632.120    861.740    770.833    632.120    632.120
 64.770   1166.000   1105.462     60.538    632.130    918.668    818.813    632.130    632.130
 64.870   1171.254   1227.417    -56.163    632.139    981.487    877.936    632.139    632.139
 64.970   1367.000   1357.809      9.191    632.146   1044.232    945.572    632.146    632.146
 65.070   1470.338   1482.815    -12.476    632.152   1098.504   1016.304    632.152    632.152
 65.170   1589.874   1584.810      5.064    632.157   1135.057   1081.757    632.157    632.157
 65.270   1698.000   1646.347     51.653    632.160   1147.098   1131.277    632.160    632.160
 65.370   1624.000   1655.681    -31.681    632.161   1133.292   1154.452    632.161    632.161
 65.470   1678.000   1611.454     66.546    632.162   1098.016   1145.541    632.162    632.162
 65.570   1554.000   1523.728     30.272    632.160   1049.134   1106.734    632.160    632.160
 65.670   1539.000   1409.786    129.214    632.158    995.132   1046.822    632.158    632.158
 65.770   1218.000   1287.514    -69.514    632.154    942.900    976.800    632.154    632.154
 65.870   1198.000   1170.746     27.254    632.148    896.654    906.286    632.148    632.148
 65.970   1100.542   1067.777     32.765    632.141    857.881    842.088    632.141    632.141
 66.070    924.000    981.943    -57.943    632.133    826.051    788.076    632.133    632.133
 66.170    932.000    913.208     18.792    632.123    799.792    745.585    632.123    632.123
 66.270    903.855    859.862     43.992    632.111    777.947    714.066    632.111    632.111
 66.370    793.000    819.594    -26.594    632.098    759.889    691.835    632.098    632.098
 66.470    809.218    789.956     19.262    632.084    745.296    676.768    632.084    632.084
 66.570    712.000    768.655    -56.655    632.068    733.923    666.817    632.068    632.068
 66.670    759.455    753.765      5.690    632.051    725.535    660.292    632.051    632.051
 66.770    655.000    743.822    -88.822    632.032    719.909    655.953    632.032    632.032
 66.870    781.584    737.807     43.777    632.012    716.857    652.967    632.012    632.012
 66.970    664.000    735.071    -71.071    631.990    716.244    650.821    631.990    631.990
 67.070    696.000    735.305    -39.305    631.966    718.057    649.217    631.966    631.966
 67.170    671.000    738.575    -67.575    631.942    722.522    647.998    631.942    631.942
 67.270    707.000    745.448    -38.448    631.915    730.274    647.093    631.915    631.915
 67.370    742.000    757.194    -15.194    631.887    742.593    646.491    631.887    631.887
 67.470    729.000    776.038    -47.038    631.858    761.669    646.229    631.858    631.858
 67.570    742.000    805.419    -63.419    631.827    790.851    646.395    631.827    631.827
 67.670    837.000    850.118    -13.118    631.795    834.790    647.121    631.795    631.795
 67.770    862.470    916.124    -53.654    631.761    899.301    648.581    631.761    631.761
 67.870   1004.000   1010.026     -6.026    631.725    990.778    650.969    631.725    631.725
 67.970   1037.000   1137.832   -100.832    631.688   1115.054    654.464    631.688    631.688
 68.070   1283.000   1303.247    -20.247    631.650   1275.726    659.175    631.650    631.650
 68.170   1539.600   1505.621     33.979    631.610   1472.176    665.074    631.610    631.610
 68.270   1775.644   1737.968     37.676    631.568   1697.640    671.941    631.568    631.568
 68.370   1973.000   1985.375    -12.375    631.525   1937.677    679.306    631.525    631.525
 68.470   2178.000   2224.162    -46.162    631.481   2169.347    686.430    631.481    631.481
 68.570   2502.288   2422.766     79.522    631.434   2362.070    692.327    631.434    631.434
 68.670   2526.204   2546.750    -20.547    631.387   2482.476    695.924    631.387    631.387
 68.770   2612.652   2569.853     42.799    631.337   2505.110    696.401    631.337    631.337
 68.870   2515.000   2486.544     28.456    631.286   2424.603    693.584    631.286    631.286
 68.970   2369.000   2315.266     53.734    631.234   2258.819    688.044    631.234    631.234
 69.070   2114.000   2088.774     25.226    631.180   2039.498    680.799    631.180    631.180
 69.170   1964.000   1841.015    122.985    631.124   1799.541    672.903    631.124    631.124
 69.270   1636.000   1599.374     36.626    631.067   1565.489    665.208    631.067    631.067
 69.370   1333.000   1382.452    -49.452    631.009   1355.376    658.292    631.009    631.009
 69.470   1169.677   1200.435    -30.758    630.948   1179.073    652.470    630.948    630.948
 69.570   1102.000   1056.420     45.580    630.887   1039.587    647.838    630.887    630.887
 69.670   1008.000    948.268     59.732    630.823    934.852    644.324    630.823    630.823
 69.770    908.000    870.686     37.314    630.758    859.732    641.772    630.758    630.758
 69.870    924.000    817.104    106.896    630.692    807.862    639.976    630.692    630.692
 69.970    731.487    781.112    -49.626    630.624    773.033    638.733    630.624    630.624
 70.070    749.000    757.301     -8.301    630.554    750.001    637.875    630.554    630.554
 70.170    836.000    741.564     94.436    630.483    734.788    637.274    630.483    630.483
 70.270    784.000    731.044     52.956    630.410    724.624    636.841    630.410    630.410
 70.370    691.531    723.891    -32.360    630.336    717.716    636.519    630.336    630.336
 70.470    742.868    718.981     23.886    630.260    712.975    636.272    630.260    630.260
 70.570    762.000    715.672     46.328    630.182    709.778    636.081    630.182    630.182
 70.670    775.000    713.621     61.379    630.103    707.792    635.935    630.103    630.103
 70.770    731.000    712.682     18.318    630.022    706.874    635.832    630.022    630.022
 70.870    703.646    712.848     -9.202    629.940    707.017    635.771    629.940    629.940
 70.970    707.558    714.253     -6.695    629.856    708.348    635.759    629.856    629.856
 71.070    710.000    717.209     -7.209    629.770    711.166    635.810    629.770    629.770
 71.170    685.000    722.289    -37.289    629.683    716.019    635.947    629.683    629.683
 71.270    704.172    730.442    -26.270    629.594    723.817    636.209    629.594    629.594
 71.370    781.388    743.136     38.252    629.504    735.967    636.658    629.504    629.504
 71.470    761.000    762.493     -1.493    629.412    754.505    637.379    629.412    629.412
 71.570    782.000    791.368     -9.368    629.319    782.166    638.490    629.319    629.319
 71.670    818.333    833.283    -14.950    629.224    822.328    640.134    629.224    629.224
 71.770    932.375    892.146     40.228    629.127    878.740    642.472    629.127    629.127
 71.870   1001.329    971.692     29.636    629.029    954.981    645.657    629.029    629.029
 71.970   1036.000   1074.643    -38.643    628.929   1053.662    649.800    628.929    628.929
 72.070   1247.134   1201.679     45.456    628.828   1175.437    654.931    628.828    628.828
 72.170   1363.000   1350.380     12.620    628.725   1317.984    660.953    628.725    628.725
 72.270   1562.307   1514.298     48.009    628.620   1475.119    667.605    628.620    628.620
 72.370   1649.000   1682.295    -33.295    628.514   1636.157    674.438    628.514    628.514
 72.470   1779.804   1838.366    -58.562    628.406   1785.746    680.801    628.406    628.406
 72.570   1884.000   1962.658    -78.658    628.296   1904.843    685.892    628.296    628.296
 72.670   1961.536   2035.052    -73.516    628.185   1974.144    688.894    628.185    628.185
 72.770   2047.000   2041.652      5.348    628.073   1980.313    689.245    628.073    628.073
 72.870   2053.899   1981.014     72.885    627.959   1921.955    686.890    627.959    627.959
 72.970   1863.661   1864.907     -1.246    627.843   1810.350    682.308    627.843    627.843
 73.070   1691.000   1712.838    -21.838    627.726   1664.213    676.291    627.726    627.726
 73.170   1486.085   1545.140    -59.055    627.607   1503.053    669.657    627.607    627.607
 73.270   1386.000   1378.711      7.289    627.486   1343.097    663.081    627.486    627.486
 73.370   1204.738   1225.615    -20.878    627.364   1195.942    657.029    627.364    627.364
 73.470   1069.000   1093.129    -24.129    627.240   1068.594    651.772    627.240    627.240
 73.570   1003.000    984.347     18.653    627.115    964.049    647.413    627.115    627.115
 73.670    903.000    899.095      3.905    626.988    882.149    643.934    626.988    626.988
 73.770    857.000    834.986     22.014    626.859    820.592    641.254    626.859    626.859
 73.870    757.111    788.469    -31.358    626.729    775.939    639.260    626.729    626.729
 73.970    753.694    755.695     -2.000    626.598    744.454    637.837    626.598    626.598
 74.070    719.000    733.121    -14.121    626.464    722.698    636.886    626.464    626.464
 74.170    700.797    717.846    -17.049    626.329    707.842    636.333    626.329    626.329
 74.270    694.000    707.700    -13.700    626.193    697.762    636.132    626.193    626.193
 74.370    713.000    701.189     11.811    626.055    690.985    636.262    626.055    626.055
 74.470    743.000    697.344     45.656    625.915    686.547    636.718    625.915    625.915
 74.570    691.000    695.564     -4.564    625.774    683.847    637.501    625.774    625.774
 74.670    649.000    695.461    -46.461    625.632    682.502    638.604    625.632    625.632
 74.770    711.000    696.734     14.266    625.487    682.238    640.002    625.487    625.487
 74.870    697.000    699.088     -2.088    625.341    682.809    641.644    625.341    625.341
 74.970    695.000    702.162     -7.162    625.194    683.946    643.440    625.194    625.194
 75.070    700.000    705.505     -5.505    625.045    685.322    645.263    625.045    625.045
 75.170    749.592    708.560     41.032    624.894    686.546    646.949    624.894    624.894
 75.270    701.000    710.722     -9.722    624.742    687.195    648.314    624.742    624.742
 75.370    675.163    711.481    -36.318    624.589    686.905    649.211    624.589    624.589
 75.470    761.000    710.626     50.374    624.433    685.511    649.595    624.433    624.433
 75.570    744.179    708.385     35.794    624.276    683.134    649.571    624.276    624.276
 75.670    693.000    705.373    -12.373    624.118    680.139    649.392    624.118    624.118
 75.770    701.000    702.432     -1.432    623.958    677.023    649.400    623.958    623.958
 75.870    734.000    700.492     33.508    623.797    674.312    650.002    623.797    623.797
 75.970    704.000    700.524      3.476    623.634    672.524    651.652    623.634    623.634
 76.070    714.000    703.534     10.466    623.469    672.158    654.855    623.469    623.469
 76.170    707.000    710.561     -3.561    623.303    673.697    660.168    623.303    623.303
 76.270    692.440    722.641    -30.201    623.135    677.599    668.170    623.135    623.135
 76.370    721.243    740.723    -19.480    622.966    684.261    679.411    622.966    622.966
 76.470    777.629    765.529     12.100    622.795    693.973    694.324    622.795    622.795
 76.570    828.000    797.369     30.631    622.623    706.840    713.115    622.623    622.623
 76.670    845.000    835.932      9.068    622.449    722.700    735.635    622.449    622.449
 76.770    934.000    880.087     53.913    622.274    741.040    761.264    622.274    622.274
 76.870    910.110    927.721    -17.611    622.097    760.937    788.816    622.097    622.097
 76.970    918.000    975.624    -57.624    621.919    781.000    816.470    621.919    621.919
 77.070    968.278   1019.496    -51.217    621.739    799.376    841.783    621.739    621.739
 77.170   1084.000   1054.240     29.760    621.558    813.875    861.846    621.558    621.558
 77.270   1077.000   1074.817      2.183    621.375    822.336    873.785    621.375    621.375
 77.370   1098.000   1077.697     20.303    621.191    823.242    875.582    621.191    621.191
 77.470   1131.000   1062.260     68.740    621.005    816.326    866.886    621.005    621.005
 77.570   1035.567   1031.083      4.485    620.817    802.687    849.171    620.817    620.817
 77.670    986.000    988.840     -2.840    620.629    784.322    825.115    620.629    620.629
 77.770    979.259    940.729     38.530    620.438    763.454    797.691    620.438    620.438
 77.870    943.000    891.358     51.642    620.246    742.052    769.536    620.246    620.246
 77.970    847.664    844.274      3.390    620.053    721.634    742.682    620.053    620.053
 78.070    749.000    801.893    -52.893    619.858    703.232    718.512    619.858    619.858
 78.170    732.000    765.580    -33.580    619.662    687.430    697.808    619.662    619.662
 78.270    716.649    735.803    -19.154    619.464    674.426    680.839    619.464    619.464
 78.370    714.540    712.338      2.202    619.265    664.124    667.477    619.265    619.265
 78.470    687.000    694.496     -7.496    619.065    656.229    657.331    619.065    619.065
 78.570    627.000    681.350    -54.350    618.862    650.342    649.869    618.862    618.862
 78.670    704.000    671.912     32.088    618.659    646.042    644.528    618.659    618.659
 78.770    701.000    665.269     35.731    618.454    642.935    640.786    618.454    618.454
 78.870    622.961    660.656    -37.694    618.248    640.694    638.208    618.248    618.248
 78.970    582.000    657.476    -75.476    618.040    639.063    636.452    618.040    618.040
 79.070    650.000    655.298     -5.298    617.830    637.855    635.272    617.830    617.830
 79.170    676.000    653.827     22.173    617.620    636.943    634.502    617.620    617.620
 79.270    610.000    652.878    -42.878    617.408    636.248    634.036    617.408    617.408
 79.370    641.000    652.343    -11.343    617.194    635.722    633.814    617.194    617.194
 79.470    608.306    652.177    -43.871    616.979    635.343    633.812    616.979    616.979
 79.570    633.000    652.378    -19.378    616.763    635.106    634.033    616.763    616.763
 79.670    608.000    652.987    -44.987    616.545    635.022    634.509    616.545    616.545
 79.770    617.000    654.091    -37.091    616.326    635.112    635.303    616.326    616.326
 79.870    649.105    655.833     -6.728    616.105    635.410    636.526    616.105    616.105
 79.970    648.751    658.432     -9.681    615.884    635.962    638.350    615.884    615.884
 80.070    675.000    662.214     12.786    615.660    636.826    641.044    615.660    615.660
 80.170    682.000    667.647     14.353    615.436    638.077    644.999    615.436    615.436
 80.270    680.768    675.383      5.385    615.210    639.812    650.773    615.210    615.210
 80.370    692.008    686.295      5.713    614.982    642.149    659.118    614.982    614.982
 80.470    732.000    701.495     30.505    614.753    645.238    670.997    614.753    614.753
 80.570    713.000    722.313     -9.313    614.523    649.255    687.563    614.523    614.523
 80.670    799.811    750.218     49.593    614.292    654.404    710.084    614.292    614.292
 80.770    838.661    786.676     51.984    614.059    660.896    739.811    614.059    614.059
 80.870    809.000    832.939    -23.939    613.825    668.949    777.782    613.825    613.825
 80.970    972.000    889.793     82.207    613.590    678.765    824.580    613.590    613.590
 81.070    964.000    957.285      6.715    613.353    690.521    880.076    613.353    613.353
 81.170   1070.681   1034.428     36.254    613.115    704.321    943.180    613.115    613.115
 81.270   1179.218   1118.932     60.286    612.876    720.130   1011.638    612.876    612.876
 81.370   1260.000   1207.037     52.963    612.635    737.698   1081.940    612.635    612.635
 81.470   1389.000   1293.533     95.467    612.393    756.508   1149.394    612.393    612.393
 81.570   1495.000   1372.102    122.898    612.150    775.768   1208.475    612.150    612.150
 81.670   1593.000   1436.209    156.791    611.906    794.528   1253.596    611.906    611.906
 81.770   1567.000   1480.282     86.718    611.660    811.803   1280.170    611.660    611.660
 81.870   1554.000   1500.735     53.265    611.413    826.641   1285.559    611.413    611.413
 81.970   1443.773   1496.594    -52.821    611.165    838.301   1269.530    611.165    611.165
 82.070   1558.000   1469.327     88.673    610.915    846.286   1234.045    610.915    610.915
 82.170   1436.308   1422.400     13.908    610.665    850.377   1182.792    610.665    610.665
 82.270   1398.000   1360.696     37.304    610.413    850.599   1120.623    610.413    610.413
 82.370   1281.971   1289.677     -7.706    610.160    847.111   1052.845    610.160    610.160
 82.470   1279.000   1214.506     64.494    609.905    840.104    984.428    609.905    609.905
 82.570   1176.000   1139.477     36.523    609.650    829.828    919.418    609.650    609.650
 82.670   1043.848   1067.874    -24.026    609.393    816.724    860.657    609.393    609.393
 82.770    995.602   1002.019     -6.417    609.135    801.482    809.778    609.135    609.135
 82.870    935.496    943.302     -7.806    608.876    784.923    767.352    608.876    608.876
 82.970    892.000    892.225     -0.225    608.615    767.809    733.119    608.615    608.615
 83.070    851.773    848.576      3.197    608.354    750.742    706.265    608.354    608.354
 83.170    785.000    811.710    -26.710    608.091    734.182    685.686    608.091    608.091
 83.270    748.000    780.859    -32.859    607.827    718.526    670.218    607.827    607.827
 83.370    778.000    755.323     22.677    607.562    704.149    658.784    607.562    607.562
 83.470    725.000    734.544     -9.544    607.296    691.396    650.483    607.296    607.296
 83.570    716.000    718.092     -2.092    607.029    680.540    644.610    607.029    607.029
 83.670    684.034    705.631    -21.597    606.761    671.765    640.645    606.761    606.761
 83.770    728.879    696.877     32.002    606.491    665.155    638.223    606.491    606.491
 83.870    638.000    691.568    -53.568    606.221    660.701    637.088    606.221    606.221
 83.970    621.000    689.411    -68.411    605.949    658.302    637.051    605.949    605.949
 84.070    671.000    690.054    -19.054    605.676    657.767    637.947    605.676    605.676
 84.170    683.000    693.048    -10.048    605.403    658.822    639.604    605.403    605.403
 84.270    680.000    697.832    -17.832    605.128    661.107    641.820    605.128    605.128
 84.370    703.000    703.725     -0.725    604.852    664.188    644.349    604.852    604.852
 84.470    673.000    709.938    -36.938    604.575    667.568    646.899    604.575    604.575
 84.570    712.295    715.602     -3.307    604.297    670.706    649.142    604.297    604.297
 84.670    691.724    719.831    -28.108    604.018    673.059    650.737    604.018    604.018
 84.770    714.111    721.848     -7.737    603.738    674.149    651.383    603.738    603.738
 84.870    695.000    721.141    -26.141    603.457    673.663    650.883    603.457    603.457
 84.970    667.000    717.589    -50.589    603.175    671.516    649.199    603.175    603.175
 85.070    689.274    711.483    -22.209    602.892    667.870    646.460    602.892    602.892
 85.170    740.918    703.420     37.497    602.608    663.064    642.925    602.608    602.608
 85.270    734.539    694.136     40.404    602.323    657.518    638.907    602.323    602.323
 85.370    682.000    684.359     -2.359    602.037    651.648    634.720    602.037    602.037
 85.470    663.940    674.740    -10.799    601.750    645.815    630.650    601.750    601.750
 85.570    695.069    665.804     29.266    601.462    640.309    626.937    601.462    601.462
 85.670    646.861    657.949    -11.088    601.173    635.332    623.773    601.173    601.173
 85.770    641.000    651.446    -10.446    600.884    631.011    621.304    600.884    600.884
 85.870    644.168    646.450     -2.282    600.593    627.398    619.632    600.593    600.593
 85.970    627.149    643.026    -15.877    600.302    624.489    618.825    600.302    600.302
 86.070    630.000    641.163    -11.163    600.009    622.240    618.920    600.009    600.009
 86.170    641.920    640.802      1.118    599.716    620.582    619.923    599.716    599.716
 86.270    676.099    641.849     34.250    599.422    619.443    621.813    599.422    599.422
 86.370    625.000    644.183    -19.183    599.127    618.758    624.534    599.127    599.127
 86.470    684.937    647.663     37.274    598.831    618.483    627.990    598.831    598.831
 86.570    621.935    652.127    -30.192    598.534    618.600    632.039    598.534    598.534
 86.670    707.000    657.390     49.610    598.237    619.119    636.482    598.237    598.237
 86.770    617.300    663.244    -45.945    597.939    620.087    641.066    597.939    597.939
 86.870    651.000    669.455    -18.455    597.640    621.581    645.480    597.640    597.640
 86.970    658.000    675.775    -17.775    597.340    623.708    649.367    597.340    597.340
 87.070    686.000    681.958      4.042    597.039    626.598    652.356    597.039    597.039
 87.170    749.000    687.810     61.190    596.738    630.389    654.110    596.738    596.738
 87.270    657.000    693.239    -36.239    596.436    635.219    654.402    596.436    596.436
 87.370    648.744    698.303    -49.559    596.133    641.200    653.175    596.133    596.133
 87.470    716.000    703.190     12.810    595.829    648.397    650.555    595.829    595.829
 87.570    687.000    708.154    -21.154    595.525    656.802    646.801    595.525    595.525
 87.670    750.553    713.409     37.145    595.220    666.307    642.235    595.220    595.220
 87.770    698.861    719.051    -20.190    594.914    676.687    637.182    594.914    594.914
 87.870    766.000    725.008     40.992    594.607    687.580    631.930    594.607    594.607
 87.970    773.391    731.019     42.372    594.300    698.479    626.725    594.300    594.300
 88.070    798.000    736.634     61.366    593.993    708.740    621.762    593.993    593.993
 88.170    777.260    741.249     36.011    593.684    717.616    617.187    593.684    593.684
 88.270    791.000    744.188     46.812    593.375    724.339    613.092    593.375    593.375
 88.370    755.000    744.853     10.147    593.065    728.267    609.520    593.065    593.065
 88.470    783.000    742.899     40.101    592.755    729.057    606.472    592.755    592.755
 88.570    713.961    738.356    -24.395    592.444    726.767    603.917    592.444    592.444
 88.670    744.727    731.613     13.114    592.133    721.834    601.807    592.133    592.133
 88.770    762.000    723.304     38.696    591.821    714.950    600.084    591.821    591.821
 88.870    753.000    714.162     38.838    591.508    706.907    598.688    591.508    591.508
 88.970    719.181    704.923     14.258    591.195    698.493    597.565    591.195    591.195
 89.070    703.000    696.259      6.741    590.881    690.430    596.664    590.881    590.881
 89.170    646.016    688.744    -42.729    590.567    683.334    595.945    590.567    590.567
 89.270    656.000    682.818    -26.818    590.253    677.676    595.374    590.253    590.253
 89.370    642.205    678.765    -36.560    589.937    673.770    594.924    589.937    589.937
 89.470    609.000    676.694    -67.694    589.622    671.747    594.571    589.622    589.622
 89.570    684.000    676.541      7.459    589.306    671.563    594.295    589.306    589.306
 89.670    639.000    678.079    -39.079    588.989    673.013    594.076    588.989    588.989
 89.770    684.000    680.938      3.062    588.672    675.746    593.894    588.672    588.672
 89.870    724.000    684.629     39.371    588.355    679.292    593.730    588.355    588.355
 89.970    652.336    688.565    -36.229    588.037    683.086    593.562    588.037    588.037
 90.070    737.000    692.109     44.891    587.719    686.512    593.368    587.719    587.719
 90.170    770.000    694.627     75.373    587.400    688.960    593.126    587.400    587.400
 90.270    660.941    695.582    -34.641    587.081    689.906    592.819    587.081    587.081
 90.370    673.000    694.625    -21.625    586.762    689.014    592.437    586.762    586.762
 90.470    732.325    691.666     40.659    586.442    686.196    591.976    586.442    586.442
 90.570    670.000    686.878    -16.878    586.122    681.616    591.447    586.122    586.122
 90.670    714.000    680.628     33.372    585.802    675.627    590.862    585.802    585.802
 90.770    705.000    673.378     31.622    585.481    668.673    590.241    585.481    585.481
 90.870    663.000    665.601     -2.601    585.160    661.210    589.601    585.160    585.160
 90.970    638.000    657.728    -19.728    584.839    653.651    588.959    584.839    584.839
 91.070    660.000    650.117      9.883    584.518    646.342    588.329    584.518    584.518
 91.170    610.991    643.044    -32.053    584.196    639.550    587.721    584.196    584.196
 91.270    672.000    636.703     35.297    583.874    633.461    587.142    583.874    583.874
 91.370    598.767    631.211    -32.445    583.552    628.186    586.596    583.552    583.552
 91.470    629.000    626.615      2.385    583.230    623.773    586.087    583.230    583.230
 91.570    591.000    622.907    -31.907    582.907    620.214    585.612    582.907    582.907
 91.670    599.000    620.043    -21.043    582.585    617.465    585.171    582.585    582.585
 91.770    645.535    617.956     27.579    582.262    615.462    584.761    582.262    582.262
 91.870    648.000    616.574     31.426    581.939    614.137    584.379    581.939    581.939
 91.970    585.450    615.834    -30.384    581.616    613.428    584.023    581.616    581.616
 92.070    616.000    615.694      0.306    581.293    613.294    583.692    581.293    581.293
 92.170    638.000    616.139     21.861    580.970    613.721    583.385    580.970    580.970
 92.270    596.000    617.188    -21.188    580.647    614.727    583.104    580.647    580.647
 92.370    614.000    618.895     -4.895    580.324    616.364    582.849    580.324    580.324
 92.470    664.000    621.349     42.651    580.000    618.716    582.625    580.000    580.000
 92.570    621.000    624.667     -3.667    579.677    621.897    582.436    579.677    579.677
 92.670    626.000    628.992     -2.992    579.354    626.046    582.287    579.354    579.354
 92.770    590.698    634.482    -43.785    579.030    631.312    582.184    579.030    579.030
 92.870    673.000    641.296     31.704    578.707    637.850    582.132    578.707    578.707
 92.970    644.264    649.580     -5.317    578.384    645.804    582.136    578.384    578.384
 93.070    645.000    659.455    -14.455    578.061    655.289    582.197    578.061    578.061
 93.170    636.000    670.998    -34.998    577.738    666.381    582.318    577.738    577.738
 93.270    667.000    684.226    -17.226    577.415    679.101    582.498    577.415    577.415
 93.370    713.000    699.090     13.910    577.092    693.400    582.733    577.092    577.092
 93.470    697.000    715.458    -18.458    576.769    709.151    583.020    576.769    576.769
 93.570    711.000    733.105    -22.105    576.447    726.136    583.352    576.447    576.447
 93.670    780.134    751.715     28.420    576.124    744.044    583.724    576.124    576.124
 93.770    794.000    770.932     23.068    575.802    762.523    584.135    575.802    575.802
 93.870    757.000    790.297    -33.297    575.480    781.109    584.587    575.480    575.480
 93.970    819.000    809.375      9.625    575.158    799.357    585.090    575.158    575.158
 94.070    851.000    827.837     23.163    574.837    816.912    585.673    574.837    574.837
 94.170    783.000    845.548    -62.548    574.515    833.594    586.379    574.515    574.515
 94.270    856.000    862.613     -6.613    574.194    849.442    587.274    574.194    574.194
 94.370    886.000    879.332      6.668    573.873    864.676    588.437    573.873    573.873
 94.470    911.000    896.083     14.917    573.553    879.586    589.958    573.553    573.553
 94.570    912.000    913.190     -1.190    573.233    894.410    591.921    573.233    573.233
 94.670    944.226    930.818     13.408    572.913    909.243    594.398    572.913    572.913
 94.770    978.187    948.941     29.245    572.594    924.014    597.432    572.594    572.594
 94.870    937.000    967.381    -30.381    572.275    938.536    601.032    572.275    572.275
 94.970   1007.286    985.880     21.406    571.956    952.589    605.162    571.956    571.956
 95.070    974.000   1004.157    -30.157    571.638    965.975    609.737    571.638    571.638
 95.170   1008.000   1021.886    -13.886    571.320    978.509    614.618    571.320    571.320
 95.270   1015.000   1038.619    -23.619    571.003    989.934    619.613    571.003    571.003
 95.370   1054.000   1053.686      0.314    570.686    999.822    624.481    570.686    570.686
 95.470   1087.000   1066.156     20.844    570.370   1007.520    628.943    570.370    570.370
 95.570   1104.000   1074.875     29.125    570.054   1012.175    632.699    570.054    570.054
 95.670   1162.000   1078.598     83.402    569.738   1012.838    635.453    569.738    569.738
 95.770   1118.000   1076.239     41.761    569.424   1008.672    636.956    569.424    569.424
 95.870   1036.000   1067.139    -31.139    569.109    999.174    637.049    569.109    569.109
 95.970   1003.000   1051.287    -48.287    568.796    984.369    635.698    568.796    568.796
 96.070   1002.000   1029.395    -27.395    568.483    964.867    633.003    568.483    568.483
 96.170   1009.000   1002.787      6.213    568.170    941.784    629.173    568.170    568.170
 96.270   1022.968    973.188     49.780    567.859    916.565    624.487    567.859    567.859
 96.370    895.080    942.497    -47.417    567.548    890.805    619.247    567.548    567.548
 96.470    947.000    912.622     34.378    567.237    866.117    613.751    567.237    567.237
 96.570    917.909    885.374     32.535    566.928    844.045    608.264    566.928    566.928
 96.670    868.000    862.410      5.590    566.619    826.023    603.011    566.619    566.619
 96.770    833.086    845.199    -12.113    566.310    813.346    598.164    566.310    566.310
 96.870    861.776    835.002     26.774    566.003    807.154    593.846    566.003    566.003
 96.970    882.000    832.861     49.139    565.696    808.417    590.129    565.696    565.696
 97.070    816.000    839.594    -23.594    565.391    817.925    587.040    565.391    565.391
 97.170    857.000    855.778      1.222    565.086    836.264    584.571    565.086    565.086
 97.270    910.000    881.699     28.301    564.781    863.757    582.686    564.781    564.781
 97.370    928.000    917.511     10.489    564.478    900.605    581.336    564.478    564.478
 97.470    933.526    962.954    -29.428    564.176    946.609    580.462    564.176    564.176
 97.570   1015.000   1017.420     -2.420    563.874   1001.228    579.998    563.874    563.874
 97.670   1063.000   1079.940    -16.940    563.574   1063.558    579.879    563.574    563.574
 97.770   1160.000   1149.104     10.896    563.274   1132.254    580.039    563.274    563.274
 97.870   1267.080   1223.011     44.069    562.975   1205.486    580.410    562.975    562.975
 97.970   1301.000   1299.262      1.738    562.678   1280.925    580.920    562.678    562.678
 98.070   1419.126   1374.948     44.177    562.381   1355.740    581.494    562.381    562.381
 98.170   1435.808   1446.695    -10.887    562.086   1426.634    582.054    562.086    562.086
 98.270   1582.000   1510.781     71.219    561.791   1489.969    582.517    561.791    561.791
 98.370   1552.000   1563.389    -11.389    561.498   1542.010    582.802    561.498    561.498
 98.470   1629.000   1601.030     27.970    561.205   1579.339    582.836    561.205    561.205
 98.570   1647.268   1621.077     26.191    560.914   1599.385    582.564    560.914    560.914
 98.670   1567.126   1622.277    -55.151    560.624   1600.918    581.961    560.624    560.624
 98.770   1577.908   1605.002    -27.093    560.335   1584.302    581.032    560.335    560.335
 98.870   1547.876   1571.140    -23.265    560.047   1551.390    579.814    560.047    560.047
 98.970   1514.000   1523.701     -9.701    559.761   1505.129    578.365    559.761    559.761
 99.070   1460.000   1466.304     -6.304    559.475   1449.070    576.753    559.475    559.475
 99.170   1338.620   1402.747    -64.127    559.191   1386.938    575.052    559.191    559.191
 99.270   1383.546   1336.696     46.850    558.909   1322.332    573.329    558.909    558.909
 99.370   1307.160   1271.503     35.657    558.627   1258.542    571.645    558.627    558.627
 99.470   1151.525   1210.112    -58.587    558.347   1198.459    570.054    558.347    558.347
 99.570   1163.000   1155.021      7.979    558.068   1144.539    568.600    558.068    558.068
 99.670   1114.000   1108.289      5.711    557.791   1098.806    567.316    557.791    557.791
 99.770   1093.000   1071.567     21.433    557.515   1062.888    566.229    557.515    557.515
 99.870   1069.280   1046.137     23.143    557.240   1038.050    565.353    557.240    557.240
 99.970   1070.000   1032.942     37.058    556.967   1025.230    564.696    556.967    556.967
100.070    978.000   1032.607    -54.607    556.695   1025.053    564.258    556.695    556.695
100.170   1062.000   1045.453     16.547    556.425   1037.847    564.033    556.425    556.425
100.270   1128.000   1071.502     56.498    556.157   1063.648    564.007    556.157    556.157
100.370   1142.361   1110.483     31.878    555.889   1102.203    564.161    555.889    555.889
100.470   1178.716   1161.829     16.887    555.624   1152.970    564.472    555.624    555.624
100.570   1253.000   1224.669     28.331    555.360   1215.107    564.910    555.360    555.360
100.670   1363.491   1297.805     65.687    555.097   1287.448    565.445    555.097    555.097
100.770   1375.000   1379.671     -4.671    554.837   1368.465    566.039    554.837    554.837
100.870   1507.689   1468.368     39.321    554.577   1456.298    566.653    554.577    554.577
100.970   1645.000   1561.570     83.430    554.320   1548.664    567.244    554.320    554.320
101.070   1612.256   1656.583    -44.327    554.064   1642.910    567.769    554.064    554.064
101.170   1713.633   1750.455    -36.822    553.810   1736.129    568.187    553.810    553.810
101.270   1779.617   1840.163    -60.546    553.558   1825.331    568.462    553.558    553.558
101.370   1857.879   1922.868    -64.989    553.307   1907.703    568.568    553.307    553.307
101.470   1989.000   1996.161     -7.161    553.058   1980.845    568.494    553.058    553.058
101.570   2091.742   2058.190     33.552    552.812   2042.898    568.247    552.812    552.812
101.670   2107.000   2107.610     -0.610    552.567   2092.494    567.849    552.567    552.567
101.770   2188.473   2143.392     45.081    552.323   2128.570    567.333    552.323    552.323
101.870   2140.714   2164.629    -23.915    552.082   2150.178    566.739    552.082    552.082
101.970   2118.694   2170.472    -51.778    551.843   2156.428    566.108    551.843    551.843
102.070   2111.000   2160.280    -49.280    551.605   2146.642    565.476    551.605    551.605
102.170   2216.853   2133.952     82.901    551.370   2120.687    564.878    551.370    551.370
102.270   2103.000   2092.297     10.703    551.136   2079.342    564.339    551.136    551.136
102.370   1956.779   2037.233    -80.454    550.905   2024.506    563.881    550.905    550.905
102.470   1890.691   1971.694    -81.003    550.676   1959.100    563.514    550.676    550.676
102.570   1948.451   1899.262     49.189    550.448   1886.704    563.244    550.448    550.448
102.670   1834.990   1823.678     11.312    550.223   1811.063    563.066    550.223    550.223
102.770   1734.000   1748.392    -14.392    550.000   1735.642    562.966    550.000    550.000
102.870   1690.706   1676.266     14.440    549.779   1663.324    562.923    549.779    549.779
102.970   1582.000   1609.415    -27.415    549.560   1596.249    562.914    549.560    549.560
103.070   1538.000   1549.169    -11.169    549.344   1535.776    562.911    549.344    549.344
103.170   1464.000   1496.090    -32.090    549.129   1482.493    562.888    549.129    549.129
103.270   1466.575   1450.028     16.547    548.917   1436.274    562.822    548.917    548.917
103.370   1365.000   1410.198    -45.198    548.708   1396.354    562.693    548.708    548.708
103.470   1314.000   1375.287    -61.287    548.500   1361.437    562.484    548.500    548.500
103.570   1382.319   1343.625     38.693    548.295   1329.870    562.178    548.295    548.295
103.670   1229.000   1313.367    -84.367    548.092   1299.822    561.762    548.092    548.092
103.770   1296.000   1282.764     13.236    547.892   1269.550    561.227    547.892    547.892
103.870   1227.000   1250.408    -23.408    547.694   1237.651    560.570    547.694    547.694
103.970   1289.000   1215.416     73.584    547.498   1203.233    559.798    547.498    547.498
104.070   1188.000   1177.495     10.505    547.305   1165.990    558.925    547.305    547.305
104.170   1143.000   1136.880      6.120    547.115   1126.132    557.973    547.115    547.115
104.270   1069.000   1094.183    -25.183    546.927   1084.250    556.966    546.927    546.927
104.370   1067.316   1050.237     17.079    546.741   1041.146    555.932    546.741    546.741
104.470    918.000   1005.946    -87.946    546.559    997.705    554.894    546.559    546.559
104.570    911.061    962.200    -51.139    546.378    954.791    553.874    546.378    546.378
104.670    910.706    919.809     -9.103    546.201    913.199    552.889    546.201    546.201
104.770    878.000    879.472     -1.472    546.026    873.614    551.955    546.026    546.026
104.870    895.851    841.756     54.095    545.853    836.593    551.080    545.853    545.853
104.970    789.000    807.075    -18.075    545.684    802.549    550.266    545.684    545.684
105.070    814.592    775.718     38.874    545.517    771.763    549.521    545.517    545.517
105.170    768.000    747.859     20.141    545.353    744.400    548.853    545.353    545.353
105.270    813.000    723.493     89.507    545.192    720.464    548.257    545.192    545.192
105.370    684.011    702.524    -18.514    545.034    699.860    547.727    545.034    545.034
105.470    707.000    684.773     22.227    544.878    682.416    547.259    544.878    544.878
105.570    662.000    669.999     -7.999    544.725    667.896    546.848    544.725    544.725
105.670    632.294    657.926    -25.632    544.576    656.029    546.488    544.576    544.576
105.770    697.000    648.265     48.735    544.429    646.533    546.173    544.429    544.429
105.870    667.000    640.733     26.267    544.285    639.130    545.897    544.285    544.285
105.970    617.287    635.068    -17.781    544.145    633.563    545.656    544.145    544.145
106.070    692.000    631.041     60.959    544.007    629.606    545.445    544.007    544.007
106.170    642.000    628.461     13.539    543.872    627.073    545.261    543.872    543.872
106.270    665.663    627.177     38.486    543.741    625.816    545.100    543.741    543.741
106.370    623.516    627.078     -3.562    543.612    625.727    544.960    543.612    543.612
106.470    635.000    628.091      6.909    543.487    626.733    544.840    543.487    543.487
106.570    664.000    630.172     33.828    543.365    628.791    544.738    543.365    543.365
106.670    628.000    633.303     -5.303    543.246    631.884    544.654    543.246    543.246
106.770    695.000    637.482     57.518    543.130    636.011    544.588    543.130    543.130
106.870    616.230    642.718    -26.488    543.018    641.180    544.539    543.018    543.018
106.970    624.360    649.021    -24.661    542.909    647.403    544.508    542.909    542.909
107.070    684.424    656.397     28.028    542.803    654.684    544.494    542.803    542.803
107.170    692.000    664.836     27.164    542.701    663.014    544.496    542.701    542.701
107.270    689.780    674.306     15.474    542.602    672.363    544.516    542.602    542.602
107.370    710.000    684.742     25.258    542.507    682.665    544.551    542.507    542.507
107.470    694.000    696.039     -2.039    542.415    693.816    544.601    542.415    542.415
107.570    737.587    708.045     29.542    542.326    705.669    544.662    542.326    542.326
107.670    729.108    720.562      8.547    542.241    718.027    544.732    542.241    542.241
107.770    721.000    733.343    -12.343    542.160    730.648    544.809    542.160    542.160
107.870    756.000    746.097      9.903    542.082    743.244    544.886    542.082    542.082
107.970    808.476    758.493     49.983    542.007    755.491    544.960    542.007    542.007
108.070    821.169    770.174     50.994    541.937    767.035    545.026    541.937    541.937
108.170    789.088    780.776      8.313    541.870    777.518    545.077    541.870    541.870
108.270    800.000    789.953     10.047    541.807    786.600    545.109    541.807    541.807
108.370    798.000    797.422      0.578    541.747    794.004    545.117    541.747    541.747
108.470    771.000    803.003    -32.003    541.691    799.550    545.098    541.691    541.691
108.570    838.354    806.654     31.700    541.639    803.199    545.051    541.639    541.639
108.670    797.586    808.484    -10.898    541.591    805.060    544.977    541.591    541.591
108.770    770.000    808.750    -38.750    541.547    805.384    544.878    541.547    541.547
108.870    751.000    807.815    -56.815    541.507    804.532    544.759    541.507    541.507
108.970    781.000    806.101    -25.101    541.470    802.919    544.625    541.470    541.470
109.070    797.000    804.040     -7.040    541.438    800.973    544.483    541.438    541.438
109.170    764.000    802.031    -38.031    541.410    799.086    544.337    541.410    541.410
109.270    797.547    800.409     -2.862    541.385    797.588    544.193    541.385    541.385
109.370    750.000    799.425    -49.425    541.365    796.726    544.056    541.365    541.365
109.470    762.000    799.233    -37.233    541.349    796.649    543.928    541.349    541.349
109.570    821.000    799.882     21.118    541.337    797.405    543.813    541.337    541.337
109.670    763.394    801.317    -37.924    541.329    798.938    543.711    541.329    541.329
109.770    832.415    803.379     29.035    541.325    801.087    543.624    541.325    541.325
109.870    826.203    805.810     20.393    541.325    803.595    543.551    541.325    541.325
109.970    772.875    808.267    -35.392    541.330    806.120    543.491    541.330    541.330
110.070    757.000    810.344    -53.344    541.339    808.258    543.442    541.339    541.339
110.170    821.000    811.601      9.399    541.352    809.573    543.401    541.352    541.352
110.270    765.000    811.613    -46.613    541.370    809.641    543.366    541.370    541.370
110.370    787.000    810.005    -23.005    541.392    808.099    543.323    541.392    541.392
110.470    761.815    806.549    -44.734    541.419    804.706    543.289    541.419    541.419
110.570    808.000    801.141      6.859    541.450    799.359    543.261    541.450    541.450
110.670    854.000    793.828     60.172    541.485    792.110    543.234    541.485    541.485
110.770    775.000    784.799     -9.799    541.525    783.148    543.207    541.525    541.525
110.870    793.000    774.344     18.656    541.570    772.763    543.181    541.570    541.570
110.970    743.000    762.814    -19.814    541.619    761.304    543.158    541.619    541.619
111.070    747.000    750.576     -3.576    541.673    749.138    543.139    541.673    541.673
111.170    731.000    737.990     -6.990    541.732    736.622    543.125    541.732    541.732
111.270    785.000    725.383     59.617    541.795    724.083    543.119    541.795    541.795
111.370    683.000    713.062    -30.062    541.863    711.826    543.120    541.863    541.863
111.470    685.000    701.278    -16.278    541.935    700.102    543.131    541.935    541.935
111.570    692.000    690.234      1.766    542.013    689.112    543.151    542.013    542.013
111.670    661.000    680.090    -19.090    542.095    679.017    543.183    542.095    542.095
111.770    649.000    670.960    -21.960    542.183    669.929    543.226    542.183    542.183
111.870    665.000    662.915      2.085    542.275    661.919    543.280    542.275    542.275
111.970    638.189    655.986    -17.798    542.372    655.019    543.346    542.372    542.372
112.070    671.336    650.170     21.166    542.474    649.225    543.424    542.474    542.474
112.170    674.988    645.432     29.556    542.581    644.503    543.513    542.581    542.581
112.270    627.000    641.715    -14.715    542.694    640.796    543.613    542.694    542.694
112.370    616.279    638.948    -22.669    542.811    638.035    543.723    542.811    542.811
112.470    659.000    637.045     21.955    542.933    636.133    543.843    542.933    542.933
112.570    602.398    635.917    -33.519    543.061    635.002    543.972    543.061    543.061
112.670    612.000    635.471    -23.471    543.194    634.550    544.109    543.194    543.194
112.770    631.727    635.620     -3.894    543.332    634.691    544.255    543.332    543.332
112.870    680.000    636.283     43.717    543.475    635.343    544.407    543.475    543.475
112.970    619.000    637.386    -18.386    543.624    636.435    544.566    543.624    543.624
113.070    651.000    638.867     12.133    543.778    637.905    544.731    543.778    543.778
113.170    645.108    640.678      4.430    543.937    639.704    544.901    543.937    543.937
113.270    618.000    642.783    -24.783    544.102    641.798    545.077    544.102    544.102
113.370    652.256    645.162      7.094    544.272    644.165    545.259    544.272    544.272
113.470    599.000    647.811    -48.811    544.448    646.802    545.446    544.448    544.448
113.570    614.674    650.741    -36.067    544.629    649.720    545.640    544.629    544.629
113.670    648.000    653.982     -5.982    544.816    652.947    545.840    544.816    544.816
113.770    659.000    657.579      1.421    545.009    656.528    546.047    545.009    545.009
113.870    667.000    661.598      5.402    545.207    660.529    546.264    545.207    545.207
113.970    677.000    666.128     10.872    545.410    665.036    546.490    545.410    545.410
114.070    706.971    671.284     35.687    545.620    670.164    546.726    545.620    545.620
114.170    643.000    677.216    -34.216    545.835    676.061    546.976    545.835    545.835
114.270    733.000    684.115     48.885    546.056    682.916    547.239    546.056    546.056
114.370    746.000    692.224     53.776    546.283    690.971    547.519    546.283    546.283
114.470    702.000    701.852      0.148    546.516    700.532    547.817    546.516    546.516
114.570    685.000    713.383    -28.383    546.755    711.981    548.135    546.755    546.755
114.670    759.950    727.297     32.653    547.000    725.795    548.476    547.000    547.000
114.770    761.983    744.185     17.799    547.250    742.561    548.843    547.250    547.250
114.870    751.000    764.763    -13.763    547.507    762.994    549.239    547.507    547.507
114.970    820.000    789.894     30.106    547.770    787.953    549.668    547.770    547.770
115.070    820.000    820.605     -0.605    548.039    818.459    550.132    548.039    548.039
115.170    801.000    858.091    -57.091    548.314    855.706    550.636    548.314    548.314
115.270    931.000    903.734     27.266    548.595    901.070    551.183    548.595    548.595
115.370    931.000    959.095    -28.095    548.882    956.109    551.777    548.882    548.882
115.470   1006.000   1025.913    -19.913    549.176   1022.556    552.422    549.176    549.176
115.570   1104.000   1106.078     -2.078    549.476   1102.301    553.121    549.476    549.476
115.670   1157.000   1201.607    -44.607    549.782   1197.353    553.879    549.782    549.782
115.770   1314.000   1314.587     -0.587    550.095   1309.798    554.697    550.095    550.095
115.870   1468.838   1447.118     21.720    550.414   1441.734    555.578    550.414    550.414
115.970   1675.000   1601.226     73.774    550.740   1595.185    556.524    550.740    550.740
116.070   1817.000   1778.774     38.226    551.072   1772.015    557.535    551.072    551.072
116.170   2126.000   1981.349    144.651    551.411   1973.809    558.611    551.411    551.411
116.270   2306.000   2210.141     95.859    551.756   2201.762    559.749    551.756    551.756
116.370   2531.304   2465.823     65.481    552.108   2456.551    560.946    552.108    552.108
116.470   2821.000   2748.428     72.572    552.466   2738.214    562.197    552.466    552.466
116.570   2990.349   3057.228    -66.880    552.832   3046.034    563.494    552.832    552.832
116.670   3491.765   3390.640    101.124    553.204   3378.436    564.829    553.204    553.204
116.770   3785.684   3746.124     39.560    553.582   3732.894    566.190    553.582    553.582
116.870   4121.000   4120.165      0.835    553.968   4105.904    567.566    553.968    553.968
116.970   4466.000   4508.298    -42.298    554.361   4493.017    568.946    554.361    554.361
117.070   4998.458   4904.956     93.502    554.760   4888.679    570.317    554.760    554.760
117.170   5347.946   5303.642     44.304    555.166   5286.408    571.665    555.166    555.166
117.270   5788.000   5696.983     91.017    555.580   5678.845    572.978    555.580    555.580
117.370   6153.000   6076.842     76.158    556.000   6057.867    574.245    556.000    556.000
117.470   6496.932   6434.497     62.434    556.428   6414.766    575.452    556.428    556.428
117.570   6799.597   6760.873     38.724    556.862   6740.477    576.588    556.862    556.862
117.670   7152.265   7046.871    105.394    557.304   7025.918    577.639    557.304    557.304
117.770   7194.000   7283.803    -89.803    557.753   7262.412    578.595    557.753    557.753
117.870   7454.463   7463.924     -9.460    558.209   7442.222    579.442    558.209    558.209
117.970   7515.353   7581.012    -65.659    558.673   7559.135    580.173    558.673    558.673
118.070   7562.000   7630.936    -68.936    559.143   7609.022    580.780    559.143    559.143
118.170   7742.000   7612.066    129.934    559.622   7590.254    581.261    559.622    559.622
118.270   7427.000   7525.448    -98.448    560.107   7503.869    581.617    560.107    560.107
118.370   7318.000   7374.682    -56.682    560.600   7353.461    581.852    560.600    560.600
118.470   7050.322   7165.551   -115.230    561.101   7144.800    581.974    561.101    561.101
118.570   6741.000   6905.474   -164.474    561.609   6885.291    581.994    561.609    561.609
118.670   6548.000   6602.914    -54.914    562.125   6583.387    581.923    562.125    562.125
118.770   6014.000   6266.832   -252.832    562.648   6248.033    581.775    562.648    562.648
118.870   5682.000   5906.231   -224.231    563.179   5888.218    581.560    563.179    563.179
118.970   5376.000   5529.802   -153.802    563.718   5512.623    581.294    563.718    563.718
119.070   5280.532   5145.676    134.856    564.264   5129.365    580.988    564.264    564.264
119.170   4745.515   4761.233    -15.718    564.818   4745.812    580.657    564.818    564.818
119.270   4336.005   4382.978    -46.973    565.381   4368.455    580.314    565.381    565.381
119.370   4085.589   4016.457     69.132    565.951   4002.831    579.972    565.951    565.951
119.470   3581.000   3666.212    -85.212    566.529   3653.469    579.645    566.529    566.529
119.570   3378.978   3335.781     43.196    567.114   3323.898    579.344    567.114    567.114
119.670   3079.000   3027.724     51.276    567.708   3016.668    579.080    567.708    567.708
119.770   2771.762   2743.687     28.074    568.310   2733.416    578.862    568.310    568.310
119.870   2497.881   2484.494     13.388    568.921   2474.961    578.699    568.921    568.921
119.970   2173.173   2250.253    -77.081    569.539   2241.406    578.598    569.539    569.539
120.070   1977.000   2040.477    -63.477    570.165   2032.257    578.563    570.165    570.165
120.170   1836.000   1854.200    -18.200    570.800   1846.546    578.601    570.800    570.800
120.270   1677.000   1690.093    -13.093    571.443   1682.941    578.713    571.443    571.443
120.370   1577.000   1546.570     30.430    572.095   1539.854    578.902    572.095    572.095
120.470   1375.402   1421.883    -46.481    572.754   1415.536    579.171    572.754    572.754
120.570   1294.000   1314.206    -20.206    573.423   1308.158    579.520    573.423    573.423
120.670   1285.184   1221.702     63.482    574.099   1215.886    579.950    574.099    574.099
120.770   1132.057   1142.588    -10.531    574.784   1136.933    580.462    574.784    574.784
120.870   1128.000   1075.176     52.824    575.478   1069.611    581.056    575.478    575.478
120.970   1076.412   1017.904     58.508    576.181   1012.357    581.731    576.181    576.181
121.070    980.686    969.358     11.328    576.892    963.759    582.490    576.892    576.892
121.170    915.000    928.283    -13.283    577.611    922.557    583.332    577.611    577.611
121.270    936.859    893.579     43.280    578.340    887.653    584.259    578.340    578.340
121.370    832.000    864.301    -32.301    579.077    858.100    585.271    579.077    579.077
121.470    858.000    839.643     18.357    579.823    833.089    586.369    579.823    579.823
121.570    863.000    818.927     44.073    580.578    811.941    587.557    580.578    580.578
121.670    748.000    801.587    -53.587    581.342    794.089    588.835    581.342    581.342
121.770    746.000    787.154    -41.154    582.115    779.060    590.205    582.115    582.115
121.870    785.000    775.240      9.760    582.897    766.464    591.670    582.897    582.897
121.970    754.000    765.526    -11.526    583.688    755.981    593.231    583.688    583.688
122.070    750.687    757.748     -7.061    584.488    747.345    594.891    584.488    584.488
122.170    762.000    751.687     10.313    585.297    740.335    596.651    585.297    585.297
122.270    724.000    747.161    -23.161    586.116    734.769    598.511    586.116    586.116
122.370    751.000    744.014      6.986    586.944    730.490    600.472    586.944    586.944
122.470    716.401    742.112    -25.711    587.781    727.365    602.534    587.781    587.781
122.570    765.934    741.338     24.596    588.627    725.277    604.696    588.627    588.627
122.670    778.439    741.587     36.852    589.483    724.123    606.956    589.483    589.483
122.770    674.000    742.758    -68.758    590.348    723.806    609.311    590.348    590.348
122.870    703.419    744.759    -41.340    591.223    724.238    611.757    591.223    591.223
122.970    748.816    747.494      1.321    592.107    725.332    614.285    592.107    592.107
123.070    785.830    750.872     34.958    593.001    727.004    616.887    593.001    593.001
123.170    695.000    754.794    -59.794    593.905    729.169    619.550    593.905    593.905
123.270    736.000    759.159    -23.159    594.818    731.741    622.259    594.818    594.818
123.370    717.160    763.861    -46.702    595.741    734.631    624.996    595.741    595.741
123.470    818.379    768.787     49.591    596.674    737.750    627.740    596.674    596.674
123.570    791.000    773.819     17.181    597.617    741.003    630.464    597.617    597.617
123.670    790.165    778.832     11.333    598.570    744.293    633.142    598.570    598.570
123.770    771.000    783.695    -12.695    599.532    747.521    635.743    599.532    599.532
123.870    771.727    788.277    -16.550    600.505    750.586    638.236    600.505    600.505
123.970    853.000    792.444     60.556    601.487    753.388    640.587    601.487    601.487
124.070    792.000    796.065     -4.065    602.480    755.827    642.764    602.480    602.480
124.170    768.350    799.015    -30.665    603.483    757.813    644.734    603.483    603.483
124.270    771.219    801.183    -29.964    604.495    759.261    646.470    604.495    604.495
124.370    751.387    802.461    -51.075    605.519    760.088    647.947    605.519    605.519
124.470    817.000    802.794     14.206    606.552    760.254    649.149    606.552    606.552
124.570    787.000    802.179    -15.179    607.596    759.765    650.069    607.596    607.596
124.670    862.000    800.588     61.412    608.650    758.592    650.707    608.650    608.650
124.770    822.547    798.048     24.499    609.715    756.754    651.070    609.715    609.715
124.870    787.338    794.615     -7.277    610.790    754.290    651.177    610.790    610.790
124.970    844.000    790.372     53.628    611.876    751.259    651.051    611.876    611.876
