neutron_powder_diffraction_0071
R_wp: 4.751
Temperature (K): 749.815
Counts: 83304.00
Wavelength (Ã…): 2.52098
COMMENTS
Test file for demonstrating the .xyy file format in Reel1.0
END OF HEADER
   tth       Y_obs     Y_calc      Y_res    Background    Phase_1_Nuc    Phase_1_Mag    Phase_2_Nuc    Phase_2_Mag
  9.970    574.442    608.176    -33.734    607.073    608.175    607.073    607.073    607.073
 10.070    670.000    609.150     60.850    607.959    609.149    607.959    607.959    607.959
 10.170    709.000    610.121     98.879    608.829    610.120    608.829    608.829    608.829
 10.270    678.000    611.091     66.909    609.684    611.090    609.684    609.684    609.684
 10.370    678.000    612.064     65.936    610.524    612.063    610.524    610.524    610.524
 10.470    688.000    613.045     74.955    611.348    613.044    611.348    611.348    611.348
 10.570    621.000    614.038      6.962    612.158    614.037    612.158    612.158    612.158
 10.670    681.000    615.050     65.950    612.953    615.049    612.953    612.953    612.953
 10.770    638.000    616.122     21.878    613.732    616.120    613.732    613.732    613.732
 10.870    592.397    617.325    -24.928    614.497    617.324    614.497    614.497    614.497
 10.970    678.000    618.470     59.530    615.248    618.468    615.248    615.248    615.248
 11.070    620.961    619.679      1.282    615.984    619.678    615.984    615.984    615.984
 11.170    646.360    620.999     25.361    616.705    620.997    616.705    616.705    616.705
 11.270    642.093    622.477     19.616    617.413    622.475    617.413    617.413    617.413
 11.370    672.000    624.193     47.807    618.106    624.190    618.106    618.106    618.106
 11.470    664.000    626.305     37.695    618.785    626.301    618.785    618.785    618.785
 11.570    630.000    629.176      0.824    619.450    629.171    619.450    619.450    619.450
 11.670    640.966    633.678      7.288    620.101    633.670    620.101    620.101    620.101
 11.770    698.000    641.626     56.374    620.739    641.614    620.739    620.739    620.739
 11.870    715.761    655.933     59.829    621.363    655.914    621.363    621.363    621.363
 11.970    768.000    679.565     88.435    621.973    679.534    621.973    621.973    621.973
 12.070    723.000    712.624     10.376    622.570    712.575    622.570    622.570    622.570
 12.170    735.546    747.797    -12.251    623.154    747.728    623.154    623.154    623.154
 12.270    729.343    767.740    -38.397    623.725    767.661    623.725    623.725    623.725
 12.370    768.096    758.252      9.843    624.282    758.178    624.282    624.282    624.282
 12.470    753.000    727.580     25.420    624.826    727.523    624.826    624.826    624.826
 12.570    711.084    693.842     17.242    625.358    693.804    625.358    625.358    625.358
 12.670    638.000    667.803    -29.803    625.877    667.780    625.877    625.877    625.877
 12.770    602.000    651.531    -49.531    626.383    651.517    626.383    626.383    626.383
 12.870    633.000    642.734     -9.734    626.876    642.725    626.876    626.876    626.876
 12.970    600.000    638.328    -38.328    627.357    638.322    627.357    627.357    627.357
 13.070    587.741    636.103    -48.362    627.825    636.099    627.825    627.825    627.825
 13.170    580.499    634.897    -54.398    628.282    634.893    628.282    628.282    628.282
 13.270    627.010    634.215     -7.205    628.726    634.212    628.726    628.726    628.726
 13.370    608.018    633.806    -25.787    629.158    633.803    629.158    629.158    629.158
 13.470    679.000    633.576     45.424    629.578    633.574    629.578    629.578    629.578
 13.570    657.000    633.473     23.527    629.986    633.471    629.986    629.986    629.986
 13.670    607.000    633.462    -26.462    630.382    633.460    630.382    630.382    630.382
 13.770    627.000    633.516     -6.516    630.767    633.515    630.767    630.767    630.767
 13.870    587.000    633.619    -46.619    631.140    633.618    631.140    631.140    631.140
 13.970    598.627    633.761    -35.134    631.501    633.760    631.501    631.501    631.501
 14.070    641.454    633.923      7.530    631.852    633.923    631.852    631.852    631.852
 14.170    618.000    634.103    -16.103    632.190    634.102    632.190    632.190    632.190
 14.270    633.926    634.295     -0.370    632.518    634.294    632.518    632.518    632.518
 14.370    638.000    634.495      3.505    632.835    634.495    632.835    632.835    632.835
 14.470    621.511    634.700    -13.189    633.140    634.700    633.140    633.140    633.140
 14.570    612.000    634.908    -22.908    633.435    634.907    633.435    633.435    633.435
 14.670    663.268    635.115     28.152    633.718    635.115    633.718    633.718    633.718
 14.770    644.000    635.322      8.678    633.991    635.321    633.991    633.991    633.991
 14.870    606.132    635.526    -29.393    634.254    635.525    634.254    634.254    634.254
 14.970    670.609    635.728     34.881    634.506    635.728    634.506    634.506    634.506
 15.070    603.000    635.953    -32.953    634.747    635.952    634.747    634.747    634.747
 15.170    624.000    636.199    -12.199    634.978    636.199    634.978    634.978    634.978
 15.270    589.000    636.391    -47.391    635.199    636.390    635.199    635.199    635.199
 15.370    690.635    636.569     54.066    635.409    636.569    635.409    635.409    635.409
 15.470    633.000    636.742     -3.742    635.610    636.741    635.610    635.610    635.610
 15.570    613.052    636.907    -23.854    635.800    636.906    635.800    635.800    635.800
 15.670    586.000    637.065    -51.065    635.981    637.064    635.981    635.981    635.981
 15.770    650.119    637.217     12.903    636.152    637.216    636.152    636.152    636.152
 15.870    611.887    637.367    -25.480    636.313    637.367    636.313    636.313    636.313
 15.970    685.853    637.509     48.344    636.464    637.509    636.464    636.464    636.464
 16.070    603.000    637.645    -34.645    636.606    637.645    636.606    636.606    636.606
 16.170    629.000    637.766     -8.766    636.738    637.766    636.738    636.738    636.738
 16.270    594.087    637.881    -43.793    636.861    637.881    636.861    636.861    636.861
 16.370    633.000    638.019     -5.019    636.975    638.019    636.975    636.975    636.975
 16.470    652.849    638.151     14.698    637.080    638.151    637.080    637.080    637.080
 16.570    608.000    638.242    -30.242    637.175    638.242    637.175    637.175    637.175
 16.670    655.132    638.323     16.808    637.261    638.323    637.261    637.261    637.261
 16.770    584.000    638.396    -54.396    637.339    638.395    637.339    637.339    637.339
 16.870    672.300    638.462     33.837    637.407    638.462    637.407    637.407    637.407
 16.970    633.000    638.542     -5.542    637.467    638.542    637.467    637.467    637.467
 17.070    606.000    638.598    -32.598    637.518    638.598    637.518    637.518    637.518
 17.170    649.748    638.650     11.098    637.561    638.650    637.561    637.561    637.561
 17.270    602.000    638.687    -36.687    637.595    638.687    637.595    637.595    637.595
 17.370    549.000    638.713    -89.713    637.621    638.713    637.621    637.621    637.621
 17.470    601.000    638.731    -37.731    637.638    638.731    637.638    637.638    637.638
 17.570    618.000    638.741    -20.741    637.647    638.741    637.647    637.647    637.647
 17.670    590.000    638.743    -48.743    637.648    638.743    637.648    637.648    637.648
 17.770    647.124    638.739      8.385    637.640    638.739    637.640    637.640    637.640
 17.870    578.000    638.732    -60.732    637.625    638.731    637.625    637.625    637.625
 17.970    625.211    638.741    -13.530    637.602    638.741    637.602    637.602    637.602
 18.070    618.281    638.734    -20.453    637.570    638.734    637.570    637.570    637.570
 18.170    624.000    638.724    -14.724    637.532    638.724    637.532    637.532    637.532
 18.270    607.000    638.693    -31.693    637.485    638.693    637.485    637.485    637.485
 18.370    598.500    638.666    -40.166    637.431    638.666    637.431    637.431    637.431
 18.470    672.391    638.646     33.746    637.369    638.645    637.369    637.369    637.369
 18.570    674.577    638.623     35.955    637.300    638.622    637.300    637.300    637.300
 18.670    594.000    638.565    -44.565    637.223    638.565    637.223    637.223    637.223
 18.770    627.000    638.518    -11.518    637.139    638.518    637.139    637.139    637.139
 18.870    630.000    638.438     -8.438    637.048    638.438    637.048    637.048    637.048
 18.970    656.507    638.354     18.154    636.950    638.353    636.950    636.950    636.950
 19.070    627.321    638.298    -10.977    636.844    638.298    636.844    636.844    636.844
 19.170    631.000    638.211     -7.211    636.732    638.211    636.732    636.732    636.732
 19.270    599.000    638.105    -39.105    636.613    638.105    636.613    636.613    636.613
 19.370    592.000    637.991    -45.991    636.486    637.991    636.486    636.486    636.486
 19.470    584.340    637.871    -53.532    636.353    637.871    636.353    636.353    636.353
 19.570    610.000    637.745    -27.745    636.214    637.745    636.214    636.214    636.214
 19.670    613.000    637.614    -24.614    636.068    637.614    636.068    636.068    636.068
 19.770    627.000    637.484    -10.484    635.915    637.484    635.915    635.915    635.915
 19.870    610.000    637.343    -27.343    635.756    637.343    635.756    635.756    635.756
 19.970    560.000    637.202    -77.202    635.590    637.202    635.590    635.590    635.590
 20.070    550.000    637.051    -87.051    635.418    637.051    635.418    635.418    635.418
 20.170    626.061    636.893    -10.832    635.240    636.893    635.240    635.240    635.240
 20.270    590.000    636.728    -46.728    635.055    636.728    635.055    635.055    635.055
 20.370    620.000    636.558    -16.558    634.865    636.558    634.865    634.865    634.865
 20.470    644.773    636.382      8.391    634.668    636.382    634.668    634.668    634.668
 20.570    625.000    636.201    -11.201    634.466    636.201    634.466    634.466    634.466
 20.670    603.000    636.015    -33.015    634.258    636.015    634.258    634.258    634.258
 20.770    581.000    635.827    -54.827    634.043    635.827    634.043    634.043    634.043
 20.870    591.441    635.633    -44.193    633.823    635.633    633.823    633.823    633.823
 20.970    605.948    635.434    -29.486    633.598    635.434    633.598    633.598    633.598
 21.070    586.940    635.230    -48.290    633.366    635.230    633.366    633.366    633.366
 21.170    631.502    635.022     -3.519    633.130    635.022    633.130    633.130    633.130
 21.270    625.000    634.810     -9.810    632.887    634.810    632.887    632.887    632.887
 21.370    597.000    634.595    -37.595    632.640    634.595    632.640    632.640    632.640
 21.470    680.101    634.376     45.725    632.387    634.376    632.387    632.387    632.387
 21.570    608.000    634.154    -26.154    632.128    634.154    632.128    632.128    632.128
 21.670    595.000    633.929    -38.929    631.865    633.929    631.865    631.865    631.865
 21.770    655.995    633.702     22.293    631.596    633.702    631.596    631.596    631.596
 21.870    598.673    633.472    -34.799    631.323    633.472    631.323    631.323    631.323
 21.970    594.000    633.240    -39.240    631.044    633.240    631.044    631.044    631.044
 22.070    617.000    633.007    -16.007    630.760    633.008    630.760    630.760    630.760
 22.170    574.000    632.775    -58.775    630.472    632.775    630.472    630.472    630.472
 22.270    665.908    632.542     33.366    630.179    632.542    630.179    630.179    630.179
 22.370    620.352    632.308    -11.957    629.881    632.309    629.881    629.881    629.881
 22.470    683.535    632.077     51.458    629.578    632.077    629.578    629.578    629.578
 22.570    602.880    631.847    -28.967    629.271    631.847    629.271    629.271    629.271
 22.670    622.693    631.620     -8.926    628.959    631.620    628.959    628.959    628.959
 22.770    622.000    631.398     -9.398    628.642    631.398    628.642    628.642    628.642
 22.870    635.242    631.182      4.061    628.322    631.182    628.322    628.322    628.322
 22.970    609.000    630.975    -21.975    627.997    630.975    627.997    627.997    627.997
 23.070    623.000    630.779     -7.779    627.667    630.780    627.667    627.667    627.667
 23.170    591.000    630.597    -39.597    627.334    630.598    627.334    627.334    627.334
 23.270    580.551    630.433    -49.882    626.996    630.434    626.996    626.996    626.996
 23.370    655.000    630.294     24.706    626.654    630.294    626.654    626.654    626.654
 23.470    620.000    630.185    -10.185    626.308    630.186    626.308    626.308    626.308
 23.570    633.000    630.118      2.882    625.958    630.119    625.958    625.958    625.958
 23.670    676.000    630.105     45.895    625.604    630.106    625.604    625.604    625.604
 23.770    630.003    630.166     -0.163    625.246    630.168    625.246    625.246    625.246
 23.870    621.000    630.329     -9.329    624.885    630.331    624.885    624.885    624.885
 23.970    602.000    630.640    -28.640    624.519    630.642    624.519    624.519    624.519
 24.070    642.000    631.183     10.817    624.150    631.186    624.150    624.150    624.150
 24.170    623.000    632.146     -9.146    623.778    632.150    623.778    623.778    623.778
 24.270    684.000    633.949     50.051    623.402    633.955    623.402    623.402    623.402
 24.370    604.000    637.506    -33.506    623.022    637.514    623.022    623.022    623.022
 24.470    630.880    644.367    -13.487    622.639    644.381    622.639    622.639    622.639
 24.570    660.000    656.416      3.584    622.252    656.438    622.252    622.252    622.252
 24.670    669.691    674.601     -4.910    621.862    674.636    621.862    621.862    621.862
 24.770    756.000    696.641     59.359    621.469    696.693    621.469    621.469    621.469
 24.870    742.000    714.746     27.254    621.073    714.811    621.073    621.073    621.073
 24.970    673.000    718.158    -45.158    620.673    718.226    620.673    620.673    620.673
 25.070    706.000    703.941      2.059    620.270    703.999    620.270    620.270    620.270
 25.170    701.000    681.348     19.652    619.864    681.390    619.864    619.864    619.864
 25.270    650.000    660.466    -10.466    619.456    660.493    619.456    619.456    619.456
 25.370    638.000    645.489     -7.489    619.044    645.505    619.044    619.044    619.044
 25.470    693.538    636.327     57.211    618.629    636.337    618.629    618.629    618.629
 25.570    675.729    631.207     44.522    618.212    631.213    618.212    618.212    618.212
 25.670    695.000    628.353     66.647    617.792    628.357    617.792    617.792    617.792
 25.770    646.000    626.618     19.382    617.369    626.621    617.369    617.369    617.369
 25.870    668.000    625.429     42.571    616.943    625.432    616.943    616.943    616.943
 25.970    655.413    624.540     30.873    616.515    624.542    616.515    616.515    616.515
 26.070    672.000    623.846     48.154    616.084    623.847    616.084    616.084    616.084
 26.170    662.000    623.296     38.704    615.650    623.297    615.650    615.650    615.650
 26.270    679.464    622.864     56.599    615.215    622.865    615.215    615.215    615.215
 26.370    696.000    622.536     73.464    614.776    622.536    614.776    614.776    614.776
 26.470    654.000    622.303     31.697    614.336    622.303    614.336    614.336    614.336
 26.570    656.677    622.167     34.510    613.893    622.167    613.893    613.893    613.893
 26.670    633.165    622.133     11.032    613.447    622.133    613.447    613.447    613.447
 26.770    686.000    622.212     63.788    613.000    622.211    613.000    613.000    613.000
 26.870    681.000    622.422     58.578    612.550    622.421    612.550    612.550    612.550
 26.970    668.000    622.790     45.210    612.098    622.789    612.098    612.098    612.098
 27.070    683.000    623.355     59.645    611.645    623.354    611.645    611.645    611.645
 27.170    632.418    624.170      8.247    611.189    624.169    611.189    611.189    611.189
 27.270    667.731    625.315     42.416    610.731    625.313    610.731    610.731    610.731
 27.370    724.000    626.907     97.093    610.271    626.904    610.271    610.271    610.271
 27.470    778.000    629.147    148.853    609.810    629.144    609.810    609.810    609.810
 27.570    771.000    632.454    138.546    609.346    632.450    609.346    609.346    609.346
 27.670    758.000    637.859    120.141    608.881    637.854    608.881    608.881    608.881
 27.770    633.788    647.922    -14.134    608.414    647.913    608.414    608.414    608.414
 27.870    746.000    668.026     77.974    607.945    668.011    607.945    607.945    607.945
 27.970    839.000    706.622    132.378    607.475    706.595    607.475    607.475    607.475
 28.070    842.000    771.575     70.425    607.003    771.528    607.003    607.003    607.003
 28.170    885.543    861.212     24.332    606.530    861.142    606.530    606.530    606.530
 28.270    943.215    952.872     -9.657    606.055    952.784    606.055    606.055    606.055
 28.370   1104.000   1000.426    103.574    605.578   1000.339    605.578    605.578    605.578
 28.470   1047.627    973.455     74.172    605.100    973.393    605.100    605.100    605.100
 28.570    851.025    903.582    -52.556    604.621    903.546    604.621    604.621    604.621
 28.670    948.000    843.290    104.710    604.141    843.269    604.141    604.141    604.141
 28.770    843.686    822.008     21.679    603.659    821.990    603.659    603.659    603.659
 28.870   1022.000    840.931    181.069    603.176    840.910    603.176    603.176    603.176
 28.970    995.000    877.835    117.165    602.692    877.814    602.692    602.692    602.692
 29.070    986.000    895.061     90.939    602.206    895.046    602.206    602.206    602.206
 29.170    989.000    867.033    121.967    601.720    867.030    601.720    601.720    601.720
 29.270    954.000    807.266    146.734    601.232    807.271    601.232    601.232    601.232
 29.370    838.000    743.999     94.001    600.744    744.007    600.744    600.744    600.744
 29.470    836.000    693.875    142.125    600.254    693.881    600.254    600.254    600.254
 29.570    808.000    660.639    147.361    599.764    660.643    599.764    599.764    599.764
 29.670    703.000    641.069     61.931    599.272    641.070    599.272    599.272    599.272
 29.770    742.000    630.133    111.867    598.780    630.132    598.780    598.780    598.780
 29.870    742.000    623.847    118.153    598.287    623.846    598.287    598.287    598.287
 29.970    571.588    619.911    -48.323    597.793    619.909    597.793    597.793    597.793
 30.070    560.538    617.249    -56.712    597.298    617.247    597.298    597.298    597.298
 30.170    766.000    615.433    150.567    596.803    615.430    596.803    596.803    596.803
 30.270    708.000    614.361     93.639    596.307    614.357    596.307    596.307    596.307
 30.370    675.000    614.184     60.816    595.811    614.179    595.811    595.811    595.811
 30.470    691.000    615.357     75.643    595.313    615.350    595.313    595.313    595.313
 30.570    566.094    618.696    -52.603    594.816    618.686    594.816    594.816    594.816
 30.670    639.000    625.221     13.779    594.318    625.205    594.318    594.318    594.318
 30.770    657.091    635.619     21.472    593.819    635.594    593.819    593.819    593.819
 30.870    740.000    649.275     90.725    593.320    649.240    593.320    593.320    593.320
 30.970    712.000    662.975     49.025    592.820    662.931    592.820    592.820    592.820
 31.070    773.000    670.505    102.495    592.321    670.458    592.321    592.321    592.321
 31.170    713.000    666.887     46.113    591.820    666.844    591.820    591.820    591.820
 31.270    645.475    654.162     -8.687    591.320    654.128    591.320    591.320    591.320
 31.370    627.730    638.607    -10.877    590.819    638.584    590.819    590.819    590.819
 31.470    675.000    624.972     50.028    590.318    624.956    590.318    590.318    590.318
 31.570    595.742    615.030    -19.288    589.817    615.020    589.817    589.817    589.817
 31.670    600.000    608.612     -8.612    589.316    608.605    589.316    589.316    589.316
 31.770    555.841    604.759    -48.917    588.815    604.754    588.815    588.815    588.815
 31.870    623.000    602.479     20.521    588.314    602.476    588.314    588.314    588.314
 31.970    612.085    601.078     11.007    587.812    601.075    587.812    587.812    587.812
 32.070    633.490    600.167     33.323    587.311    600.165    587.311    587.311    587.311
 32.170    632.281    599.564     32.717    586.810    599.562    586.810    586.810    586.810
 32.270    602.000    599.193      2.807    586.308    599.191    586.308    586.308    586.308
 32.370    554.095    599.025    -44.931    585.807    599.023    585.807    585.807    585.807
 32.470    662.000    599.059     62.941    585.306    599.057    585.306    585.306    585.306
 32.570    587.013    599.305    -12.293    584.806    599.303    584.806    584.806    584.806
 32.670    650.550    599.793     50.758    584.305    599.791    584.305    584.305    584.305
 32.770    585.000    600.564    -15.564    583.805    600.561    583.805    583.805    583.805
 32.870    591.000    601.683    -10.683    583.304    601.680    583.304    583.304    583.304
 32.970    645.000    603.244     41.756    582.805    603.241    582.805    582.805    582.805
 33.070    620.000    605.392     14.608    582.305    605.389    582.305    582.305    582.305
 33.170    574.058    608.370    -34.312    581.806    608.367    581.806    581.806    581.806
 33.270    608.000    612.641     -4.641    581.307    612.637    581.307    581.307    581.307
 33.370    618.627    619.155     -0.528    580.809    619.150    580.809    580.809    580.809
 33.470    663.000    629.834     33.166    580.311    629.827    580.311    580.311    580.311
 33.570    639.304    648.176     -8.872    579.814    648.166    579.814    579.814    579.814
 33.670    649.000    679.538    -30.538    579.317    679.521    579.317    579.317    579.317
 33.770    747.649    730.208     17.441    578.821    730.183    578.821    578.821    578.821
 33.870    744.000    804.490    -60.490    578.325    804.454    578.325    578.325    578.325
 33.970    966.109    899.553     66.556    577.830    899.504    577.830    577.830    577.830
 34.070   1014.000    998.463     15.537    577.336    998.408    577.336    577.336    577.336
 34.170   1085.188   1066.650     18.538    576.842   1066.600    576.842    576.842    576.842
 34.270   1070.055   1068.899      1.157    576.349   1068.864    576.349    576.349    576.349
 34.370    951.000   1003.432    -52.432    575.856   1003.414    575.856    575.856    575.856
 34.470    846.000    904.203    -58.203    575.365    904.196    575.365    575.365    575.365
 34.570    762.071    806.963    -44.892    574.874    806.961    574.874    574.874    574.874
 34.670    725.938    729.912     -3.975    574.384    729.912    574.384    574.384    574.384
 34.770    609.000    676.614    -67.614    573.895    676.613    573.895    573.895    573.895
 34.870    649.000    643.056      5.944    573.406    643.055    573.406    573.406    573.406
 34.970    606.000    622.952    -16.952    572.919    622.951    572.919    572.919    572.919
 35.070    606.000    610.821     -4.821    572.432    610.820    572.432    572.432    572.432
 35.170    588.000    603.029    -15.029    571.947    603.028    571.947    571.947    571.947
 35.270    562.115    597.564    -35.448    571.462    597.563    571.462    571.462    571.462
 35.370    603.000    593.425      9.575    570.978    593.424    570.978    570.978    570.978
 35.470    547.058    590.125    -43.067    570.496    590.124    570.496    570.496    570.496
 35.570    547.000    587.409    -40.409    570.014    587.408    570.014    570.014    570.014
 35.670    508.000    585.123    -77.123    569.534    585.123    569.534    569.534    569.534
 35.770    573.904    583.167     -9.263    569.054    583.166    569.054    569.054    569.054
 35.870    579.000    581.468     -2.468    568.576    581.468    568.576    568.576    568.576
 35.970    541.964    579.973    -38.009    568.099    579.973    568.099    568.099    568.099
 36.070    563.960    578.644    -14.683    567.623    578.643    567.623    567.623    567.623
 36.170    574.000    577.449     -3.449    567.148    577.448    567.148    567.148    567.148
 36.270    628.119    576.366     51.753    566.674    576.366    566.674    566.674    566.674
 36.370    567.000    575.379     -8.379    566.202    575.379    566.202    566.202    566.202
 36.470    549.000    574.475    -25.475    565.730    574.474    565.730    565.730    565.730
 36.570    612.378    573.643     38.735    565.261    573.643    565.261    565.261    565.261
 36.670    539.576    572.878    -33.302    564.792    572.877    564.792    564.792    564.792
 36.770    526.000    572.176    -46.176    564.325    572.176    564.325    564.325    564.325
 36.870    570.000    571.541     -1.541    563.859    571.541    563.859    563.859    563.859
 36.970    560.000    570.982    -10.982    563.394    570.982    563.394    563.394    563.394
 37.070    523.526    570.529    -47.004    562.931    570.530    562.931    562.931    562.931
 37.170    579.629    570.253      9.376    562.469    570.253    562.469    562.469    562.469
 37.270    551.000    570.284    -19.284    562.009    570.285    562.009    562.009    562.009
 37.370    597.658    570.832     26.826    561.550    570.833    561.550    561.550    561.550
 37.470    552.000    572.139    -20.139    561.093    572.140    561.093    561.093    561.093
 37.570    562.393    574.359    -11.966    560.637    574.361    560.637    560.637    560.637
 37.670    547.000    577.353    -30.353    560.182    577.356    560.182    560.182    560.182
 37.770    543.000    580.450    -37.450    559.729    580.454    559.729    559.729    559.729
 37.870    568.000    582.387    -14.387    559.278    582.393    559.278    559.278    559.278
 37.970    531.748    582.033    -50.285    558.828    582.041    558.828    558.828    558.828
 38.070    589.409    579.484      9.925    558.380    579.494    558.380    558.380    558.380
 38.170    548.000    575.826    -27.826    557.934    575.837    557.934    557.934    557.934
 38.270    526.000    572.080    -46.080    557.489    572.091    557.489    557.489    557.489
 38.370    557.911    568.799    -10.888    557.045    568.808    557.045    557.045    557.045
 38.470    527.350    566.200    -38.850    556.604    566.207    556.604    556.604    556.604
 38.570    518.000    564.268    -46.268    556.164    564.273    556.164    556.164    556.164
 38.670    580.089    562.858     17.232    555.725    562.861    555.725    555.725    555.725
 38.770    560.000    561.804     -1.804    555.289    561.807    555.289    555.289    555.289
 38.870    593.922    560.979     32.943    554.854    560.981    554.854    554.854    554.854
 38.970    562.000    560.296      1.704    554.421    560.297    554.421    554.421    554.421
 39.070    518.000    559.701    -41.701    553.990    559.702    553.990    553.990    553.990
 39.170    608.588    559.161     49.427    553.560    559.162    553.560    553.560    553.560
 39.270    527.268    558.659    -31.391    553.132    558.660    553.132    553.132    553.132
 39.370    528.000    558.184    -30.184    552.707    558.185    552.707    552.707    552.707
 39.470    554.000    557.731     -3.731    552.282    557.732    552.282    552.282    552.282
 39.570    506.000    557.296    -51.296    551.860    557.297    551.860    551.860    551.860
 39.670    506.000    556.877    -50.877    551.440    556.878    551.440    551.440    551.440
 39.770    561.000    556.473      4.527    551.021    556.474    551.021    551.021    551.021
 39.870    565.000    556.083      8.917    550.605    556.084    550.605    550.605    550.605
 39.970    536.000    555.707    -19.707    550.190    555.708    550.190    550.190    550.190
 40.070    531.247    555.345    -24.098    549.777    555.345    549.777    549.777    549.777
 40.170    502.000    554.997    -52.997    549.367    554.997    549.367    549.367    549.367
 40.270    553.000    554.663     -1.663    548.958    554.663    548.958    548.958    548.958
 40.370    523.000    554.344    -31.344    548.551    554.345    548.551    548.551    548.551
 40.470    597.000    554.042     42.958    548.146    554.043    548.146    548.146    548.146
 40.570    550.000    553.758     -3.758    547.743    553.759    547.743    547.743    547.743
 40.670    529.343    553.495    -24.152    547.342    553.495    547.342    547.342    547.342
 40.770    515.000    553.254    -38.254    546.943    553.255    546.943    546.943    546.943
 40.870    537.000    553.039    -16.039    546.546    553.040    546.546    546.546    546.546
 40.970    518.934    552.854    -33.921    546.151    552.855    546.151    546.151    546.151
 41.070    568.305    552.705     15.600    545.759    552.706    545.759    545.759    545.759
 41.170    515.000    552.598    -37.598    545.368    552.599    545.368    545.368    545.368
 41.270    542.000    552.541    -10.541    544.979    552.543    544.979    544.979    544.979
 41.370    564.000    552.548     11.452    544.593    552.549    544.593    544.593    544.593
 41.470    551.437    552.632     -1.195    544.208    552.634    544.208    544.208    544.208
 41.570    509.000    552.816    -43.816    543.826    552.818    543.826    543.826    543.826
 41.670    527.581    553.135    -25.555    543.446    553.138    543.446    543.446    543.446
 41.770    583.815    553.648     30.167    543.068    553.651    543.068    543.068    543.068
 41.870    499.126    554.465    -55.339    542.692    554.468    542.692    542.692    542.692
 41.970    609.142    555.802     53.340    542.318    555.806    542.318    542.318    542.318
 42.070    553.000    558.059     -5.059    541.947    558.064    541.947    541.947    541.947
 42.170    599.000    561.905     37.095    541.577    561.912    541.577    541.577    541.577
 42.270    540.000    568.302    -28.302    541.210    568.312    541.210    541.210    541.210
 42.370    589.832    578.361     11.471    540.845    578.376    540.845    540.845    540.845
 42.470    557.470    592.942    -35.472    540.482    592.963    540.482    540.482    540.482
 42.570    570.207    611.999    -41.792    540.122    612.031    540.122    540.122    540.122
 42.670    614.000    633.719    -19.719    539.763    633.761    539.763    539.763    539.763
 42.770    610.000    653.599    -43.599    539.407    653.652    539.407    539.407    539.407
 42.870    665.084    664.784      0.300    539.053    664.846    539.053    539.053    539.053
 42.970    665.041    662.073      2.968    538.702    662.136    538.702    538.702    538.702
 43.070    583.000    646.737    -63.737    538.353    646.794    538.353    538.353    538.353
 43.170    615.000    625.112    -10.112    538.006    625.159    538.006    538.006    538.006
 43.270    568.834    603.407    -34.573    537.661    603.442    537.661    537.661    537.661
 43.370    530.305    585.171    -54.866    537.318    585.195    537.318    537.318    537.318
 43.470    526.000    571.552    -45.552    536.978    571.569    536.978    536.978    536.978
 43.570    499.000    562.228    -63.228    536.640    562.239    536.640    536.640    536.640
 43.670    552.000    556.205     -4.205    536.305    556.213    536.305    536.305    536.305
 43.770    531.000    552.397    -21.397    535.971    552.403    535.971    535.971    535.971
 43.870    520.000    549.936    -29.936    535.640    549.940    535.640    535.640    535.640
 43.970    506.154    548.246    -42.092    535.312    548.249    535.312    535.312    535.312
 44.070    531.917    546.997    -15.080    534.986    547.000    534.986    534.986    534.986
 44.170    539.000    546.014     -7.014    534.662    546.016    534.662    534.662    534.662
 44.270    571.000    545.205     25.795    534.340    545.207    534.340    534.340    534.340
 44.370    539.340    544.523     -5.183    534.021    544.525    534.021    534.021    534.021
 44.470    564.000    543.938     20.062    533.704    543.940    533.704    533.704    533.704
 44.570    578.000    543.431     34.569    533.390    543.432    533.390    533.390    533.390
 44.670    519.000    542.988    -23.988    533.077    542.989    533.077    533.077    533.077
 44.770    562.000    542.599     19.401    532.768    542.599    532.768    532.768    532.768
 44.870    577.000    542.256     34.744    532.460    542.257    532.460    532.460    532.460
 44.970    590.745    541.955     48.790    532.155    541.955    532.155    532.155    532.155
 45.070    570.459    541.690     28.769    531.853    541.690    531.853    531.853    531.853
 45.170    527.611    541.459    -13.848    531.553    541.460    531.553    531.553    531.553
 45.270    576.000    541.260     34.740    531.255    541.261    531.255    531.255    531.255
 45.370    582.099    541.092     41.007    530.960    541.092    530.960    530.960    530.960
 45.470    487.600    540.953    -53.353    530.667    540.953    530.667    530.667    530.667
 45.570    567.896    540.844     27.052    530.376    540.844    530.376    530.376    530.376
 45.670    491.457    540.765    -49.308    530.088    540.764    530.088    530.088    530.088
 45.770    517.301    540.716    -23.415    529.802    540.716    529.802    529.802    529.802
 45.870    500.000    540.700    -40.700    529.519    540.700    529.519    529.519    529.519
 45.970    541.000    540.718      0.282    529.238    540.718    529.238    529.238    529.238
 46.070    545.000    540.774      4.226    528.960    540.773    528.960    528.960    528.960
 46.170    501.000    540.870    -39.870    528.684    540.869    528.684    528.684    528.684
 46.270    547.000    541.012      5.988    528.410    541.011    528.410    528.410    528.410
 46.370    543.968    541.204      2.764    528.139    541.203    528.139    528.139    528.139
 46.470    554.000    541.455     12.545    527.871    541.454    527.871    527.871    527.871
 46.570    573.053    541.774     31.279    527.604    541.772    527.604    527.604    527.604
 46.670    543.000    542.173      0.827    527.341    542.171    527.341    527.341    527.341
 46.770    565.000    542.672     22.328    527.079    542.670    527.079    527.079    527.079
 46.870    550.115    543.299      6.815    526.820    543.297    526.820    526.820    526.820
 46.970    545.000    544.108      0.892    526.564    544.105    526.564    526.564    526.564
 47.070    553.000    545.192      7.808    526.310    545.189    526.310    526.310    526.310
 47.170    545.000    546.722     -1.722    526.059    546.718    526.059    526.059    526.059
 47.270    558.495    548.988      9.507    525.809    548.982    525.809    525.809    525.809
 47.370    603.000    552.426     50.574    525.563    552.418    525.563    525.563    525.563
 47.470    508.000    557.600    -49.600    525.319    557.589    525.319    525.319    525.319
 47.570    531.330    565.092    -33.762    525.077    565.075    525.077    525.077    525.077
 47.670    608.000    575.271     32.729    524.838    575.247    524.838    524.838    524.838
 47.770    610.000    587.973     22.027    524.601    587.940    524.601    524.601    524.601
 47.870    649.315    602.106     47.209    524.367    602.064    524.367    524.367    524.367
 47.970    619.000    615.283      3.717    524.135    615.232    524.135    524.135    524.135
 48.070    672.000    624.013     47.987    523.905    623.957    523.905    523.905    523.905
 48.170    619.000    625.380     -6.380    523.679    625.327    523.679    523.679    523.679
 48.270    631.951    619.381     12.570    523.454    619.333    523.454    523.454    523.454
 48.370    614.000    608.953      5.047    523.232    608.914    523.232    523.232    523.232
 48.470    624.000    597.668     26.332    523.012    597.638    523.012    523.012    523.012
 48.570    577.000    588.013    -11.013    522.795    587.991    522.795    522.795    522.795
 48.670    621.671    581.188     40.483    522.581    581.173    522.581    522.581    522.581
 48.770    554.000    577.478    -23.478    522.368    577.467    522.368    522.368    522.368
 48.870    588.000    576.652     11.348    522.159    576.644    522.159    522.159    522.159
 48.970    624.000    578.312     45.688    521.951    578.305    521.951    521.951    521.951
 49.070    551.000    582.153    -31.153    521.746    582.147    521.746    521.746    521.746
 49.170    594.000    588.175      5.825    521.544    588.169    521.544    521.544    521.544
 49.270    539.000    596.924    -57.924    521.344    596.918    521.344    521.344    521.344
 49.370    620.000    609.950     10.050    521.146    609.942    521.146    521.146    521.146
 49.470    600.436    630.670    -30.234    520.951    630.659    520.951    520.951    520.951
 49.570    693.726    665.686     28.040    520.759    665.667    520.759    520.759    520.759
 49.670    744.000    726.105     17.895    520.568    726.073    520.568    520.568    520.568
 49.770    735.000    827.681    -92.681    520.381    827.628    520.381    520.381    520.381
 49.870    980.000    987.989     -7.989    520.195    987.908    520.195    520.195    520.195
 49.970   1132.000   1219.400    -87.400    520.012   1219.290    520.012    520.012    520.012
 50.070   1517.000   1518.605     -1.605    519.832   1518.470    519.832    519.832    519.832
 50.170   1814.000   1855.531    -41.531    519.654   1855.392    519.654    519.654    519.654
 50.270   2109.425   2166.071    -56.645    519.478   2165.962    519.478    519.478    519.478
 50.370   2335.462   2360.094    -24.632    519.304   2360.058    519.304    519.304    519.304
 50.470   2314.000   2363.829    -49.829    519.134   2363.885    519.134    519.134    519.134
 50.570   2087.403   2176.296    -88.892    518.965   2176.424    518.965    518.965    518.965
 50.670   1859.281   1870.515    -11.235    518.799   1870.673    518.799    518.799    518.799
 50.770   1523.000   1537.548    -14.548    518.635   1537.700    518.635    518.635    518.635
 50.870   1153.000   1242.914    -89.914    518.474   1243.041    518.474    518.474    518.474
 50.970    954.000   1017.773    -63.773    518.315   1017.872    518.315    518.315    518.315
 51.070    893.462    865.768     27.694    518.158    865.843    518.158    518.158    518.158
 51.170    722.892    773.780    -50.888    518.004    773.837    518.004    518.004    518.004
 51.270    682.816    722.261    -39.444    517.852    722.309    517.852    517.852    517.852
 51.370    717.090    692.654     24.436    517.703    692.697    517.703    517.703    517.703
 51.470    648.000    671.675    -23.675    517.556    671.713    517.556    517.556    517.556
 51.570    627.000    652.812    -25.812    517.411    652.845    517.411    517.411    517.411
 51.670    582.960    634.787    -51.827    517.269    634.814    517.269    517.269    517.269
 51.770    641.348    618.507     22.841    517.129    618.528    517.129    517.129    517.129
 51.870    639.563    604.984     34.579    516.991    604.999    516.991    516.991    516.991
 51.970    620.819    594.683     26.137    516.856    594.693    516.856    516.856    516.856
 52.070    636.000    587.524     48.476    516.723    587.532    516.723    516.723    516.723
 52.170    616.000    583.090     32.910    516.592    583.096    516.592    516.592    516.592
 52.270    526.826    580.868    -54.042    516.464    580.873    516.464    516.464    516.464
 52.370    583.000    580.449      2.551    516.337    580.452    516.337    516.337    516.337
 52.470    603.000    581.651     21.349    516.214    581.653    516.214    516.214    516.214
 52.570    629.592    584.618     44.974    516.092    584.620    516.092    516.092    516.092
 52.670    578.000    589.939    -11.939    515.973    589.941    515.973    515.973    515.973
 52.770    632.000    598.838     33.162    515.856    598.840    515.856    515.856    515.856
 52.870    603.000    613.406    -10.406    515.741    613.407    515.741    515.741    515.741
 52.970    666.384    636.747     29.636    515.629    636.748    515.629    515.629    515.629
 53.070    655.196    672.827    -17.632    515.519    672.827    515.519    515.519    515.519
 53.170    761.366    725.769     35.598    515.411    725.768    515.411    515.411    515.411
 53.270    833.000    798.498     34.502    515.306    798.497    515.306    515.306    515.306
 53.370    910.000    890.854     19.146    515.202    890.854    515.202    515.202    515.202
 53.470   1008.000    997.406     10.594    515.101    997.407    515.101    515.101    515.101
 53.570   1101.000   1105.169     -4.169    515.002   1105.176    515.002    515.002    515.002
 53.670   1190.000   1192.477     -2.477    514.905   1192.490    514.905    514.905    514.905
 53.770   1257.000   1233.689     23.311    514.811   1233.712    514.811    514.811    514.811
 53.870   1267.000   1213.936     53.064    514.719   1213.969    514.719    514.719    514.719
 53.970   1070.000   1141.110    -71.110    514.629   1141.148    514.629    514.629    514.629
 54.070   1016.000   1038.865    -22.865    514.541   1038.902    514.541    514.541    514.541
 54.170    962.225    931.026     31.199    514.455    931.059    514.455    514.455    514.455
 54.270    823.513    833.626    -10.113    514.371    833.653    514.371    514.371    514.371
 54.370    754.000    754.573     -0.573    514.290    754.594    514.290    514.290    514.290
 54.470    674.000    695.689    -21.689    514.211    695.705    514.211    514.211    514.211
 54.570    695.859    654.947     40.911    514.134    654.958    514.134    514.134    514.134
 54.670    583.914    628.496    -44.582    514.059    628.504    514.059    514.059    514.059
 54.770    653.000    612.228     40.772    513.986    612.233    513.986    513.986    513.986
 54.870    658.309    602.708     55.601    513.915    602.712    513.915    513.915    513.915
 54.970    632.970    597.492     35.479    513.847    597.495    513.847    513.847    513.847
 55.070    569.000    595.047    -26.047    513.780    595.050    513.780    513.780    513.780
 55.170    621.582    594.517     27.065    513.716    594.519    513.716    513.716    513.716
 55.270    600.000    595.478      4.522    513.653    595.479    513.653    513.653    513.653
 55.370    594.000    597.766     -3.766    513.593    597.768    513.593    513.593    513.593
 55.470    608.000    601.385      6.615    513.535    601.386    513.535    513.535    513.535
 55.570    598.000    606.473     -8.473    513.479    606.475    513.479    513.479    513.479
 55.670    588.575    613.347    -24.773    513.424    613.348    513.424    513.424    513.424
 55.770    600.000    622.613    -22.613    513.372    622.614    513.372    513.372    513.372
 55.870    646.000    635.407     10.593    513.322    635.407    513.322    513.322    513.322
 55.970    645.000    653.792     -8.792    513.274    653.790    513.274    513.274    513.274
 56.070    634.065    681.319    -47.254    513.228    681.314    513.228    513.228    513.228
 56.170    762.648    723.639     39.008    513.184    723.629    513.184    513.184    513.184
 56.270    690.000    788.882    -98.882    513.142    788.865    513.142    513.142    513.142
 56.370    836.000    887.309    -51.309    513.102    887.282    513.102    513.102    513.102
 56.470   1054.906   1029.722     25.183    513.064   1029.685    513.064    513.064    513.064
 56.570   1172.000   1224.355    -52.355    513.027   1224.309    513.027    513.027    513.027
 56.670   1524.944   1472.494     52.450    512.993   1472.445    512.993    512.993    512.993
 56.770   1686.294   1763.546    -77.251    512.961   1763.505    512.961    512.961    512.961
 56.870   2109.000   2070.112     38.888    512.930   2070.097    512.930    512.930    512.930
 56.970   2261.731   2344.874    -83.143    512.902   2344.907    512.902    512.902    512.902
 57.070   2550.306   2525.640     24.665    512.875   2525.741    512.875    512.875    512.875
 57.170   2596.000   2558.733     37.267    512.850   2558.904    512.850    512.850    512.850
 57.270   2468.000   2432.957     35.043    512.827   2433.174    512.827    512.827    512.827
 57.370   2128.000   2188.728    -60.728    512.806   2188.958    512.806    512.806    512.806
 57.470   1831.000   1889.595    -58.595    512.787   1889.809    512.787    512.787    512.787
 57.570   1560.000   1590.572    -30.572    512.770   1590.754    512.770    512.770    512.770
 57.670   1204.000   1326.739   -122.739    512.754   1326.883    512.754    512.754    512.754
 57.770   1091.000   1114.780    -23.780    512.740   1114.885    512.740    512.740    512.740
 57.870    924.000    957.724    -33.724    512.728    957.797    512.728    512.728    512.728
 57.970    795.000    850.073    -55.073    512.718    850.120    512.718    512.718    512.718
 58.070    825.000    782.615     42.385    512.710    782.642    512.710    512.710    512.710
 58.170    726.000    746.204    -20.204    512.703    746.216    512.703    512.703    512.703
 58.270    694.922    733.951    -39.029    512.698    733.951    512.698    512.698    512.698
 58.370    696.150    741.798    -45.648    512.695    741.787    512.695    512.695    512.695
 58.470    706.374    767.913    -61.539    512.694    767.892    512.694    512.694    512.694
 58.570    865.000    811.421     53.579    512.694    811.391    512.694    512.694    512.694
 58.670    815.000    870.914    -55.914    512.696    870.877    512.696    512.696    512.696
 58.770    991.585    942.982     48.602    512.700    942.944    512.700    512.700    512.700
 58.870   1055.287   1021.261     34.026    512.705   1021.227    512.705    512.705    512.705
 58.970   1049.000   1097.234    -48.234    512.712   1097.209    512.712    512.712    512.712
 59.070   1205.000   1163.282     41.718    512.721   1163.270    512.721    512.721    512.721
 59.170   1229.000   1214.361     14.639    512.731   1214.364    512.731    512.731    512.731
 59.270   1236.000   1245.862     -9.862    512.743   1245.880    512.743    512.743    512.743
 59.370   1223.242   1253.370    -30.128    512.757   1253.398    512.757    512.757    512.757
 59.470   1325.000   1237.996     87.004    512.772   1238.023    512.772    512.772    512.772
 59.570   1264.077   1209.788     54.289    512.789   1209.800    512.789    512.789    512.789
 59.670   1233.000   1182.918     50.082    512.807   1182.902    512.807    512.807    512.807
 59.770   1202.000   1168.968     33.032    512.827   1168.915    512.827    512.827    512.827
 59.870   1182.000   1175.013      6.987    512.849   1174.919    512.849    512.849    512.849
 59.970   1186.000   1205.284    -19.284    512.872   1205.143    512.872    512.872    512.872
 60.070   1282.000   1261.730     20.270    512.896   1261.543    512.896    512.896    512.896
 60.170   1330.000   1341.290    -11.290    512.922   1341.061    512.922    512.922    512.922
 60.270   1473.633   1432.533     41.100    512.950   1432.272    512.950    512.950    512.950
 60.370   1477.803   1514.722    -36.919    512.979   1514.448    512.979    512.979    512.979
 60.470   1633.352   1561.423     71.929    513.009   1561.161    513.009    513.009    513.009
 60.570   1488.409   1550.824    -62.415    513.041   1550.597    513.041    513.041    513.041
 60.670   1545.000   1478.447     66.553    513.075   1478.267    513.075    513.075    513.075
 60.770   1361.000   1359.776      1.224    513.109   1359.642    513.109    513.109    513.109
 60.870   1232.574   1219.634     12.940    513.146   1219.539    513.146    513.146    513.146
 60.970   1108.176   1080.490     27.686    513.183   1080.424    513.183    513.183    513.183
 61.070    906.000    957.700    -51.700    513.222    957.654    513.222    513.222    513.222
 61.170    857.315    859.553     -2.238    513.263    859.519    513.263    513.263    513.263
 61.270    785.703    788.869     -3.166    513.304    788.839    513.304    513.304    513.304
 61.370    781.000    745.051     35.949    513.347    745.020    513.347    513.347    513.347
 61.470    665.677    726.184    -60.507    513.392    726.148    513.392    513.392    513.392
 61.570    763.000    730.686     32.314    513.438    730.639    513.438    513.438    513.438
 61.670    811.212    758.087     53.125    513.485    758.025    513.485    513.485    513.485
 61.770    837.000    808.785     28.215    513.533    808.704    513.533    513.533    513.533
 61.870    880.000    882.916     -2.916    513.582    882.814    513.582    513.582    513.582
 61.970    991.000    978.717     12.283    513.633    978.591    513.633    513.633    513.633
 62.070   1072.000   1090.799    -18.799    513.685   1090.653    513.685    513.685    513.685
 62.170   1211.439   1208.656      2.783    513.739   1208.496    513.739    513.739    513.739
 62.270   1357.569   1315.778     41.791    513.793   1315.617    513.793    513.793    513.793
 62.370   1405.600   1390.875     14.724    513.849   1390.728    513.849    513.849    513.849
 62.470   1290.000   1414.185   -124.185    513.906   1414.064    513.906    513.906    513.906
 62.570   1370.000   1378.171     -8.171    513.964   1378.081    513.964    513.964    513.964
 62.670   1226.000   1292.851    -66.851    514.023   1292.790    514.023    514.023    514.023
 62.770   1116.844   1178.931    -62.086    514.083   1178.892    514.083    514.083    514.083
 62.870   1013.042   1057.121    -44.079    514.145   1057.098    514.145    514.145    514.145
 62.970    968.305    942.674     25.631    514.207    942.661    514.207    514.207    514.207
 63.070    877.547    844.661     32.885    514.271    844.653    514.271    514.271    514.271
 63.170    751.000    766.894    -15.894    514.336    766.887    514.336    514.336    514.336
 63.270    671.000    709.258    -38.258    514.402    709.252    514.402    514.402    514.402
 63.370    670.000    669.201      0.799    514.468    669.194    514.468    514.468    514.468
 63.470    665.000    643.155     21.845    514.536    643.147    514.536    514.536    514.536
 63.570    622.000    627.664     -5.664    514.605    627.654    514.605    514.605    514.605
 63.670    615.534    620.076     -4.542    514.675    620.064    514.675    514.675    514.675
 63.770    619.000    618.843      0.157    514.746    618.828    514.746    514.746    514.746
 63.870    621.484    623.521     -2.037    514.818    623.502    514.818    514.818    514.818
 63.970    672.689    634.603     38.086    514.891    634.578    514.891    514.891    514.891
 64.070    681.000    653.221     27.779    514.965    653.189    514.965    514.965    514.965
 64.170    690.000    680.750      9.250    515.039    680.707    515.039    515.039    515.039
 64.270    752.000    718.302     33.698    515.115    718.245    515.115    515.115    515.115
 64.370    735.035    766.136    -31.101    515.192    766.063    515.192    515.192    515.192
 64.470    893.000    823.042     69.958    515.269    822.952    515.269    515.269    515.269
 64.570    891.773    885.727      6.046    515.347    885.620    515.347    515.347    515.347
 64.670    944.950    948.319     -3.368    515.426    948.197    515.426    515.426    515.426
 64.770   1099.000   1002.444     96.556    515.506   1002.316    515.506    515.506    515.506
 64.870   1071.456   1038.862     32.594    515.587   1038.735    515.587    515.587    515.587
 64.970   1116.000   1050.887     65.113    515.669   1050.773    515.669    515.669    515.669
 65.070   1069.000   1037.381     31.619    515.751   1037.287    515.751    515.751    515.751
 65.170   1056.823   1002.792     54.031    515.834   1002.722    515.834    515.834    515.834
 65.270    945.000    954.833     -9.833    515.918    954.788    515.918    515.918    515.918
 65.370    875.000    901.701    -26.701    516.003    901.678    516.003    516.003    516.003
 65.470    861.000    849.924     11.076    516.088    849.920    516.088    516.088    516.088
 65.570    773.000    803.337    -30.337    516.174    803.347    516.174    516.174    516.174
 65.670    799.000    763.193     35.807    516.261    763.213    516.261    516.261    516.261
 65.770    735.000    729.130      5.870    516.348    729.154    516.348    516.348    516.348
 65.870    731.000    700.345     30.655    516.437    700.370    516.437    516.437    516.437
 65.970    679.000    676.297      2.703    516.525    676.319    516.525    516.525    516.525
 66.070    669.855    656.725     13.130    516.615    656.743    516.615    516.615    516.615
 66.170    640.000    641.378     -1.378    516.705    641.391    516.705    516.705    516.705
 66.270    603.000    629.922    -26.922    516.795    629.931    516.795    516.795    516.795
 66.370    604.689    621.981    -17.292    516.886    621.986    516.886    516.886    516.886
 66.470    608.000    617.194     -9.194    516.978    617.197    516.978    516.978    516.978
 66.570    632.422    615.255     17.167    517.071    615.256    517.071    517.071    517.071
 66.670    621.000    615.959      5.041    517.163    615.960    517.163    517.163    517.163
 66.770    596.000    619.281    -23.281    517.257    619.281    517.257    517.257    517.257
 66.870    637.000    625.493     11.507    517.351    625.494    517.351    517.351    517.351
 66.970    661.000    635.334     25.666    517.445    635.335    517.445    517.445    517.445
 67.070    599.945    650.218    -50.273    517.540    650.219    517.540    517.540    517.540
 67.170    719.677    672.466     47.211    517.635    672.466    517.635    517.635    517.635
 67.270    655.000    705.512    -50.512    517.731    705.511    517.731    517.731    517.731
 67.370    795.000    753.977     41.023    517.827    753.974    517.827    517.827    517.827
 67.470    780.167    823.462    -43.295    517.924    823.457    517.924    517.924    517.924
 67.570    888.000    919.924    -31.924    518.021    919.918    518.021    518.021    518.021
 67.670   1010.000   1048.555    -38.555    518.118   1048.549    518.118    518.118    518.118
 67.770   1155.000   1212.211    -57.211    518.216   1212.210    518.216    518.216    518.216
 67.870   1331.000   1409.608    -78.608    518.314   1409.618    518.314    518.314    518.314
 67.970   1685.539   1633.516     52.022    518.412   1633.546    518.412    518.412    518.412
 68.070   1924.497   1869.162     55.335    518.511   1869.223    518.511    518.511    518.511
 68.170   2163.000   2093.152     69.848    518.610   2093.255    518.610    518.610    518.610
 68.270   2299.000   2274.291     24.709    518.709   2274.448    518.709    518.709    518.709
 68.370   2407.725   2379.322     28.403    518.809   2379.539    518.809    518.809    518.809
 68.470   2409.000   2384.986     24.014    518.908   2385.256    518.908    518.908    518.908
 68.570   2324.000   2289.932     34.068    519.008   2290.234    519.008    519.008    519.008
 68.670   2167.000   2115.538     51.462    519.109   2115.848    519.109    519.109    519.109
 68.770   1898.000   1894.731      3.269    519.209   1895.025    519.209    519.209    519.209
 68.870   1598.716   1659.359    -60.643    519.310   1659.621    519.310    519.310    519.310
 68.970   1382.000   1433.736    -51.736    519.410   1433.958    519.410    519.410    519.410
 69.070   1297.016   1233.492     63.524    519.511   1233.672    519.511    519.511    519.511
 69.170    975.000   1066.562    -91.562    519.612   1066.702    519.612    519.612    519.612
 69.270    954.035    934.759     19.276    519.714    934.864    519.714    519.714    519.714
 69.370    790.000    835.558    -45.558    519.815    835.635    519.815    519.815    519.815
 69.470    720.180    763.918    -43.738    519.916    763.973    519.916    519.916    519.916
 69.570    750.000    713.879     36.121    520.018    713.918    520.018    520.018    520.018
 69.670    675.000    679.735     -4.735    520.119    679.763    520.119    520.119    520.119
 69.770    691.000    656.704     34.296    520.221    656.724    520.221    520.221    520.221
 69.870    656.000    641.158     14.842    520.322    641.173    520.322    520.322    520.322
 69.970    643.000    630.564     12.436    520.424    630.575    520.424    520.424    520.424
 70.070    623.000    623.266     -0.266    520.526    623.274    520.526    520.526    520.526
 70.170    661.469    618.250     43.220    520.627    618.256    520.627    520.627    520.627
 70.270    564.812    614.927    -50.115    520.729    614.931    520.729    520.729    520.729
 70.370    605.585    612.988     -7.404    520.830    612.991    520.830    520.830    520.830
 70.470    660.000    612.309     47.691    520.932    612.310    520.932    520.932    520.932
 70.570    585.000    612.913    -27.913    521.033    612.913    521.033    521.033    521.033
 70.670    670.479    614.982     55.497    521.134    614.980    521.134    521.134    521.134
 70.770    585.023    618.899    -33.876    521.235    618.894    521.235    521.235    521.235
 70.870    610.000    625.337    -15.337    521.336    625.330    521.336    521.336    521.336
 70.970    600.000    635.375    -35.375    521.437    635.364    521.437    521.437    521.437
 71.070    675.000    650.622     24.378    521.538    650.606    521.538    521.538    521.538
 71.170    682.000    673.319      8.681    521.638    673.296    521.638    521.638    521.638
 71.270    692.000    706.356    -14.356    521.738    706.324    521.738    521.738    521.738
 71.370    734.000    753.134    -19.134    521.838    753.089    521.838    521.838    521.838
 71.470    770.000    817.201    -47.201    521.938    817.139    521.938    521.938    521.938
 71.570    901.000    901.647     -0.647    522.038    901.564    522.038    522.038    522.038
 71.670    940.560   1008.277    -67.717    522.137   1008.170    522.137    522.137    522.137
 71.770   1204.374   1136.671     67.703    522.236   1136.537    522.236    522.236    522.236
 71.870   1272.000   1283.248    -11.248    522.335   1283.088    522.335    522.335    522.335
 71.970   1501.000   1440.441     60.559    522.434   1440.257    522.434    522.434    522.434
 72.070   1581.000   1596.032    -15.032    522.532   1595.829    522.532    522.532    522.532
 72.170   1701.000   1733.032    -32.032    522.629   1732.822    522.629    522.629    522.629
 72.270   1881.001   1831.324     49.677    522.727   1831.122    522.727    522.727    522.727
 72.370   1870.000   1872.704     -2.704    522.824   1872.524    522.824    522.824    522.824
 72.470   1811.000   1848.409    -37.409    522.921   1848.265    522.921    522.921    522.921
 72.570   1748.000   1763.655    -15.655    523.017   1763.549    523.017    523.017    523.017
 72.670   1581.000   1634.767    -53.767    523.113   1634.697    523.113    523.113    523.113
 72.770   1531.000   1481.875     49.125    523.208   1481.834    523.208    523.208    523.208
 72.870   1307.000   1323.028    -16.028    523.304   1323.009    523.304    523.304    523.304
 72.970   1219.000   1171.767     47.233    523.398   1171.762    523.398    523.398    523.398
 73.070   1085.000   1036.883     48.117    523.492   1036.886    523.492    523.492    523.492
 73.170    905.000    922.976    -17.976    523.586    922.983    523.586    523.586    523.586
 73.270    808.000    831.251    -23.251    523.679    831.259    523.679    523.679    523.679
 73.370    750.000    760.438    -10.438    523.772    760.444    523.772    523.772    523.772
 73.470    774.000    707.740     66.260    523.864    707.746    523.864    523.864    523.864
 73.570    718.000    669.703     48.297    523.955    669.707    523.955    523.955    523.955
 73.670    701.152    642.880     58.273    524.046    642.882    524.046    524.046    524.046
 73.770    629.000    624.259      4.741    524.136    624.262    524.136    524.136    524.136
 73.870    659.000    611.461     47.539    524.226    611.464    524.226    524.226    524.226
 73.970    630.000    602.747     27.253    524.315    602.751    524.315    524.315    524.315
 74.070    610.000    596.933     13.067    524.404    596.939    524.404    524.404    524.404
 74.170    543.813    593.247    -49.433    524.492    593.256    524.492    524.492    524.492
 74.270    652.000    591.191     60.809    524.579    591.204    524.579    524.579    524.579
 74.370    588.810    590.421     -1.612    524.666    590.439    524.666    524.666    524.666
 74.470    594.623    590.653      3.970    524.752    590.676    524.752    524.752    524.752
 74.570    697.000    591.599    105.401    524.837    591.627    524.837    524.837    524.837
 74.670    629.000    592.924     36.076    524.921    592.957    524.921    524.921    524.921
 74.770    629.000    594.228     34.772    525.005    594.267    525.005    525.005    525.005
 74.870    682.000    595.066     86.934    525.088    595.109    525.088    525.088    525.088
 74.970    674.000    595.031     78.969    525.171    595.077    525.171    525.171    525.171
 75.070    664.000    593.897     70.103    525.252    593.942    525.252    525.252    525.252
 75.170    681.000    591.721     89.279    525.333    591.764    525.333    525.333    525.333
 75.270    662.000    588.835     73.165    525.413    588.874    525.413    525.413    525.413
 75.370    672.000    585.732     86.268    525.492    585.765    525.492    525.492    525.492
 75.470    552.062    582.950    -30.888    525.570    582.977    525.570    525.570    525.570
 75.570    612.588    581.015     31.574    525.648    581.035    525.648    525.648    525.648
 75.670    580.802    580.426      0.376    525.724    580.439    525.724    525.724    525.724
 75.770    587.000    581.664      5.336    525.800    581.670    525.800    525.800    525.800
 75.870    633.628    585.180     48.448    525.875    585.180    525.875    525.875    525.875
 75.970    621.367    591.379     29.989    525.949    591.371    525.949    525.949    525.949
 76.070    626.374    600.565     25.809    526.022    600.550    526.022    526.022    526.022
 76.170    601.000    612.886    -11.886    526.094    612.863    526.094    526.094    526.094
 76.270    611.000    628.248    -17.248    526.165    628.217    526.165    526.165    526.165
 76.370    611.971    646.239    -34.268    526.236    646.200    526.236    526.236    526.236
 76.470    689.000    666.052     22.948    526.305    666.005    526.305    526.305    526.305
 76.570    728.000    686.421     41.579    526.373    686.367    526.373    526.373    526.373
 76.670    696.000    705.588     -9.588    526.441    705.529    526.441    526.441    526.441
 76.770    723.000    721.372      1.628    526.507    721.310    526.507    526.507    526.507
 76.870    724.000    731.470     -7.470    526.572    731.407    526.572    526.572    526.572
 76.970    732.290    734.089     -1.799    526.637    734.030    526.637    526.637    526.637
 77.070    670.531    728.664    -58.133    526.700    728.609    526.700    526.700    526.700
 77.170    667.003    716.119    -49.116    526.762    716.072    526.762    526.762    526.762
 77.270    698.000    698.448     -0.448    526.823    698.407    526.823    526.823    526.823
 77.370    684.000    677.954      6.046    526.884    677.921    526.884    526.884    526.884
 77.470    650.237    656.697     -6.459    526.942    656.670    526.942    526.942    526.942
 77.570    587.071    636.258    -49.187    527.000    636.237    527.000    527.000    527.000
 77.670    611.000    617.716     -6.716    527.057    617.699    527.057    527.057    527.057
 77.770    587.000    601.693    -14.693    527.113    601.681    527.113    527.113    527.113
 77.870    579.913    588.430     -8.517    527.167    588.421    527.167    527.167    527.167
 77.970    632.886    577.868     55.018    527.221    577.861    527.221    527.221    527.221
 78.070    582.000    569.742     12.258    527.273    569.737    527.273    527.273    527.273
 78.170    586.000    563.675     22.325    527.324    563.671    527.324    527.324    527.324
 78.270    553.889    559.259     -5.369    527.374    559.255    527.374    527.374    527.374
 78.370    557.000    556.106      0.894    527.422    556.103    527.422    527.422    527.422
 78.470    569.000    553.881     15.119    527.469    553.879    527.469    527.469    527.469
 78.570    536.000    552.321    -16.321    527.516    552.320    527.516    527.516    527.516
 78.670    556.000    551.232      4.768    527.561    551.230    527.561    527.561    527.561
 78.770    580.388    550.478     29.910    527.604    550.477    527.604    527.604    527.604
 78.870    546.000    549.973     -3.973    527.647    549.972    527.647    527.647    527.647
 78.970    539.971    549.665     -9.694    527.688    549.664    527.688    527.688    527.688
 79.070    499.458    549.527    -50.069    527.728    549.526    527.728    527.728    527.728
 79.170    555.790    549.553      6.237    527.766    549.552    527.766    527.766    527.766
 79.270    539.000    549.750    -10.750    527.803    549.749    527.803    527.803    527.803
 79.370    564.000    550.136     13.864    527.839    550.135    527.839    527.839    527.839
 79.470    572.000    550.740     21.260    527.874    550.739    527.874    527.874    527.874
 79.570    577.150    551.601     25.549    527.907    551.600    527.907    527.907    527.907
 79.670    559.000    552.770      6.230    527.939    552.768    527.939    527.939    527.939
 79.770    527.000    554.312    -27.312    527.969    554.309    527.969    527.969    527.969
 79.870    591.000    556.312     34.688    527.998    556.309    527.998    527.998    527.998
 79.970    560.876    558.883      1.993    528.026    558.879    528.026    528.026    528.026
 80.070    578.000    562.169     15.831    528.053    562.165    528.053    528.053    528.053
 80.170    540.000    566.353    -26.353    528.077    566.348    528.077    528.077    528.077
 80.270    548.000    571.651    -23.651    528.101    571.646    528.101    528.101    528.101
 80.370    523.692    578.315    -54.624    528.123    578.311    528.123    528.123    528.123
 80.470    591.000    586.624      4.376    528.144    586.620    528.144    528.144    528.144
 80.570    599.000    596.871      2.129    528.163    596.869    528.163    528.163    528.163
 80.670    602.000    609.335     -7.335    528.181    609.335    528.181    528.181    528.181
 80.770    632.101    624.214      7.888    528.197    624.217    528.197    528.197    528.197
 80.870    696.844    641.538     55.306    528.212    641.546    528.212    528.212    528.212
 80.970    704.664    661.084     43.580    528.225    661.097    528.225    528.225    528.225
 81.070    701.232    682.306     18.926    528.237    682.324    528.237    528.237    528.237
 81.170    655.000    704.324    -49.324    528.247    704.349    528.247    528.247    528.247
 81.270    712.000    725.985    -13.985    528.256    726.016    528.256    528.256    528.256
 81.370    750.949    746.017      4.933    528.263    746.055    528.263    528.263    528.263
 81.470    811.000    763.231     47.769    528.269    763.276    528.269    528.269    528.269
 81.570    742.000    776.663    -34.663    528.273    776.714    528.273    528.273    528.273
 81.670    698.000    785.652    -87.652    528.275    785.709    528.275    528.275    528.275
 81.770    754.000    789.888    -35.888    528.276    789.950    528.276    528.276    528.276
 81.870    764.693    789.418    -24.725    528.276    789.485    528.276    528.276    528.276
 81.970    766.000    784.553    -18.553    528.274    784.623    528.274    528.274    528.274
 82.070    730.000    775.738    -45.738    528.270    775.810    528.270    528.270    528.270
 82.170    799.215    763.531     35.684    528.265    763.605    528.265    528.265    528.265
 82.270    806.832    748.669     58.164    528.258    748.742    528.258    528.258    528.258
 82.370    782.470    732.045     50.425    528.249    732.116    528.249    528.249    528.249
 82.470    672.876    714.558    -41.683    528.239    714.627    528.239    528.239    528.239
 82.570    666.000    696.931    -30.931    528.227    696.996    528.227    528.227    528.227
 82.670    695.706    679.643     16.063    528.214    679.703    528.214    528.214    528.214
 82.770    626.902    663.017    -36.115    528.199    663.072    528.199    528.199    528.199
 82.870    668.246    647.344     20.902    528.182    647.393    528.182    528.182    528.182
 82.970    629.000    632.947     -3.947    528.163    632.990    528.163    528.163    528.163
 83.070    592.000    620.167    -28.167    528.143    620.203    528.143    528.143    528.143
 83.170    613.902    609.299      4.602    528.121    609.327    528.121    528.121    528.121
 83.270    575.000    600.553    -25.553    528.098    600.572    528.098    528.098    528.098
 83.370    595.000    594.038      0.962    528.073    594.049    528.073    528.073    528.073
 83.470    613.000    589.769     23.231    528.046    589.772    528.046    528.046    528.046
 83.570    533.000    587.663    -54.663    528.017    587.658    528.017    528.017    528.017
 83.670    601.288    587.545     13.743    527.987    587.532    527.987    527.987    527.987
 83.770    604.000    589.141     14.859    527.955    589.121    527.955    527.955    527.955
 83.870    559.626    592.083    -32.458    527.921    592.055    527.921    527.921    527.921
 83.970    583.490    595.908    -12.418    527.886    595.873    527.886    527.886    527.886
 84.070    552.000    600.067    -48.067    527.848    600.026    527.848    527.848    527.848
 84.170    563.000    603.942    -40.942    527.809    603.896    527.809    527.809    527.809
 84.270    598.000    606.893     -8.893    527.769    606.845    527.769    527.769    527.769
 84.370    647.470    608.347     39.123    527.726    608.297    527.726    527.726    527.726
 84.470    662.917    607.897     55.020    527.682    607.849    527.682    527.682    527.682
 84.570    552.799    605.493    -52.694    527.636    605.448    527.636    527.636    527.636
 84.670    565.755    601.392    -35.637    527.588    601.351    527.588    527.588    527.588
 84.770    596.000    596.001     -0.001    527.538    595.964    527.538    527.538    527.538
 84.870    582.000    589.831     -7.831    527.487    589.799    527.487    527.487    527.487
 84.970    515.000    583.370    -68.370    527.433    583.343    527.433    527.433    527.433
 85.070    591.000    577.028     13.972    527.378    577.005    527.378    527.378    527.378
 85.170    558.000    571.115    -13.115    527.322    571.096    527.322    527.322    527.322
 85.270    603.000    565.843     37.157    527.263    565.827    527.263    527.263    527.263
 85.370    511.559    561.333    -49.774    527.202    561.320    527.202    527.202    527.202
 85.470    601.766    557.628     44.138    527.140    557.618    527.140    527.140    527.140
 85.570    560.000    554.714      5.286    527.076    554.705    527.076    527.076    527.076
 85.670    564.000    552.531     11.469    527.010    552.523    527.010    527.010    527.010
 85.770    528.000    551.003    -23.003    526.942    550.995    526.942    526.942    526.942
 85.870    539.000    550.049    -11.049    526.872    550.041    526.872    526.872    526.872
 85.970    537.480    549.604    -12.123    526.801    549.596    526.801    526.801    526.801
 86.070    594.396    549.618     44.779    526.728    549.609    526.728    526.728    526.728
 86.170    546.000    550.074     -4.074    526.652    550.064    526.652    526.652    526.652
 86.270    531.000    550.986    -19.986    526.575    550.974    526.575    526.575    526.575
 86.370    593.673    552.398     41.275    526.496    552.384    526.496    526.496    526.496
 86.470    526.000    554.385    -28.385    526.416    554.369    526.416    526.416    526.416
 86.570    588.000    557.046     30.954    526.333    557.026    526.333    526.333    526.333
 86.670    611.913    560.492     51.422    526.249    560.468    526.249    526.249    526.249
 86.770    593.655    564.837     28.818    526.162    564.808    526.162    526.162    526.162
 86.870    600.000    570.184     29.816    526.074    570.148    526.074    526.074    526.074
 86.970    541.883    576.604    -34.721    525.984    576.559    525.984    525.984    525.984
 87.070    602.929    584.111     18.817    525.892    584.058    525.892    525.892    525.892
 87.170    612.000    592.645     19.355    525.798    592.582    525.798    525.798    525.798
 87.270    618.000    602.042     15.958    525.702    601.968    525.702    525.702    525.702
 87.370    626.000    612.017     13.983    525.604    611.932    525.604    525.604    525.604
 87.470    657.000    622.154     34.846    525.505    622.059    525.505    525.505    525.505
 87.570    583.074    631.900    -48.826    525.403    631.797    525.403    525.403    525.403
 87.670    636.000    640.586     -4.586    525.300    640.475    525.300    525.300    525.300
 87.770    689.000    647.491     41.509    525.195    647.377    525.195    525.195    525.195
 87.870    676.878    651.972     24.906    525.088    651.857    525.088    525.088    525.088
 87.970    615.731    653.616    -37.885    524.979    653.504    524.979    524.979    524.979
 88.070    648.000    652.372     -4.372    524.868    652.267    524.868    524.868    524.868
 88.170    701.264    648.567     52.697    524.755    648.472    524.755    524.755    524.755
 88.270    664.010    642.803     21.207    524.640    642.720    524.640    524.640    524.640
 88.370    668.000    635.818     32.182    524.523    635.748    524.523    524.523    524.523
 88.470    643.000    628.369     14.631    524.405    628.312    524.405    524.405    524.405
 88.570    613.000    621.162     -8.162    524.284    621.117    524.284    524.284    524.284
 88.670    618.364    614.810      3.554    524.162    614.778    524.162    524.162    524.162
 88.770    577.000    609.800    -32.800    524.038    609.779    524.038    524.038    524.038
 88.870    577.000    606.469    -29.469    523.912    606.458    523.912    523.912    523.912
 88.970    587.000    604.991    -17.991    523.784    604.990    523.784    523.784    523.784
 89.070    582.000    605.376    -23.376    523.654    605.385    523.654    523.654    523.654
 89.170    621.295    607.477     13.818    523.522    607.495    523.522    523.522    523.522
 89.270    609.000    610.998     -1.998    523.388    611.024    523.388    523.388    523.388
 89.370    584.599    615.509    -30.910    523.252    615.544    523.252    523.252    523.252
 89.470    594.000    620.470    -26.470    523.115    620.513    523.115    523.115    523.115
 89.570    647.000    625.246     21.754    522.975    625.296    522.975    522.975    522.975
 89.670    654.681    629.159     25.522    522.834    629.216    522.834    522.834    522.834
 89.770    613.575    631.569    -17.995    522.691    631.631    522.691    522.691    522.691
 89.870    641.000    631.989      9.011    522.546    632.054    522.546    522.546    522.546
 89.970    613.146    630.198    -17.052    522.399    630.264    522.399    522.399    522.399
 90.070    659.000    626.290     32.710    522.250    626.355    522.250    522.250    522.250
 90.170    597.045    620.623    -23.578    522.099    620.684    522.099    522.099    522.099
 90.270    634.000    613.698     20.302    521.946    613.755    521.946    521.946    521.946
 90.370    567.103    606.051    -38.948    521.792    606.102    521.792    521.792    521.792
 90.470    599.000    598.167      0.833    521.635    598.212    521.635    521.635    521.635
 90.570    639.456    590.455     49.001    521.477    590.493    521.477    521.477    521.477
 90.670    552.000    583.228    -31.228    521.317    583.260    521.317    521.317    521.317
 90.770    564.000    576.710    -12.710    521.155    576.736    521.155    521.155    521.155
 90.870    599.668    571.039     28.629    520.991    571.060    520.991    520.991    520.991
 90.970    503.000    566.281    -63.281    520.825    566.297    520.825    520.825    520.825
 91.070    568.000    562.438      5.562    520.657    562.450    520.657    520.657    520.657
 91.170    515.524    559.471    -43.947    520.488    559.480    520.488    520.488    520.488
 91.270    509.000    557.313    -48.313    520.316    557.319    520.316    520.316    520.316
 91.370    570.000    555.890     14.110    520.143    555.893    520.143    520.143    520.143
 91.470    539.000    555.129    -16.129    519.968    555.130    519.968    519.968    519.968
 91.570    561.482    554.978      6.504    519.791    554.978    519.791    519.791    519.791
 91.670    528.000    555.411    -27.411    519.613    555.409    519.613    519.613    519.613
 91.770    528.000    556.431    -28.431    519.432    556.428    519.432    519.432    519.432
 91.870    552.000    558.081     -6.081    519.250    558.076    519.250    519.250    519.250
 91.970    559.000    560.433     -1.433    519.066    560.426    519.066    519.066    519.066
 92.070    544.000    563.596    -19.596    518.880    563.587    518.880    518.880    518.880
 92.170    549.510    567.702    -18.191    518.692    567.690    518.692    518.692    518.692
 92.270    566.000    572.901     -6.901    518.502    572.886    518.502    518.502    518.502
 92.370    540.000    579.352    -39.352    518.311    579.334    518.311    518.311    518.311
 92.470    588.000    587.207      0.793    518.118    587.184    518.118    518.118    518.118
 92.570    604.876    596.593      8.283    517.923    596.565    517.923    517.923    517.923
 92.670    588.000    607.603    -19.603    517.726    607.569    517.726    517.726    517.726
 92.770    651.793    620.272     31.521    517.528    620.232    517.528    517.528    517.528
 92.870    559.000    634.566    -75.566    517.328    634.520    517.328    517.328    517.328
 92.970    704.000    650.368     53.632    517.126    650.315    517.126    517.126    517.126
 93.070    693.083    667.458     25.624    516.922    667.399    516.922    516.922    516.922
 93.170    654.000    685.514    -31.514    516.716    685.448    516.716    516.716    516.716
 93.270    685.000    704.101    -19.101    516.509    704.030    516.509    516.509    516.509
 93.370    728.978    722.704      6.274    516.300    722.627    516.300    516.300    516.300
 93.470    683.056    740.782    -57.726    516.090    740.702    516.090    516.090    516.090
 93.570    789.000    757.876     31.124    515.877    757.793    515.877    515.877    515.877
 93.670    723.000    773.711    -50.711    515.663    773.627    515.663    515.663    515.663
 93.770    779.000    788.262     -9.262    515.448    788.178    515.448    515.448    515.448
 93.870    776.000    801.722    -25.722    515.230    801.638    515.230    515.230    515.230
 93.970    787.690    814.391    -26.701    515.011    814.308    515.011    515.011    515.011
 94.070    816.000    826.545    -10.545    514.791    826.463    514.791    514.791    514.791
 94.170    811.000    838.350    -27.350    514.568    838.270    514.568    514.568    514.568
 94.270    849.627    849.847     -0.219    514.344    849.768    514.344    514.344    514.344
 94.370    820.000    861.005    -41.005    514.119    860.929    514.119    514.119    514.119
 94.470    837.621    871.871    -34.250    513.891    871.798    513.891    513.891    513.891
 94.570    886.000    882.499      3.501    513.662    882.430    513.662    513.662    513.662
 94.670    842.650    892.936    -50.286    513.432    892.870    513.432    513.432    513.432
 94.770    890.000    903.098    -13.098    513.200    903.036    513.200    513.200    513.200
 94.870    907.754    912.647     -4.893    512.966    912.590    512.966    512.966    512.966
 94.970    859.683    920.932    -61.249    512.731    920.880    512.731    512.731    512.731
 95.070    932.000    927.003      4.997    512.494    926.958    512.494    512.494    512.494
 95.170    963.000    929.741     33.259    512.256    929.703    512.256    512.256    512.256
 95.270    924.000    928.063     -4.063    512.016    928.034    512.016    512.016    512.016
 95.370    945.000    921.212     23.788    511.775    921.191    511.775    511.775    511.775
 95.470    892.684    909.008    -16.325    511.532    908.995    511.532    511.532    511.532
 95.570    914.000    891.957     22.043    511.288    891.950    511.288    511.288    511.288
 95.670    904.946    871.159     33.788    511.042    871.157    511.042    511.042    511.042
 95.770    802.000    848.093    -46.093    510.795    848.095    510.795    510.795    510.795
 95.870    841.000    824.388     16.612    510.546    824.392    510.546    510.546    510.546
 95.970    771.909    801.659    -29.749    510.296    801.662    510.296    510.296    510.296
 96.070    814.410    781.416     32.994    510.044    781.419    510.044    510.044    510.044
 96.170    812.000    765.033     46.967    509.791    765.032    509.791    509.791    509.791
 96.270    807.345    753.723     53.622    509.537    753.718    509.537    509.537    509.537
 96.370    810.384    748.536     61.848    509.281    748.526    509.281    509.281    509.281
 96.470    797.000    750.350     46.650    509.024    750.333    509.024    509.024    509.024
 96.570    792.000    759.863     32.137    508.765    759.838    508.765    508.765    508.765
 96.670    772.000    777.579     -5.579    508.505    777.546    508.505    508.505    508.505
 96.770    797.000    803.794     -6.794    508.244    803.753    508.244    508.244    508.244
 96.870    850.000    838.566     11.434    507.981    838.516    507.981    507.981    507.981
 96.970    900.000    881.684     18.316    507.718    881.625    507.718    507.718    507.718
 97.070    928.000    932.621     -4.621    507.452    932.553    507.452    507.452    507.452
 97.170    932.558    990.482    -57.924    507.186    990.406    507.186    507.186    507.186
 97.270   1000.673   1053.962    -53.289    506.918   1053.880    506.918    506.918    506.918
 97.370   1123.000   1121.295      1.705    506.649   1121.208    506.649    506.649    506.649
 97.470   1206.000   1190.225     15.775    506.379   1190.135    506.379    506.379    506.379
 97.570   1267.217   1257.998      9.219    506.108   1257.910    506.108    506.108    506.108
 97.670   1348.000   1321.406     26.594    505.836   1321.322    505.836    505.836    505.836
 97.770   1383.000   1376.924      6.076    505.562   1376.849    505.562    505.562    505.562
 97.870   1420.000   1421.007     -1.007    505.287   1420.944    505.287    505.287    505.287
 97.970   1479.000   1450.553     28.447    505.011   1450.505    505.011    505.011    505.011
 98.070   1485.000   1463.447     21.553    504.734   1463.417    504.734    504.734    504.734
 98.170   1512.972   1459.022     53.950    504.456   1459.010    504.456    504.456    504.456
 98.270   1470.000   1438.151     31.849    504.177   1438.156    504.177    504.177    504.177
 98.370   1419.867   1403.037     16.830    503.896   1403.057    503.896    503.896    503.896
 98.470   1391.000   1356.744     34.256    503.615   1356.776    503.615    503.615    503.615
 98.570   1341.000   1302.717     38.283    503.333   1302.757    503.333    503.333    503.333
 98.670   1280.000   1244.409     35.591    503.049   1244.454    503.049    503.049    503.049
 98.770   1192.000   1185.050      6.950    502.765   1185.098    502.765    502.765    502.765
 98.870   1153.000   1127.528     25.472    502.480   1127.575    502.480    502.480    502.480
 98.970   1130.086   1074.342     55.744    502.193   1074.385    502.193    502.193    502.193
 99.070   1016.000   1027.602    -11.602    501.906   1027.640    501.906    501.906    501.906
 99.170   1003.000    989.038     13.962    501.618    989.069    501.618    501.618    501.618
 99.270    903.000    960.075    -57.075    501.329    960.099    501.329    501.329    501.329
 99.370    952.000    941.908     10.092    501.039    941.924    501.039    501.039    501.039
 99.470    881.542    935.317    -53.775    500.749    935.327    500.749    500.749    500.749
 99.570    941.000    940.843      0.157    500.457    940.846    500.457    500.457    500.457
 99.670    972.000    958.755     13.245    500.165    958.752    500.165    500.165    500.165
 99.770    983.000    989.050     -6.050    499.872    989.044    499.872    499.872    499.872
 99.870   1087.060   1031.450     55.610    499.578   1031.441    499.578    499.578    499.578
 99.970   1045.000   1085.380    -40.380    499.284   1085.371    499.284    499.284    499.284
100.070   1176.000   1149.939     26.061    498.988   1149.931    498.988    498.988    498.988
100.170   1196.000   1223.894    -27.894    498.692   1223.892    498.692    498.692    498.692
100.270   1315.000   1305.577      9.423    498.396   1305.581    498.396    498.396    498.396
100.370   1480.000   1392.882     87.118    498.099   1392.898    498.099    498.099    498.099
100.470   1535.000   1483.256     51.744    497.801   1483.286    497.801    497.801    497.801
100.570   1591.000   1573.746     17.254    497.502   1573.793    497.502    497.502    497.502
100.670   1666.000   1661.154      4.846    497.203   1661.220    497.203    497.203    497.203
100.770   1754.000   1742.292     11.708    496.904   1742.380    496.904    496.904    496.904
100.870   1789.451   1814.299    -24.848    496.604   1814.410    496.604    496.604    496.604
100.970   1821.000   1874.890    -53.890    496.303   1875.023    496.303    496.303    496.303
101.070   1994.000   1922.429     71.571    496.002   1922.583    496.002    496.002    496.002
101.170   1948.000   1955.808     -7.808    495.700   1955.981    495.700    495.700    495.700
101.270   2036.000   1974.239     61.761    495.399   1974.427    495.399    495.399    495.399
101.370   2031.000   1977.131     53.869    495.096   1977.333    495.096    495.096    495.096
101.470   1866.917   1964.183    -97.267    494.794   1964.395    494.794    494.794    494.794
101.570   1973.554   1935.665     37.889    494.491   1935.883    494.491    494.491    494.491
101.670   1947.000   1892.737     54.263    494.187   1892.958    494.187    494.187    494.187
101.770   1824.000   1837.598    -13.598    493.884   1837.818    493.884    493.884    493.884
101.870   1790.000   1773.338     16.662    493.580   1773.553    493.580    493.580    493.580
101.970   1727.000   1703.549     23.451    493.276   1703.756    493.276    493.276    493.276
102.070   1569.964   1631.850    -61.886    492.971   1632.047    492.971    492.971    492.971
102.170   1578.000   1561.483     16.517    492.667   1561.668    492.667    492.667    492.667
102.270   1484.000   1495.061    -11.061    492.362   1495.233    492.362    492.362    492.362
102.370   1396.137   1434.452    -38.315    492.057   1434.610    492.057    492.057    492.057
102.470   1372.000   1380.760     -8.760    491.753   1380.906    491.753    491.753    491.753
102.570   1326.000   1334.358     -8.358    491.448   1334.493    491.448    491.448    491.448
102.670   1344.391   1294.940     49.450    491.143   1295.065    491.143    491.143    491.143
102.770   1274.061   1261.602     12.459    490.838   1261.717    490.838    490.838    490.838
102.870   1257.114   1232.941     24.172    490.533   1233.051    490.533    490.533    490.533
102.970   1195.120   1207.206    -12.085    490.228   1207.311    490.228    490.228    490.228
103.070   1150.000   1182.519    -32.519    489.923   1182.621    489.923    489.923    489.923
103.170   1178.305   1157.145     21.160    489.618   1157.246    489.618    489.618    489.618
103.270   1145.000   1129.670     15.330    489.314   1129.769    489.314    489.314    489.314
103.370   1083.000   1099.247    -16.247    489.010   1099.345    489.010    489.010    489.010
103.470   1035.873   1065.644    -29.771    488.705   1065.740    488.705    488.705    488.705
103.570   1094.788   1029.162     65.626    488.402   1029.256    488.402    488.402    488.402
103.670   1016.000    990.479     25.521    488.098    990.569    488.098    488.098    488.098
103.770    951.000    950.467      0.533    487.795    950.552    487.795    487.795    487.795
103.870    870.428    910.047    -39.619    487.492    910.127    487.492    487.492    487.492
103.970    876.000    870.095      5.905    487.189    870.169    487.189    487.189    487.189
104.070    827.000    831.408     -4.408    486.887    831.475    486.887    486.887    486.887
104.170    816.096    794.639     21.457    486.585    794.700    486.585    486.585    486.585
104.270    812.230    760.316     51.914    486.284    760.370    486.284    486.284    486.284
104.370    753.000    728.824     24.176    485.983    728.871    485.983    485.983    485.983
104.470    702.229    700.410      1.820    485.682    700.451    485.682    485.682    485.682
104.570    710.000    675.190     34.810    485.383    675.225    485.383    485.383    485.383
104.670    682.000    653.162     28.838    485.084    653.192    485.084    485.084    485.084
104.770    654.989    634.225     20.764    484.785    634.250    484.785    484.785    484.785
104.870    634.000    618.202     15.798    484.487    618.223    484.487    484.487    484.487
104.970    614.000    604.863      9.137    484.190    604.880    484.190    484.190    484.190
105.070    642.000    593.948     48.052    483.894    593.962    483.894    483.894    483.894
105.170    617.000    585.190     31.810    483.598    585.200    483.598    483.598    483.598
105.270    591.209    578.327     12.881    483.304    578.335    483.304    483.304    483.304
105.370    540.597    573.125    -32.528    483.010    573.129    483.010    483.010    483.010
105.470    524.855    569.376    -44.521    482.717    569.378    482.717    482.717    482.717
105.570    567.000    566.913      0.087    482.425    566.913    482.425    482.425    482.425
105.670    559.676    565.606     -5.931    482.133    565.604    482.133    482.133    482.133
105.770    579.041    565.364     13.677    481.843    565.360    481.843    481.843    481.843
105.870    580.000    566.131     13.869    481.554    566.124    481.554    481.554    481.554
105.970    588.000    567.878     20.122    481.266    567.869    481.266    481.266    481.266
106.070    549.000    570.604    -21.604    480.979    570.592    480.979    480.979    480.979
106.170    594.000    574.323     19.677    480.694    574.309    480.694    480.694    480.694
106.270    582.000    579.061      2.939    480.409    579.045    480.409    480.409    480.409
106.370    564.000    584.847    -20.847    480.126    584.827    480.126    480.126    480.126
106.470    558.000    591.701    -33.701    479.844    591.679    479.844    479.844    479.844
106.570    590.000    599.629     -9.629    479.563    599.603    479.563    479.563    479.563
106.670    616.159    608.607      7.552    479.284    608.579    479.284    479.284    479.284
106.770    631.000    618.579     12.421    479.006    618.547    479.006    479.006    479.006
106.870    632.000    629.444      2.556    478.729    629.409    478.729    478.729    478.729
106.970    667.000    641.048     25.952    478.454    641.010    478.454    478.454    478.454
107.070    625.609    653.177    -27.568    478.181    653.136    478.181    478.181    478.181
107.170    661.000    665.629     -4.629    477.909    665.585    477.909    477.909    477.909
107.270    632.077    678.082    -46.005    477.639    678.037    477.639    477.639    477.639
107.370    702.000    690.193     11.807    477.370    690.146    477.370    477.370    477.370
107.470    642.277    701.584    -59.307    477.103    701.536    477.103    477.103    477.103
107.570    700.011    711.869    -11.858    476.838    711.822    476.838    476.838    476.838
107.670    750.000    720.684     29.316    476.574    720.638    476.574    476.574    476.574
107.770    704.000    727.733    -23.733    476.312    727.688    476.312    476.312    476.312
107.870    680.000    732.837    -52.837    476.052    732.795    476.052    476.052    476.052
107.970    724.000    735.978    -11.978    475.795    735.939    475.795    475.795    475.795
108.070    715.000    737.302    -22.302    475.539    737.267    475.539    475.539    475.539
108.170    681.000    737.104    -56.104    475.285    737.072    475.285    475.285    475.285
108.270    749.712    735.776     13.936    475.033    735.749    475.033    475.033    475.033
108.370    695.000    733.752    -38.752    474.783    733.729    474.783    474.783    474.783
108.470    712.000    731.453    -19.453    474.535    731.433    474.535    474.535    474.535
108.570    717.000    729.242    -12.242    474.290    729.227    474.290    474.290    474.290
108.670    715.000    727.407    -12.407    474.046    727.395    474.046    474.046    474.046
108.770    684.000    726.137    -42.137    473.805    726.129    473.805    473.805    473.805
108.870    690.000    725.521    -35.521    473.566    725.516    473.566    473.566    473.566
108.970    710.000    725.542    -15.542    473.330    725.541    473.330    473.330    473.330
109.070    722.000    726.082     -4.082    473.096    726.084    473.096    473.096    473.096
109.170    717.000    726.927     -9.927    472.865    726.932    472.865    472.865    472.865
109.270    726.000    727.779     -1.779    472.636    727.787    472.636    472.636    472.636
109.370    704.000    728.278    -24.278    472.409    728.289    472.409    472.409    472.409
109.470    722.335    728.039     -5.704    472.185    728.053    472.185    472.185    472.185
109.570    700.000    726.688    -26.688    471.964    726.705    471.964    471.964    471.964
109.670    708.000    723.920    -15.920    471.746    723.939    471.746    471.746    471.746
109.770    701.000    719.537    -18.537    471.530    719.558    471.530    471.530    471.530
109.870    700.138    713.480    -13.343    471.317    713.503    471.317    471.317    471.317
109.970    659.802    705.830    -46.028    471.107    705.853    471.107    471.107    471.107
110.070    696.000    696.785     -0.785    470.900    696.808    470.900    470.900    470.900
110.170    639.684    686.624    -46.940    470.695    686.647    470.695    470.695    470.695
110.270    686.000    675.667     10.333    470.494    675.690    470.494    470.494    470.494
110.370    653.000    664.244    -11.244    470.296    664.266    470.296    470.296    470.296
110.470    615.652    652.668    -37.016    470.101    652.688    470.101    470.101    470.101
110.570    656.871    641.223     15.648    469.909    641.241    469.909    469.909    469.909
110.670    654.000    630.155     23.845    469.720    630.172    469.720    469.720    469.720
110.770    590.377    619.672    -29.295    469.535    619.687    469.535    469.535    469.535
110.870    553.986    609.942    -55.956    469.353    609.954    469.353    469.353    469.353
110.970    556.000    601.088    -45.088    469.174    601.098    469.174    469.174    469.174
111.070    581.534    593.196    -11.661    468.999    593.204    468.999    468.999    468.999
111.170    620.000    586.313     33.687    468.827    586.319    468.827    468.827    468.827
111.270    596.000    580.455     15.545    468.659    580.459    468.659    468.659    468.659
111.370    588.000    575.607     12.393    468.494    575.609    468.494    468.494    468.494
111.470    607.000    571.730     35.270    468.333    571.731    468.333    468.333    468.333
111.570    569.000    568.770      0.230    468.176    568.769    468.176    468.176    468.176
111.670    540.000    566.656    -26.656    468.022    566.654    468.022    468.022    468.022
111.770    566.856    565.312      1.544    467.873    565.308    467.873    467.873    467.873
111.870    562.000    564.656     -2.656    467.727    564.651    467.727    467.727    467.727
111.970    545.000    564.609    -19.609    467.585    564.603    467.585    467.585    467.585
112.070    613.000    565.095     47.905    467.447    565.088    467.447    467.447    467.447
112.170    569.000    566.040      2.960    467.313    566.032    467.313    467.313    467.313
112.270    569.000    567.389      1.611    467.183    567.380    467.183    467.183    467.183
112.370    532.347    569.088    -36.742    467.058    569.079    467.058    467.058    467.058
112.470    611.000    571.097     39.903    466.936    571.087    466.936    466.936    466.936
112.570    536.000    573.384    -37.384    466.819    573.374    466.819    466.819    466.819
112.670    573.000    575.928     -2.928    466.706    575.917    466.706    466.706    466.706
112.770    606.043    578.742     27.301    466.598    578.730    466.598    466.598    466.598
112.870    543.415    581.835    -38.420    466.494    581.824    466.494    466.494    466.494
112.970    621.896    585.232     36.664    466.394    585.220    466.394    466.394    466.394
113.070    592.000    588.971      3.029    466.300    588.959    466.300    466.300    466.300
113.170    564.900    593.110    -28.210    466.209    593.097    466.209    466.209    466.209
113.270    601.315    597.721      3.594    466.124    597.708    466.124    466.124    466.124
113.370    593.919    602.900     -8.982    466.043    602.886    466.043    466.043    466.043
113.470    603.000    608.769     -5.769    465.967    608.754    465.967    465.967    465.967
113.570    566.578    615.482    -48.904    465.896    615.466    465.896    465.896    465.896
113.670    570.349    623.239    -52.890    465.830    623.221    465.830    465.830    465.830
113.770    687.614    632.290     55.324    465.769    632.270    465.769    465.769    465.769
113.870    693.218    642.955     50.264    465.713    642.932    465.713    465.713    465.713
113.970    616.599    655.631    -39.032    465.662    655.605    465.662    465.662    465.662
114.070    632.041    670.817    -38.776    465.616    670.787    465.616    465.616    465.616
114.170    698.000    689.125      8.875    465.576    689.090    465.576    465.576    465.576
114.270    675.786    711.300    -35.515    465.541    711.258    465.541    465.541    465.541
114.370    783.000    738.240     44.760    465.511    738.189    465.511    465.511    465.511
114.470    799.000    771.006     27.994    465.487    770.945    465.487    465.487    465.487
114.570    833.621    810.841     22.780    465.468    810.767    465.468    465.468    465.468
114.670    870.275    859.168     11.107    465.455    859.080    465.455    465.455    465.455
114.770    941.393    917.595     23.798    465.448    917.490    465.448    465.448    465.448
114.870    997.000    987.898      9.102    465.446    987.772    465.446    465.446    465.446
114.970   1059.797   1071.996    -12.198    465.450   1071.845    465.450    465.450    465.450
115.070   1138.000   1171.909    -33.909    465.460   1171.732    465.460    465.460    465.460
115.170   1367.000   1289.707     77.293    465.476   1289.498    465.476    465.476    465.476
115.270   1417.339   1427.427    -10.088    465.498   1427.185    465.498    465.498    465.498
115.370   1692.000   1586.990    105.010    465.526   1586.710    465.526    465.526    465.526
115.470   1824.643   1770.090     54.553    465.560   1769.771    465.560    465.560    465.560
115.570   2049.000   1978.080     70.920    465.600   1977.719    465.600    465.600    465.600
115.670   2266.000   2211.844     54.156    465.647   2211.439    465.647    465.647    465.647
115.770   2510.000   2471.670     38.330    465.699   2471.222    465.699    465.699    465.699
115.870   2809.000   2757.131     51.869    465.759   2756.640    465.759    465.759    465.759
115.970   3102.000   3066.969     35.031    465.825   3066.438    465.825    465.825    465.825
116.070   3341.996   3399.006    -57.010    465.897   3398.439    465.897    465.897    465.897
116.170   3627.513   3750.075   -122.561    465.976   3749.477    465.976    465.976    465.976
116.270   4222.117   4115.970    106.147    466.062   4115.348    466.062    466.062    466.062
116.370   4582.000   4491.438     90.562    466.154   4490.801    466.154    466.154    466.154
116.470   4946.000   4870.189     75.811    466.253   4869.547    466.253    466.253    466.253
116.570   5309.499   5244.947     64.552    466.360   5244.312    466.360    466.360    466.360
116.670   5644.000   5607.540     36.460    466.473   5606.925    466.473    466.473    466.473
116.770   5778.490   5949.051   -170.560    466.593   5948.471    466.593    466.593    466.593
116.870   6261.000   6260.057      0.943    466.721   6259.527    466.721    466.721    466.721
116.970   6656.000   6530.991    125.009    466.855   6530.525    466.855    466.855    466.855
117.070   6762.877   6752.653     10.224    466.997   6752.265    466.997    466.997    466.997
117.170   6879.897   6916.857    -36.960    467.147   6916.559    467.147    467.147    467.147
117.270   7187.000   7017.168    169.832    467.303   7016.967    467.303    467.303    467.303
117.370   6983.000   7049.577    -66.577    467.468   7049.477    467.468    467.468    467.468
117.470   7021.000   7012.978      8.022    467.640   7012.978    467.640    467.640    467.640
117.570   7032.247   6909.301    122.947    467.819   6909.395    467.819    467.819    467.819
117.670   6639.000   6743.264   -104.264    468.006   6743.445    468.006    468.006    468.006
117.770   6498.408   6521.824    -23.416    468.202   6522.079    468.202    468.202    468.202
117.870   6278.439   6253.454     24.985    468.405   6253.769    468.405    468.405    468.405
117.970   5841.000   5947.427   -106.427    468.616   5947.788    468.616    468.616    468.616
118.070   5378.000   5613.196   -235.196    468.835   5613.591    468.835    468.835    468.835
118.170   5154.000   5259.934   -105.934    469.062   5260.348    469.062    469.062    469.062
118.270   5019.992   4896.203    123.789    469.297   4896.625    469.297    469.297    469.297
118.370   4490.000   4529.730    -39.730    469.541   4530.147    469.541    469.541    469.541
118.470   4165.000   4167.347     -2.347    469.793   4167.752    469.793    469.793    469.793
118.570   3879.000   3814.895     64.105    470.054   3815.280    470.054    470.054    470.054
118.670   3425.829   3477.099    -51.270    470.323   3477.458    470.323    470.323    470.323
118.770   3083.000   3157.676    -74.676    470.601   3158.004    470.601    470.601    470.601
118.870   2847.000   2859.353    -12.353    470.887   2859.648    470.887    470.887    470.887
118.970   2551.000   2583.930    -32.930    471.182   2584.190    471.182    471.182    471.182
119.070   2283.000   2332.375    -49.375    471.486   2332.601    471.486    471.486    471.486
119.170   2024.202   2104.928    -80.726    471.800   2105.120    471.800    471.800    471.800
119.270   1837.000   1901.218    -64.218    472.122   1901.379    472.122    472.122    472.122
119.370   1790.913   1720.379     70.534    472.453   1720.510    472.453    472.453    472.453
119.470   1517.000   1561.159    -44.159    472.793   1561.265    472.793    472.793    472.793
119.570   1395.000   1422.032    -27.032    473.143   1422.114    473.143    473.143    473.143
119.670   1295.000   1301.289     -6.289    473.502   1301.351    473.502    473.502    473.502
119.770   1260.000   1197.130     62.870    473.871   1197.176    473.871    473.871    473.871
119.870   1212.000   1107.740    104.260    474.249   1107.772    474.249    474.249    474.249
119.970   1051.000   1031.348     19.652    474.636   1031.369    474.636    474.636    474.636
120.070    962.000    966.277     -4.277    475.034    966.290    475.034    475.034    475.034
120.170    885.000    910.981    -25.981    475.441    910.988    475.441    475.441    475.441
120.270    856.000    864.059     -8.059    475.858    864.062    475.858    475.858    475.858
120.370    804.000    824.274    -20.274    476.285    824.273    476.285    476.285    476.285
120.470    750.000    790.542    -40.542    476.723    790.540    476.723    476.723    476.723
120.570    789.000    761.937     27.063    477.170    761.934    477.170    477.170    477.170
120.670    680.877    737.672    -56.795    477.628    737.669    477.628    477.628    477.628
120.770    680.649    717.087    -36.438    478.095    717.084    478.095    478.095    478.095
120.870    674.000    699.633    -25.633    478.574    699.632    478.574    478.574    478.574
120.970    739.803    684.860     54.943    479.063    684.859    479.063    479.063    479.063
121.070    699.000    672.395     26.605    479.562    672.396    479.562    479.562    479.562
121.170    657.000    661.936     -4.936    480.072    661.938    480.072    480.072    480.072
121.270    640.000    653.234    -13.234    480.593    653.237    480.593    480.593    480.593
121.370    640.127    646.084     -5.957    481.125    646.089    481.125    481.125    481.125
121.470    664.133    640.319     23.813    481.668    640.325    481.668    481.668    481.668
121.570    650.000    635.798     14.202    482.222    635.805    482.222    482.222    482.222
121.670    598.000    632.401    -34.401    482.787    632.409    482.787    482.787    482.787
121.770    634.095    630.025      4.070    483.363    630.035    483.363    483.363    483.363
121.870    567.000    628.579    -61.579    483.950    628.591    483.950    483.950    483.950
121.970    594.000    627.980    -33.980    484.550    627.993    484.550    484.550    484.550
122.070    651.000    628.148     22.852    485.160    628.162    485.160    485.160    485.160
122.170    656.000    629.007     26.993    485.782    629.024    485.782    485.782    485.782
122.270    621.000    630.481     -9.481    486.416    630.500    486.416    486.416    486.416
122.370    609.000    632.492    -23.492    487.062    632.513    487.062    487.062    487.062
122.470    590.113    634.958    -44.845    487.720    634.981    487.720    487.720    487.720
122.570    692.804    637.793     55.011    488.389    637.819    488.389    488.389    488.389
122.670    617.000    640.908    -23.908    489.071    640.936    489.071    489.071    489.071
122.770    655.000    644.204     10.796    489.765    644.236    489.765    489.765    489.765
122.870    629.000    647.581    -18.581    490.471    647.615    490.471    490.471    490.471
122.970    633.404    650.930    -17.527    491.190    650.967    491.190    491.190    491.190
123.070    615.000    654.141    -39.141    491.921    654.181    491.921    491.921    491.921
123.170    661.000    657.100      3.900    492.665    657.142    492.665    492.665    492.665
123.270    603.705    659.694    -55.988    493.421    659.739    493.421    493.421    493.421
123.370    625.692    661.816    -36.124    494.191    661.864    494.191    494.191    494.191
123.470    643.000    663.371    -20.371    494.973    663.421    494.973    494.973    494.973
123.570    699.399    664.278     35.121    495.768    664.330    495.768    495.768    495.768
123.670    651.000    664.480    -13.480    496.576    664.534    496.576    496.576    496.576
123.770    706.000    663.945     42.055    497.398    664.000    497.398    497.398    497.398
123.870    712.774    662.668     50.106    498.232    662.724    498.232    498.232    498.232
123.970    698.953    660.671     38.282    499.081    660.727    499.081    499.081    499.081
124.070    670.000    657.998     12.002    499.942    658.053    499.942    499.942    499.942
124.170    665.000    654.710     10.290    500.818    654.765    500.818    500.818    500.818
124.270    656.000    650.883      5.117    501.707    650.936    501.707    501.707    501.707
124.370    671.000    646.599     24.401    502.609    646.651    502.609    502.609    502.609
124.470    693.736    641.943     51.793    503.526    641.993    503.526    503.526    503.526
124.570    636.000    637.002     -1.002    504.457    637.050    504.457    504.457    504.457
124.670    651.000    631.860     19.140    505.402    631.906    505.402    505.402    505.402
124.770    571.923    626.599    -54.675    506.361    626.642    506.361    506.361    506.361
124.870    620.000    621.294     -1.294    507.335    621.334    507.335    507.335    507.335
124.970    637.000    616.017     20.983    508.323    616.055    508.323    508.323    508.323
