neutron_powder_diffraction_0218
R_wp: 3.963
Temperature (K): 1074.000
Counts: 83441.00
Wavelength (Ã…): 2.52098
COMMENTS
Test file for demonstrating the .xyy file format in Reel1.0
END OF HEADER
   tth       Y_obs     Y_calc      Y_res    Background    Phase_1_Nuc    Phase_1_Mag    Phase_2_Nuc    Phase_2_Mag
  9.970    631.000    569.316     61.684    568.708    569.289    568.708    568.734    568.708
 10.070    543.700    569.448    -25.748    568.772    569.421    568.772    568.798    568.772
 10.170    605.000    569.568     35.432    568.830    569.541    568.830    568.857    568.830
 10.270    575.703    569.689      6.013    568.883    569.662    568.883    568.910    568.883
 10.370    563.755    569.816     -6.061    568.930    569.789    568.930    568.957    568.930
 10.470    586.000    569.951     16.049    568.973    569.924    568.973    569.000    568.973
 10.570    552.597    570.098    -17.501    569.010    570.071    569.010    569.037    569.010
 10.670    553.000    570.261    -17.261    569.042    570.233    569.042    569.069    569.042
 10.770    597.254    570.446     26.808    569.069    570.418    569.069    569.097    569.069
 10.870    600.000    570.661     29.339    569.091    570.633    569.091    569.119    569.091
 10.970    626.000    570.918     55.082    569.108    570.889    569.108    569.136    569.108
 11.070    636.000    571.232     64.768    569.120    571.203    569.120    569.148    569.120
 11.170    579.000    571.627      7.373    569.127    571.598    569.127    569.155    569.127
 11.270    579.000    572.139      6.861    569.129    572.109    569.129    569.158    569.129
 11.370    589.422    572.829     16.594    569.127    572.799    569.127    569.155    569.127
 11.470    582.997    573.832      9.166    569.120    573.800    569.120    569.149    569.120
 11.570    531.872    575.523    -43.651    569.108    575.489    569.108    569.138    569.108
 11.670    592.000    579.014     12.986    569.091    578.978    569.091    569.122    569.091
 11.770    552.948    587.008    -34.060    569.070    586.967    569.070    569.101    569.070
 11.870    681.000    604.050     76.950    569.044    604.000    569.044    569.075    569.044
 11.970    621.934    633.887    -11.954    569.014    633.821    569.014    569.045    569.014
 12.070    647.105    672.832    -25.728    568.979    672.743    568.979    569.010    568.979
 12.170    622.000    703.675    -81.675    568.940    703.568    568.940    568.971    568.940
 12.270    718.000    704.642     13.358    568.896    704.535    568.896    568.928    568.896
 12.370    659.324    674.815    -15.491    568.848    674.723    568.848    568.881    568.848
 12.470    604.000    635.597    -31.597    568.796    635.516    568.796    568.840    568.796
 12.570    593.428    604.966    -11.538    568.740    604.901    568.740    568.785    568.740
 12.670    572.000    587.232    -15.232    568.679    587.175    568.679    568.726    568.679
 12.770    575.000    578.820     -3.820    568.614    578.768    568.614    568.661    568.614
 12.870    576.000    575.107      0.893    568.546    575.056    568.546    568.593    568.546
 12.970    523.000    573.283    -50.283    568.473    573.233    568.473    568.520    568.473
 13.070    595.482    572.178     23.305    568.396    572.128    568.396    568.443    568.396
 13.170    612.874    571.395     41.480    568.315    571.345    568.315    568.363    568.315
 13.270    611.000    570.796     40.204    568.230    570.746    568.230    568.279    568.230
 13.370    552.207    570.322    -18.116    568.141    570.267    568.141    568.196    568.141
 13.470    614.534    569.927     44.607    568.049    569.871    568.049    568.104    568.049
 13.570    555.000    569.591    -14.591    567.953    569.535    567.953    568.008    567.953
 13.670    565.676    569.298     -3.622    567.852    569.241    567.852    567.908    567.852
 13.770    510.000    569.037    -59.037    567.749    568.980    567.749    567.805    567.749
 13.870    524.128    568.800    -44.672    567.641    568.743    567.641    567.698    567.641
 13.970    553.000    568.581    -15.581    567.530    568.523    567.530    567.587    567.530
 14.070    529.000    568.375    -39.375    567.415    568.317    567.415    567.473    567.415
 14.170    556.076    568.179    -12.104    567.297    568.122    567.297    567.355    567.297
 14.270    573.000    567.991      5.009    567.176    567.933    567.176    567.233    567.176
 14.370    570.000    567.809      2.191    567.050    567.751    567.050    567.108    567.050
 14.470    591.000    567.631     23.369    566.922    567.573    566.922    566.980    566.922
 14.570    612.357    567.457     44.900    566.790    567.398    566.790    566.849    566.790
 14.670    536.000    567.284    -31.284    566.655    567.225    566.655    566.714    566.655
 14.770    554.000    567.115    -13.115    566.516    567.056    566.516    566.575    566.516
 14.870    543.000    566.946    -23.946    566.374    566.886    566.374    566.434    566.374
 14.970    586.306    566.775     19.531    566.229    566.715    566.229    566.289    566.229
 15.070    581.630    566.604     15.026    566.081    566.543    566.081    566.141    566.081
 15.170    533.000    566.432    -33.432    565.930    566.371    565.930    565.990    565.930
 15.270    518.000    566.260    -48.260    565.775    566.198    565.775    565.836    565.775
 15.370    540.000    566.086    -26.086    565.618    566.024    565.618    565.679    565.618
 15.470    552.000    565.911    -13.911    565.457    565.849    565.457    565.519    565.457
 15.570    525.094    565.735    -40.641    565.294    565.672    565.294    565.356    565.294
 15.670    532.000    565.558    -33.558    565.127    565.495    565.127    565.191    565.127
 15.770    610.694    565.383     45.311    564.958    565.316    564.958    565.024    564.958
 15.870    565.000    565.202     -0.202    564.786    565.135    564.786    564.853    564.786
 15.970    559.468    565.020     -5.552    564.611    564.951    564.611    564.680    564.611
 16.070    557.912    564.835     -6.923    564.433    564.765    564.433    564.502    564.433
 16.170    579.000    564.648     14.352    564.253    564.578    564.253    564.322    564.253
 16.270    596.082    564.459     31.623    564.070    564.388    564.070    564.140    564.070
 16.370    592.462    564.268     28.194    563.884    564.197    563.884    563.955    563.884
 16.470    537.000    564.075    -27.075    563.695    564.003    563.695    563.767    563.695
 16.570    536.000    563.880    -27.880    563.504    563.808    563.504    563.576    563.504
 16.670    590.000    563.683     26.317    563.311    563.610    563.311    563.383    563.311
 16.770    508.000    563.483    -55.483    563.114    563.411    563.114    563.187    563.114
 16.870    557.730    563.282     -5.553    562.916    563.209    562.916    562.989    562.916
 16.970    572.419    563.079      9.340    562.715    563.005    562.715    562.788    562.715
 17.070    608.000    562.874     45.126    562.511    562.800    562.511    562.585    562.511
 17.170    558.000    562.667     -4.667    562.305    562.592    562.305    562.380    562.305
 17.270    581.000    562.458     18.542    562.097    562.382    562.097    562.172    562.097
 17.370    564.000    562.247      1.753    561.887    562.171    561.887    561.962    561.887
 17.470    577.000    562.036     14.964    561.674    561.960    561.674    561.750    561.674
 17.570    602.118    561.821     40.297    561.459    561.745    561.459    561.535    561.459
 17.670    549.139    561.605    -12.466    561.242    561.527    561.242    561.319    561.242
 17.770    543.364    561.386    -18.022    561.022    561.308    561.022    561.100    561.022
 17.870    551.000    561.166    -10.166    560.801    561.087    560.801    560.879    560.801
 17.970    531.000    560.944    -29.944    560.577    560.864    560.577    560.656    560.577
 18.070    565.000    560.721      4.279    560.351    560.640    560.351    560.433    560.351
 18.170    586.000    560.495     25.505    560.124    560.413    560.124    560.206    560.124
 18.270    548.920    560.268    -11.347    559.894    560.185    559.894    559.977    559.894
 18.370    593.000    560.038     32.962    559.662    559.955    559.662    559.746    559.662
 18.470    603.123    559.807     43.316    559.429    559.724    559.429    559.513    559.429
 18.570    560.401    559.575      0.826    559.193    559.490    559.193    559.278    559.193
 18.670    547.521    559.341    -11.820    558.956    559.256    558.956    559.041    558.956
 18.770    540.000    559.105    -19.105    558.717    559.019    558.717    558.803    558.717
 18.870    506.000    558.868    -52.868    558.476    558.781    558.476    558.562    558.476
 18.970    594.241    558.629     35.612    558.233    558.542    558.233    558.320    558.233
 19.070    593.986    558.389     35.597    557.989    558.301    557.989    558.077    557.989
 19.170    562.000    558.148      3.852    557.743    558.059    557.743    557.831    557.743
 19.270    554.231    557.906     -3.675    557.495    557.817    557.495    557.584    557.495
 19.370    539.000    557.663    -18.663    557.246    557.573    557.246    557.336    557.246
 19.470    537.000    557.418    -20.418    556.995    557.327    556.995    557.085    556.995
 19.570    566.000    557.171      8.829    556.742    557.080    556.742    556.834    556.742
 19.670    562.000    556.923      5.077    556.488    556.831    556.488    556.580    556.488
 19.770    571.000    556.675     14.325    556.232    556.581    556.232    556.326    556.232
 19.870    524.000    556.429    -32.429    555.975    556.330    555.975    556.074    555.975
 19.970    512.571    556.181    -43.610    555.717    556.079    555.717    555.818    555.717
 20.070    587.337    555.942     31.395    555.457    555.839    555.457    555.559    555.457
 20.170    590.000    555.698     34.302    555.196    555.595    555.196    555.299    555.196
 20.270    537.692    555.445    -17.753    554.933    555.341    554.933    555.037    554.933
 20.370    538.078    555.191    -17.113    554.669    555.085    554.669    554.774    554.669
 20.470    512.007    554.935    -42.928    554.403    554.829    554.403    554.510    554.403
 20.570    557.647    554.679      2.968    554.137    554.572    554.137    554.244    554.137
 20.670    567.000    554.422     12.578    553.869    554.314    553.869    553.978    553.869
 20.770    523.040    554.165    -31.124    553.600    554.055    553.600    553.710    553.600
 20.870    520.000    553.907    -33.907    553.330    553.796    553.330    553.440    553.330
 20.970    568.639    553.649     14.990    553.059    553.537    553.059    553.170    553.059
 21.070    556.301    553.390      2.911    552.786    553.277    552.786    552.899    552.786
 21.170    587.000    553.131     33.869    552.513    553.017    552.513    552.627    552.513
 21.270    546.000    552.872     -6.872    552.238    552.757    552.238    552.353    552.238
 21.370    513.000    552.614    -39.614    551.962    552.497    551.962    552.079    551.962
 21.470    538.000    552.355    -14.355    551.686    552.237    551.686    551.803    551.686
 21.570    581.000    552.097     28.903    551.408    551.978    551.408    551.527    551.408
 21.670    586.000    551.839     34.161    551.129    551.718    551.129    551.250    551.129
 21.770    533.000    551.582    -18.582    550.850    551.460    550.850    550.972    550.850
 21.870    551.981    551.325      0.655    550.569    551.202    550.569    550.693    550.569
 21.970    582.444    551.072     31.372    550.288    550.947    550.288    550.413    550.288
 22.070    556.101    550.848      5.254    550.006    550.721    550.006    550.132    550.006
 22.170    603.000    550.707     52.293    549.723    550.579    549.723    549.851    549.723
 22.270    528.005    550.482    -22.477    549.439    550.352    549.439    549.569    549.439
 22.370    540.000    550.236    -10.236    549.155    550.105    549.155    549.286    549.155
 22.470    502.000    549.995    -47.995    548.869    549.862    548.869    549.003    548.869
 22.570    558.000    549.758      8.242    548.583    549.624    548.583    548.719    548.583
 22.670    586.000    549.528     36.472    548.297    549.391    548.297    548.434    548.297
 22.770    531.283    549.343    -18.059    548.009    549.204    548.009    548.148    548.009
 22.870    553.000    549.138      3.862    547.722    548.997    547.722    547.863    547.722
 22.970    563.000    548.925     14.075    547.433    548.782    547.433    547.576    547.433
 23.070    513.000    548.721    -35.721    547.144    548.576    547.144    547.289    547.144
 23.170    567.000    548.530     18.470    546.854    548.383    546.854    547.002    546.854
 23.270    512.000    548.356    -36.356    546.564    548.206    546.564    546.714    546.564
 23.370    542.000    548.204     -6.204    546.273    548.052    546.273    546.426    546.273
 23.470    605.000    548.077     56.923    545.982    547.923    545.982    546.137    545.982
 23.570    557.000    547.986      9.014    545.690    547.828    545.690    545.848    545.690
 23.670    568.000    547.944     20.056    545.398    547.782    545.398    545.561    545.398
 23.770    568.000    547.966     20.034    545.105    547.801    545.105    545.272    545.105
 23.870    557.000    548.082      8.918    544.813    547.913    544.813    544.982    544.813
 23.970    578.216    548.342     29.874    544.519    548.171    544.519    544.692    544.519
 24.070    540.000    548.870     -8.870    544.226    548.696    544.226    544.402    544.226
 24.170    530.000    550.016    -20.016    543.932    549.839    543.932    544.112    543.932
 24.270    510.586    552.742    -42.156    543.637    552.564    543.637    543.821    543.637
 24.370    596.303    559.105     37.199    543.343    558.927    543.343    543.531    543.343
 24.470    567.000    572.015     -5.015    543.048    571.843    543.048    543.240    543.048
 24.570    599.324    592.972      6.352    542.753    592.811    542.753    542.949    542.753
 24.670    628.554    617.874     10.680    542.458    617.727    542.458    542.659    542.458
 24.770    682.545    634.397     48.148    542.162    634.257    542.162    542.368    542.162
 24.870    607.670    630.356    -22.686    541.867    630.208    541.867    542.078    541.867
 24.970    581.286    609.061    -27.776    541.571    608.893    541.571    541.787    541.571
 25.070    617.000    584.198     32.802    541.275    584.006    541.275    541.497    541.275
 25.170    565.000    565.371     -0.371    540.979    565.160    540.979    541.207    540.979
 25.270    543.000    554.375    -11.375    540.683    554.148    540.683    540.918    540.683
 25.370    534.000    548.959    -14.959    540.387    548.722    540.387    540.629    540.387
 25.470    591.000    546.396     44.604    540.091    546.150    540.091    540.340    540.091
 25.570    569.000    545.021     23.979    539.795    544.767    539.795    540.052    539.795
 25.670    569.000    544.129     24.871    539.499    543.865    539.499    539.764    539.499
 25.770    549.000    543.466      5.534    539.203    543.193    539.203    539.477    539.203
 25.870    584.000    542.939     41.061    538.907    542.656    538.907    539.191    538.907
 25.970    572.000    542.511     29.489    538.611    542.217    538.611    538.906    538.611
 26.070    529.000    542.153    -13.153    538.315    541.848    538.315    538.621    538.315
 26.170    575.000    541.854     33.146    538.019    541.536    538.019    538.338    538.019
 26.270    497.863    541.608    -43.745    537.723    541.276    537.723    538.055    537.723
 26.370    635.000    541.411     93.589    537.428    541.065    537.428    537.774    537.428
 26.470    555.000    541.263     13.737    537.133    540.901    537.133    537.495    537.133
 26.570    506.000    541.170    -35.170    536.838    540.790    536.838    537.217    536.838
 26.670    557.000    541.157     15.843    536.543    540.759    536.543    536.941    536.543
 26.770    520.000    541.207    -21.207    536.248    540.788    536.248    536.667    536.248
 26.870    571.540    541.315     30.225    535.954    540.873    535.954    536.396    535.954
 26.970    563.000    541.524     21.476    535.659    541.055    535.659    536.128    535.659
 27.070    537.000    541.865     -4.865    535.365    541.367    535.365    535.862    535.365
 27.170    576.410    542.358     34.052    535.072    541.829    535.072    535.600    535.072
 27.270    524.741    543.072    -18.331    534.779    542.507    534.779    535.343    534.779
 27.370    569.616    544.089     25.526    534.486    543.484    534.486    535.090    534.486
 27.470    575.000    545.585     29.415    534.193    544.934    534.193    534.843    534.193
 27.570    522.000    547.975    -25.975    533.901    547.270    533.901    534.603    533.901
 27.670    579.505    552.654     26.851    533.609    551.889    533.609    534.371    533.609
 27.770    548.000    564.375    -16.375    533.318    563.537    533.318    534.148    533.318
 27.870    614.411    594.856     19.555    533.027    593.928    533.027    533.937    533.027
 27.970    703.000    661.933     41.067    532.736    660.891    532.736    533.740    532.736
 28.070    765.408    773.102     -7.694    532.446    771.919    532.446    533.560    532.446
 28.170    906.000    897.038      8.962    532.157    895.698    532.157    533.402    532.157
 28.270   1017.207    958.241     58.965    531.867    956.745    531.867    533.271    531.867
 28.370    905.000    906.643     -1.643    531.579    904.990    531.579    533.176    531.579
 28.470    795.816    795.567      0.249    531.291    793.707    531.291    533.127    531.291
 28.570    700.000    709.664     -9.664    531.003    707.514    531.003    533.143    531.003
 28.670    733.636    692.543     41.092    530.716    689.992    530.716    533.254    530.716
 28.770    731.000    739.572     -8.572    530.430    736.470    530.430    533.515    530.430
 28.870    770.196    810.280    -40.084    530.144    806.386    530.144    534.028    530.144
 28.970    879.562    843.741     35.821    529.859    838.631    529.859    534.974    529.859
 29.070    775.517    803.797    -28.280    529.574    796.758    529.574    536.628    529.574
 29.170    691.000    722.341    -31.341    529.291    712.305    529.291    539.341    529.291
 29.270    674.718    648.284     26.434    529.007    633.862    529.007    543.438    529.007
 29.370    614.000    603.520     10.480    528.725    583.231    528.725    549.017    528.725
 29.470    631.176    584.992     46.184    528.443    557.847    528.443    555.588    528.443
 29.570    605.000    580.244     24.756    528.162    546.857    528.162    561.546    528.162
 29.670    607.000    578.286     28.714    527.881    541.975    527.881    564.189    527.881
 29.770    592.000    573.533     18.467    527.601    539.341    527.601    561.791    527.601
 29.870    587.000    565.972     21.028    527.322    537.620    527.322    555.672    527.322
 29.970    555.000    557.889     -2.889    527.044    536.404    527.044    548.527    527.044
 30.070    568.052    550.963     17.089    526.767    535.561    526.767    542.166    526.767
 30.170    516.000    545.820    -29.820    526.490    535.063    526.490    537.245    526.490
 30.270    561.000    542.541     18.459    526.214    535.009    526.214    533.744    526.214
 30.370    562.000    541.248     20.752    525.939    535.819    525.939    531.365    525.939
 30.470    550.000    542.723      7.277    525.665    538.629    525.665    529.752    525.665
 30.570    579.000    548.816     30.184    525.391    545.579    525.391    528.616    525.391
 30.670    589.000    561.717     27.283    525.119    559.054    525.119    527.759    525.119
 30.770    550.000    581.309    -31.309    524.847    579.050    524.847    527.069    524.847
 30.870    605.806    601.739      4.067    524.576    599.784    524.576    526.481    524.576
 30.970    594.287    611.082    -16.795    524.306    609.371    524.306    525.963    524.306
 31.070    630.000    601.423     28.577    524.037    599.921    524.037    525.494    524.037
 31.170    577.000    580.104     -3.104    523.769    578.781    523.769    525.063    523.769
 31.270    585.000    559.051     25.949    523.502    557.876    523.502    524.662    523.502
 31.370    558.000    544.362     13.638    523.235    543.307    523.235    524.283    523.235
 31.470    519.000    536.251    -17.251    522.970    535.295    522.970    523.923    522.970
 31.570    548.000    532.380     15.620    522.706    531.505    522.706    523.578    522.706
 31.670    563.000    530.550     32.450    522.442    529.745    522.442    523.246    522.442
 31.770    525.000    529.557     -4.557    522.180    528.812    522.180    522.924    522.180
 31.870    551.000    528.915     22.085    521.919    528.222    521.919    522.611    521.919
 31.970    566.414    528.463     37.951    521.658    527.815    521.658    522.305    521.658
 32.070    489.116    528.146    -39.030    521.399    527.538    521.399    522.006    521.399
 32.170    532.000    527.942      4.058    521.141    527.369    521.141    521.713    521.141
 32.270    543.000    527.844     15.156    520.884    527.302    520.884    521.425    520.884
 32.370    536.000    527.852      8.148    520.627    527.337    520.627    521.141    520.627
 32.470    561.887    527.971     33.916    520.372    527.481    520.372    520.862    520.372
 32.570    542.000    528.219     13.781    520.118    527.751    520.118    520.586    520.118
 32.670    549.000    528.621     20.379    519.865    528.173    519.865    520.313    519.865
 32.770    520.000    529.215     -9.215    519.614    528.784    519.614    520.043    519.614
 32.870    505.000    530.053    -25.053    519.363    529.638    519.363    519.777    519.363
 32.970    545.383    531.216     14.167    519.113    530.816    519.113    519.513    519.113
 33.070    496.971    532.827    -35.857    518.865    532.440    518.865    519.251    518.865
 33.170    566.000    535.108     30.892    518.617    534.732    518.617    518.992    518.617
 33.270    507.833    538.568    -30.735    518.371    538.202    518.371    518.735    518.371
 33.370    511.288    544.606    -33.317    518.126    544.249    518.126    518.480    518.126
 33.470    555.505    556.962     -1.457    517.882    556.612    517.882    518.227    517.882
 33.570    585.000    583.903      1.097    517.640    583.556    517.640    517.976    517.640
 33.670    638.000    638.747     -0.747    517.398    638.398    517.398    517.727    517.398
 33.770    803.000    733.852     69.148    517.158    733.496    517.158    517.480    517.158
 33.870    928.000    865.823     62.177    516.919    865.456    516.919    517.235    516.919
 33.970   1009.083    998.695     10.388    516.681    998.325    516.681    516.991    516.681
 34.070   1124.000   1063.930     60.070    516.444   1063.575    516.444    516.749    516.444
 34.170   1010.000   1014.923     -4.923    516.209   1014.600    516.209    516.509    516.209
 34.270    908.705    888.200     20.505    515.975    887.904    515.975    516.270    515.975
 34.370    755.000    752.761      2.239    515.742    752.480    515.742    516.033    515.742
 34.470    643.846    650.366     -6.520    515.510    650.088    515.510    515.798    515.510
 34.570    571.946    588.870    -16.924    515.280    588.592    515.280    515.564    515.280
 34.670    589.017    557.538     31.479    515.051    557.260    515.051    515.332    515.051
 34.770    547.000    542.745      4.255    514.823    542.467    514.823    515.101    514.823
 34.870    533.000    535.370     -2.370    514.597    535.094    514.597    514.872    514.597
 34.970    550.000    531.044     18.956    514.371    530.770    514.371    514.645    514.371
 35.070    559.000    528.069     30.931    514.147    527.797    514.147    514.419    514.147
 35.170    530.000    525.824      4.176    513.925    525.554    513.925    514.194    513.925
 35.270    515.000    524.052     -9.052    513.704    523.783    513.704    513.971    513.704
 35.370    543.000    522.614     20.386    513.484    522.347    513.484    513.750    513.484
 35.470    529.000    521.422      7.578    513.265    521.157    513.265    513.530    513.265
 35.570    566.000    520.418     45.582    513.048    520.154    513.048    513.312    513.048
 35.670    508.000    519.558    -11.558    512.832    519.295    512.832    513.095    512.832
 35.770    504.463    518.811    -14.348    512.617    518.549    512.617    512.879    512.617
 35.870    519.000    518.155      0.845    512.404    517.893    512.404    512.666    512.404
 35.970    554.441    517.572     36.869    512.192    517.311    512.192    512.453    512.192
 36.070    488.000    517.051    -29.051    511.982    516.790    511.982    512.242    511.982
 36.170    492.296    516.581    -24.285    511.773    516.321    511.773    512.033    511.773
 36.270    485.000    516.156    -31.156    511.565    515.896    511.565    511.825    511.565
 36.370    541.000    515.771     25.229    511.359    515.511    511.359    511.619    511.359
 36.470    469.000    515.422    -46.422    511.154    515.161    511.154    511.414    511.154
 36.570    514.000    515.108     -1.108    510.950    514.847    510.950    511.211    510.950
 36.670    562.000    514.830     47.170    510.748    514.569    510.748    511.009    510.748
 36.770    518.000    514.593      3.407    510.547    514.332    510.547    510.808    510.547
 36.870    487.000    514.416    -27.416    510.348    514.155    510.348    510.610    510.348
 36.970    508.000    514.348     -6.348    510.150    514.086    510.150    510.412    510.150
 37.070    485.415    514.508    -29.093    509.954    514.246    509.954    510.217    509.954
 37.170    494.000    515.130    -21.130    509.759    514.868    509.759    510.022    509.759
 37.270    473.743    516.552    -42.809    509.566    516.289    509.566    509.830    509.566
 37.370    514.000    519.057     -5.057    509.373    518.793    509.373    509.639    509.373
 37.470    493.000    522.556    -29.556    509.183    522.292    509.183    509.449    509.183
 37.570    565.466    526.244     39.223    508.994    525.979    508.994    509.261    508.994
 37.670    528.000    528.570     -0.570    508.806    528.306    508.806    509.074    508.806
 37.770    512.000    528.245    -16.245    508.620    527.982    508.620    508.889    508.620
 37.870    479.000    525.595    -46.595    508.435    525.333    508.435    508.706    508.435
 37.970    508.000    522.024    -14.024    508.252    521.763    508.252    508.524    508.252
 38.070    568.000    518.628     49.372    508.070    518.365    508.070    508.344    508.070
 38.170    538.961    515.844     23.117    507.890    515.578    507.890    508.165    507.890
 38.270    506.000    513.775     -7.775    507.711    513.505    507.711    507.988    507.711
 38.370    516.000    512.349      3.651    507.534    512.075    507.534    507.812    507.534
 38.470    526.664    511.407     15.257    507.358    511.129    507.358    507.638    507.358
 38.570    466.000    510.788    -44.788    507.183    510.507    507.183    507.466    507.183
 38.670    491.000    510.364    -19.364    507.011    510.081    507.011    507.295    507.011
 38.770    502.401    510.050     -7.649    506.839    509.764    506.839    507.126    506.839
 38.870    542.236    509.793     32.443    506.669    509.505    506.669    506.958    506.669
 38.970    558.000    509.568     48.432    506.501    509.277    506.501    506.792    506.501
 39.070    528.000    509.363     18.637    506.334    509.070    506.334    506.628    506.334
 39.170    481.000    509.172    -28.172    506.169    508.877    506.169    506.465    506.169
 39.270    517.238    508.994      8.244    506.005    508.696    506.005    506.303    506.005
 39.370    505.530    508.825     -3.296    505.843    508.525    505.843    506.144    505.843
 39.470    502.000    508.666     -6.666    505.682    508.363    505.682    505.986    505.682
 39.570    508.226    508.515     -0.289    505.523    508.209    505.523    505.829    505.523
 39.670    546.577    508.372     38.206    505.365    508.063    505.365    505.675    505.365
 39.770    480.000    508.236    -28.236    505.209    507.924    505.209    505.521    505.209
 39.870    515.000    508.108      6.892    505.055    507.793    505.055    505.370    505.055
 39.970    480.000    507.988    -27.988    504.902    507.670    504.902    505.220    504.902
 40.070    494.000    507.875    -13.875    504.750    507.554    504.750    505.072    504.750
 40.170    486.603    507.771    -21.168    504.600    507.447    504.600    504.925    504.600
 40.270    509.525    507.676      1.849    504.452    507.348    504.452    504.780    504.452
 40.370    478.261    507.590    -29.329    504.305    507.259    504.305    504.637    504.305
 40.470    543.195    507.515     35.680    504.160    507.180    504.160    504.495    504.160
 40.570    482.000    507.452    -25.452    504.016    507.113    504.016    504.355    504.016
 40.670    476.000    507.402    -31.402    503.873    507.059    503.873    504.217    503.873
 40.770    507.000    507.368     -0.368    503.733    507.021    503.733    504.080    503.733
 40.870    477.467    507.352    -29.885    503.594    507.001    503.594    503.945    503.594
 40.970    468.141    507.358    -39.217    503.456    507.003    503.456    503.812    503.456
 41.070    511.000    507.390      3.610    503.320    507.030    503.320    503.681    503.320
 41.170    480.000    507.453    -27.453    503.186    507.089    503.186    503.551    503.186
 41.270    537.701    507.557     30.144    503.053    507.188    503.053    503.423    503.053
 41.370    519.688    507.711     11.977    502.921    507.337    502.921    503.296    502.921
 41.470    490.000    507.931    -17.931    502.791    507.552    502.791    503.172    502.791
 41.570    515.595    508.241      7.354    502.663    507.857    502.663    503.049    502.663
 41.670    553.000    508.683     44.317    502.537    508.294    502.537    502.927    502.537
 41.770    471.000    509.355    -38.355    502.411    508.960    502.411    502.808    502.411
 41.870    485.765    510.490    -24.725    502.288    510.090    502.288    502.690    502.288
 41.970    540.000    512.636     27.364    502.166    512.231    502.166    502.574    502.166
 42.070    554.000    516.896     37.104    502.045    516.487    502.045    502.460    502.045
 42.170    497.000    525.053    -28.053    501.926    524.641    501.926    502.348    501.926
 42.270    521.000    539.171    -18.171    501.809    538.759    501.809    502.237    501.809
 42.370    586.849    560.350     26.498    501.693    559.942    501.693    502.128    501.693
 42.470    582.000    586.848     -4.848    501.579    586.446    501.579    502.021    501.579
 42.570    616.191    612.466      3.725    501.466    612.071    501.466    501.916    501.466
 42.670    628.340    627.127      1.213    501.355    626.735    501.355    501.812    501.355
 42.770    647.748    623.147     24.601    501.246    622.748    501.246    501.711    501.246
 42.870    584.000    602.865    -18.865    501.138    602.449    501.138    501.611    501.138
 42.970    520.000    575.870    -55.870    501.031    575.431    501.031    501.514    501.031
 43.070    477.000    550.935    -73.935    500.927    550.473    500.927    501.418    500.927
 43.170    518.000    532.393    -14.393    500.823    531.910    500.823    501.324    500.823
 43.270    525.000    520.663      4.337    500.721    520.163    500.721    501.232    500.721
 43.370    528.430    514.097     14.333    500.621    513.582    500.621    501.142    500.621
 43.470    555.000    510.667     44.333    500.523    510.140    500.523    501.054    500.523
 43.570    552.420    508.857     43.563    500.425    508.318    500.425    500.968    500.425
 43.670    504.244    507.807     -3.563    500.330    507.255    500.330    500.884    500.330
 43.770    474.000    507.112    -33.112    500.236    506.547    500.236    500.802    500.236
 43.870    532.912    506.603     26.308    500.143    506.026    500.143    500.722    500.143
 43.970    470.948    506.210    -35.262    500.052    505.620    500.052    500.644    500.052
 44.070    548.000    505.899     42.101    499.963    505.294    499.963    500.569    499.963
 44.170    473.617    505.650    -32.033    499.875    505.030    499.875    500.496    499.875
 44.270    480.000    505.449    -25.449    499.789    504.814    499.789    500.425    499.789
 44.370    495.265    505.288    -10.024    499.704    504.637    499.704    500.356    499.704
 44.470    536.000    505.160     30.840    499.621    504.492    499.621    500.290    499.621
 44.570    573.000    505.060     67.940    499.539    504.374    499.539    500.226    499.539
 44.670    503.000    504.984     -1.984    499.459    504.279    499.459    500.164    499.459
 44.770    503.000    504.930     -1.930    499.380    504.205    499.380    500.106    499.380
 44.870    508.000    504.895      3.105    499.303    504.149    499.303    500.049    499.303
 44.970    465.000    504.878    -39.878    499.228    504.110    499.228    499.996    499.228
 45.070    461.903    504.879    -42.975    499.154    504.087    499.154    499.945    499.154
 45.170    499.000    504.896     -5.896    499.081    504.080    499.081    499.898    499.081
 45.270    517.000    504.930     12.070    499.010    504.087    499.010    499.853    499.010
 45.370    514.000    504.981      9.019    498.940    504.110    498.940    499.812    498.940
 45.470    489.000    505.049    -16.049    498.872    504.147    498.872    499.774    498.872
 45.570    508.223    505.134      3.089    498.806    504.201    498.806    499.739    498.806
 45.670    518.683    505.239     13.444    498.741    504.271    498.741    499.709    498.741
 45.770    526.687    505.363     21.324    498.677    504.358    498.677    499.682    498.677
 45.870    494.327    505.509    -11.182    498.615    504.465    498.615    499.660    498.615
 45.970    496.000    505.680     -9.680    498.555    504.593    498.555    499.642    498.555
 46.070    482.000    505.877    -23.877    498.496    504.744    498.496    499.629    498.496
 46.170    489.000    506.105    -17.105    498.438    504.923    498.438    499.621    498.438
 46.270    520.000    506.368     13.632    498.382    505.131    498.382    499.618    498.382
 46.370    516.000    506.671      9.329    498.328    505.376    498.328    499.622    498.328
 46.470    498.000    507.023     -9.023    498.275    505.664    498.275    499.633    498.275
 46.570    549.237    507.433     41.804    498.223    506.004    498.223    499.651    498.223
 46.670    508.000    507.916      0.084    498.173    506.411    498.173    499.677    498.173
 46.770    541.000    508.499     32.501    498.124    506.910    498.124    499.712    498.124
 46.870    486.000    509.235    -23.235    498.077    507.553    498.077    499.758    498.077
 46.970    491.000    510.244    -19.244    498.032    508.458    498.032    499.815    498.032
 47.070    552.249    511.791     40.458    497.987    509.890    497.987    499.885    497.987
 47.170    524.997    514.391     10.606    497.944    512.361    497.944    499.969    497.944
 47.270    531.000    518.878     12.122    497.903    516.701    497.903    500.071    497.903
 47.370    484.221    526.311    -42.090    497.863    523.968    497.863    500.193    497.863
 47.470    544.000    537.548      6.452    497.825    535.014    497.825    500.337    497.825
 47.570    571.000    552.510     18.490    497.788    549.757    497.788    500.509    497.788
 47.670    559.963    569.385     -9.422    497.752    566.381    497.752    500.712    497.752
 47.770    585.504    584.201      1.303    497.718    580.911    497.718    500.954    497.718
 47.870    567.000    591.670    -24.670    497.685    588.055    497.685    501.243    497.685
 47.970    601.000    588.665     12.335    497.654    584.677    497.654    501.589    497.654
 48.070    604.000    577.308     26.692    497.624    572.882    497.624    502.008    497.624
 48.170    589.845    562.780     27.065    497.595    557.825    497.595    502.520    497.595
 48.270    562.000    549.549     12.451    497.568    543.937    497.568    503.160    497.568
 48.370    509.000    540.033    -31.033    497.542    533.576    497.542    503.987    497.542
 48.470    518.000    534.827    -16.827    497.518    527.235    497.518    505.102    497.518
 48.570    551.000    533.471     17.529    497.495    524.275    497.495    506.686    497.495
 48.670    549.000    535.277     13.723    497.473    523.713    497.473    509.033    497.473
 48.770    556.000    539.874     16.126    497.453    524.733    497.453    512.590    497.453
 48.870    559.468    547.391     12.077    497.434    526.868    497.434    517.954    497.434
 48.970    541.000    558.363    -17.363    497.417    529.977    497.417    525.799    497.417
 49.070    613.000    573.526     39.474    497.401    534.225    497.401    536.697    497.401
 49.170    569.000    593.694    -24.694    497.386    540.243    497.386    550.831    497.386
 49.270    660.000    620.008     39.992    497.373    549.751    497.373    567.619    497.373
 49.370    632.000    654.996    -22.996    497.361    567.094    497.361    585.248    497.361
 49.470    742.594    704.950     37.644    497.350    601.978    497.350    600.297    497.350
 49.570    813.296    783.709     29.588    497.341    672.695    497.341    608.310    497.341
 49.670    901.000    915.723    -14.723    497.333    806.720    497.333    606.260    497.333
 49.770   1177.000   1131.287     45.713    497.326   1033.479    497.326    595.018    497.326
 49.870   1453.360   1447.420      5.940    497.321   1366.063    497.321    578.525    497.321
 49.970   1888.000   1840.654     47.346    497.317   1776.849    497.317    560.958    497.317
 50.070   2303.000   2229.460     73.540    497.314   2181.565    497.314    545.085    497.314
 50.170   2470.000   2486.681    -16.681    497.312   2451.772    497.312    532.193    497.312
 50.270   2439.809   2501.079    -61.270    497.312   2475.961    497.312    522.525    497.312
 50.370   2327.718   2261.389     66.329    497.313   2243.173    497.313    515.712    497.313
 50.470   1915.000   1867.591     47.409    497.316   1853.999    497.316    511.118    497.316
 50.570   1430.000   1451.885    -21.885    497.319   1441.306    497.319    508.087    497.319
 50.670   1081.298   1108.130    -26.832    497.324   1099.520    497.324    506.076    497.324
 50.770    836.000    872.384    -36.384    497.330    865.111    497.330    504.701    497.330
 50.870    730.076    735.338     -5.262    497.338    729.025    497.338    503.716    497.338
 50.970    647.569    666.284    -18.716    497.347    660.705    497.347    502.975    497.347
 51.070    642.000    633.444      8.556    497.357    628.446    497.357    502.395    497.357
 51.170    592.093    614.376    -22.283    497.368    609.850    497.368    501.929    497.368
 51.270    599.895    598.109      1.787    497.380    593.972    497.380    501.547    497.380
 51.370    560.428    582.056    -21.628    497.394    578.242    497.394    501.232    497.394
 51.470    603.000    567.207     35.793    497.409    563.663    497.409    500.970    497.409
 51.570    567.000    554.921     12.079    497.425    551.606    497.425    500.752    497.425
 51.670    514.294    545.823    -31.529    497.442    542.704    497.442    500.570    497.442
 51.770    585.014    539.760     45.254    497.461    536.807    497.461    500.419    497.461
 51.870    521.000    536.129    -15.129    497.480    533.319    497.480    500.294    497.480
 51.970    496.267    534.248    -37.981    497.501    531.561    497.501    500.191    497.501
 52.070    498.000    533.590    -35.590    497.523    531.009    497.523    500.107    497.523
 52.170    537.000    533.862      3.138    497.546    531.370    497.546    500.040    497.546
 52.270    586.000    535.006     50.994    497.571    532.590    497.571    499.988    497.571
 52.370    530.000    537.228     -7.228    497.596    534.876    497.596    499.949    497.596
 52.470    568.000    541.154     26.846    497.623    538.856    497.623    499.922    497.623
 52.570    570.825    548.181     22.644    497.651    545.927    497.651    499.906    497.651
 52.670    569.363    561.010      8.353    497.680    558.791    497.680    499.899    497.680
 52.770    553.605    584.162    -30.558    497.710    581.970    497.710    499.901    497.710
 52.870    591.858    623.940    -32.081    497.741    621.767    497.741    499.912    497.741
 52.970    684.000    687.109     -3.109    497.773    684.949    497.773    499.931    497.773
 53.070    738.657    777.883    -39.227    497.806    775.730    497.806    499.957    497.806
 53.170    898.000    893.695      4.305    497.841    891.545    497.841    499.990    497.841
 53.270    967.876   1021.207    -53.332    497.877   1019.058    497.877    500.029    497.877
 53.370   1065.000   1134.557    -69.557    497.913   1132.407    497.913    500.076    497.913
 53.470   1166.000   1200.082    -34.082    497.951   1197.930    497.951    500.128    497.951
 53.570   1153.000   1193.156    -40.156    497.990   1190.996    497.990    500.187    497.990
 53.670   1054.002   1116.882    -62.880    498.030   1114.703    498.030    500.252    498.030
 53.770    949.000    999.203    -50.203    498.071    996.993    498.071    500.324    498.071
 53.870    889.676    872.992     16.684    498.112    870.739    498.112    500.402    498.112
 53.970    747.223    761.809    -14.586    498.155    759.507    498.155    500.486    498.155
 54.070    713.000    676.779     36.221    498.199    674.421    498.199    500.577    498.199
 54.170    657.197    618.906     38.291    498.244    616.489    498.244    500.674    498.244
 54.270    545.000    583.237    -38.237    498.291    580.757    498.291    500.778    498.291
 54.370    612.000    562.947     49.053    498.338    560.399    498.338    500.890    498.338
 54.470    504.871    552.027    -47.156    498.386    549.407    498.386    501.009    498.386
 54.570    536.000    546.319    -10.319    498.435    543.619    498.435    501.136    498.435
 54.670    560.000    543.396     16.604    498.485    540.611    498.485    501.272    498.485
 54.770    534.000    542.024     -8.024    498.536    539.145    498.536    501.416    498.536
 54.870    594.000    541.636     52.364    498.587    538.655    498.587    501.570    498.587
 54.970    553.000    541.996     11.004    498.640    538.904    498.640    501.734    498.640
 55.070    559.000    543.017     15.983    498.694    539.803    498.694    501.909    498.694
 55.170    549.707    544.688      5.019    498.749    541.342    498.749    502.096    498.749
 55.270    546.883    547.049     -0.166    498.805    543.558    498.805    502.297    498.805
 55.370    579.000    550.187     28.813    498.861    546.538    498.861    502.511    498.861
 55.470    555.270    554.262      1.008    498.919    550.441    498.919    502.741    498.919
 55.570    593.502    559.576     33.925    498.977    555.566    498.977    502.988    498.977
 55.670    581.000    566.759     14.241    499.037    562.542    499.037    503.255    499.037
 55.770    592.706    577.179     15.527    499.097    572.734    499.097    503.542    499.097
 55.870    567.947    593.766    -25.819    499.158    589.069    499.158    503.853    499.158
 55.970    601.000    622.332    -21.332    499.220    617.357    499.220    504.191    499.220
 56.070    666.000    673.164     -7.164    499.283    667.879    499.283    504.558    499.283
 56.170    756.000    761.931     -5.931    499.346    756.299    499.346    504.959    499.346
 56.270    846.000    908.192    -62.192    499.411    902.172    499.411    505.399    499.411
 56.370   1121.000   1129.747     -8.747    499.476   1123.295    499.476    505.883    499.476
 56.470   1363.000   1432.658    -69.658    499.542   1425.730    499.542    506.417    499.542
 56.570   1735.498   1799.649    -64.151    499.609   1792.201    499.609    507.009    499.609
 56.670   2144.000   2181.599    -37.599    499.677   2173.588    499.677    507.670    499.677
 56.770   2453.000   2497.685    -44.685    499.746   2489.062    499.746    508.410    499.746
 56.870   2644.990   2655.112    -10.122    499.815   2645.809    499.815    509.244    499.815
 56.970   2597.000   2598.070     -1.070    499.885   2587.977    499.885    510.189    499.885
 57.070   2389.000   2349.360     39.640    499.956   2338.312    499.956    511.267    499.956
 57.170   2101.000   1991.164    109.836    500.028   1978.953    500.028    512.508    500.028
 57.270   1697.000   1613.272     83.728    500.100   1599.658    500.100    513.952    500.100
 57.370   1330.357   1280.433     49.924    500.173   1265.136    500.173    515.657    500.173
 57.470    941.000   1024.432    -83.432    500.247   1007.095    500.247    517.717    500.247
 57.570    915.000    849.226     65.774    500.322    829.347    500.322    520.287    500.322
 57.670    743.000    741.819      1.181    500.397    718.641    500.397    523.628    500.397
 57.770    730.000    683.675     46.325    500.473    656.002    500.473    528.175    500.473
 57.870    657.000    658.781     -1.781    500.550    624.723    500.550    534.621    500.550
 57.970    665.000    657.246      7.754    500.628    613.884    500.628    543.991    500.628
 58.070    711.000    675.463     35.537    500.706    618.491    500.706    557.670    500.706
 58.170    732.000    714.414     17.586    500.785    637.864    500.785    577.316    500.785
 58.270    813.478    777.288     36.189    500.864    673.516    500.864    604.607    500.864
 58.370    818.000    866.775    -48.775    500.944    726.879    500.944    640.798    500.944
 58.470    905.000    982.595    -77.595    501.025    797.436    501.025    686.133    501.025
 58.570   1129.713   1119.390     10.323    501.106    881.286    501.106    739.155    501.106
 58.670   1223.498   1265.575    -42.077    501.188    970.764    501.188    795.947    501.188
 58.770   1427.000   1404.293     22.707    501.271   1056.148    501.271    849.376    501.271
 58.870   1559.000   1516.521     42.479    501.354   1128.733    501.354    889.119    501.354
 58.970   1591.000   1584.470      6.530    501.438   1181.383    501.438    904.524    501.438
 59.070   1686.000   1595.870     90.130    501.522   1206.747    501.522    890.668    501.522
 59.170   1561.000   1550.148     10.852    501.607   1199.713    501.607    852.082    501.607
 59.270   1497.579   1461.286     36.293    501.693   1163.746    501.693    799.277    501.693
 59.370   1335.000   1352.598    -17.598    501.779   1111.750    501.779    742.660    501.779
 59.470   1333.000   1247.660     85.340    501.866   1060.003    501.866    689.531    501.866
 59.570   1195.000   1165.792     29.208    501.953   1023.767    501.953    643.949    501.953
 59.670   1188.000   1122.627     65.373    502.041   1017.115    502.041    607.480    502.041
 59.770   1141.000   1129.491     11.509    502.129   1051.544    502.129    579.949    502.129
 59.870   1204.000   1188.980     15.020    502.218   1130.876    502.218    560.138    502.218
 59.970   1324.000   1290.512     33.488    502.307   1246.201    502.307    546.381    502.307
 60.070   1354.944   1409.003    -54.059    502.397   1374.111    502.397    537.013    502.397
 60.170   1508.000   1507.611      0.389    502.487   1479.177    502.487    530.633    502.487
 60.270   1640.000   1547.353     92.647    502.578   1523.467    502.578    526.200    502.578
 60.370   1544.000   1505.536     38.464    502.669   1484.987    502.669    523.008    502.669
 60.470   1423.000   1389.623     33.377    502.760   1371.626    502.760    520.613    502.760
 60.570   1269.445   1229.845     39.600    502.853   1213.861    502.853    518.750    502.853
 60.670   1128.000   1060.816     67.184    502.945   1046.450    502.945    517.268    502.945
 60.770    893.000    909.184    -16.184    503.038    896.125    503.038    516.081    503.038
 60.870    738.000    789.609    -51.609    503.131    777.594    503.131    515.143    503.131
 60.970    680.645    705.784    -25.139    503.225    694.580    503.225    514.428    503.225
 61.070    663.843    654.246      9.597    503.319    643.635    503.319    513.926    503.319
 61.170    693.000    629.045     63.955    503.414    618.817    503.414    513.632    503.414
 61.270    613.000    625.562    -12.562    503.508    615.515    503.508    513.537    503.508
 61.370    634.000    642.571     -8.571    503.604    632.518    503.604    513.627    503.604
 61.470    698.988    682.382     16.606    503.699    672.168    503.699    513.867    503.699
 61.570    767.000    749.264     17.736    503.795    738.789    503.795    514.200    503.795
 61.670    821.104    846.457    -25.353    503.892    835.712    503.892    514.538    503.892
 61.770    959.544    972.462    -12.919    503.988    961.562    503.988    514.759    503.988
 61.870   1147.000   1117.716     29.284    504.085   1106.902    504.085    514.740    504.085
 61.970   1222.000   1262.873    -40.873    504.182   1252.464    504.182    514.416    504.182
 62.070   1414.234   1380.015     34.219    504.280   1370.306    504.280    513.815    504.280
 62.170   1462.484   1439.306     23.178    504.378   1430.497    504.378    513.039    504.378
 62.270   1438.907   1422.593     16.314    504.476   1414.760    504.476    512.202    504.476
 62.370   1251.000   1334.873    -83.873    504.574   1327.989    504.574    511.397    504.574
 62.470   1178.000   1200.690    -22.690    504.672   1194.660    504.672    510.680    504.672
 62.570   1028.000   1050.219    -22.219    504.771   1044.914    504.771    510.078    504.771
 62.670    894.000    908.313    -14.313    504.870    903.600    504.870    509.598    504.870
 62.770    775.000    790.235    -15.235    504.970    785.991    504.970    509.230    504.970
 62.870    684.000    701.674    -17.674    505.069    697.797    505.069    508.960    505.069
 62.970    675.000    641.059     33.941    505.169    637.470    505.169    508.767    505.169
 63.070    586.000    602.835    -16.835    505.269    599.475    505.269    508.633    505.269
 63.170    553.523    580.454    -26.931    505.369    577.281    505.369    508.542    505.369
 63.270    609.000    568.324     40.676    505.469    565.309    505.469    508.481    505.469
 63.370    598.000    562.615     35.385    505.569    559.736    505.569    508.444    505.569
 63.470    591.000    561.308     29.692    505.670    558.548    505.670    508.423    505.670
 63.570    649.000    563.940     85.060    505.771    561.286    505.771    508.416    505.771
 63.670    552.000    571.316    -19.316    505.872    568.756    505.872    508.419    505.872
 63.770    579.011    585.250     -6.239    505.973    582.773    505.973    508.431    505.973
 63.870    597.000    608.211    -11.211    506.074    605.806    506.074    508.450    506.074
 63.970    687.000    642.715     44.285    506.175    640.372    506.175    508.477    506.175
 64.070    687.000    690.400     -3.400    506.276    688.108    506.276    508.509    506.276
 64.170    734.702    750.891    -16.190    506.377    748.643    506.377    508.547    506.377
 64.270    770.000    820.732    -50.732    506.479    818.522    506.479    508.590    506.479
 64.370    951.000    892.707     58.293    506.580    890.534    506.580    508.637    506.580
 64.470   1020.000    956.090     63.910    506.682    953.958    506.682    508.688    506.682
 64.570    961.424    998.924    -37.500    506.784    996.842    506.784    508.742    506.784
 64.670   1039.158   1012.727     26.431    506.885   1010.702    506.885    508.801    506.885
 64.770   1006.000    996.322      9.678    506.987    994.360    506.987    508.863    506.987
 64.870    959.000    955.324      3.676    507.088    953.426    507.088    508.929    507.088
 64.970    900.013    899.113      0.900    507.190    897.275    507.190    508.997    507.190
 65.070    883.000    837.743     45.257    507.292    835.959    507.292    509.068    507.292
 65.170    743.849    779.254    -35.405    507.393    777.515    507.393    509.141    507.393
 65.270    722.000    728.184     -6.184    507.495    726.483    507.495    509.218    507.495
 65.370    673.641    685.848    -12.207    507.597    684.175    507.597    509.296    507.597
 65.470    628.000    651.724    -23.724    507.698    650.072    507.698    509.376    507.698
 65.570    605.409    624.753    -19.344    507.800    623.117    507.800    509.459    507.800
 65.670    648.840    603.870     44.970    507.901    602.246    507.901    509.544    507.901
 65.770    605.226    588.077     17.149    508.003    586.461    508.003    509.630    508.003
 65.870    582.000    576.482      5.518    508.104    574.875    508.104    509.719    508.104
 65.970    590.000    568.332     21.668    508.205    566.732    508.205    509.809    508.205
 66.070    545.000    562.993    -17.993    508.306    561.400    508.306    509.901    508.306
 66.170    551.000    559.935     -8.935    508.407    558.348    508.407    509.995    508.407
 66.270    524.931    558.722    -33.791    508.508    557.139    508.508    510.090    508.508
 66.370    520.234    559.026    -38.792    508.608    557.448    508.608    510.187    508.608
 66.470    557.000    560.669     -3.669    508.709    559.092    508.709    510.286    508.709
 66.570    588.198    563.676     24.521    508.809    562.100    508.809    510.386    508.809
 66.670    539.000    568.388    -29.388    508.910    566.811    508.910    510.488    508.910
 66.770    573.000    575.656     -2.656    509.010    574.075    509.010    510.592    509.010
 66.870    573.213    587.176    -13.963    509.109    585.589    509.109    510.697    509.109
 66.970    600.514    605.965     -5.450    509.209    604.369    509.209    510.804    509.209
 67.070    650.000    636.887     13.113    509.309    635.280    509.309    510.913    509.309
 67.170    652.000    687.006    -35.006    509.408    685.383    509.408    511.024    509.408
 67.270    759.000    765.357     -6.357    509.507    763.717    509.507    511.136    509.507
 67.370    817.000    881.717    -64.717    509.606    880.057    509.606    511.251    509.606
 67.470   1068.000   1044.080     23.920    509.704   1042.402    509.704    511.367    509.704
 67.570   1211.000   1255.065    -44.065    509.802   1253.374    509.802    511.486    509.802
 67.670   1501.000   1508.044     -7.044    509.900   1506.348    509.900    511.606    509.900
 67.770   1830.000   1784.161     45.839    509.998   1782.474    509.998    511.729    509.998
 67.870   1995.000   2051.369    -56.369    510.096   2049.705    510.096    511.855    510.096
 67.970   2291.000   2266.970     24.030    510.193   2265.340    510.193    511.983    510.193
 68.070   2386.000   2386.639     -0.639    510.290   2385.048    510.290    512.113    510.290
 68.170   2430.112   2381.283     48.829    510.386   2379.718    510.386    512.247    510.386
 68.270   2165.251   2252.386    -87.135    510.483   2250.818    510.483    512.384    510.483
 68.370   2092.000   2031.081     60.919    510.578   2029.473    510.578    512.524    510.578
 68.470   1812.827   1762.047     50.780    510.674   1760.366    510.674    512.668    510.674
 68.570   1436.450   1487.271    -50.821    510.769   1485.492    510.769    512.816    510.769
 68.670   1301.295   1237.711     63.584    510.864   1235.821    510.864    512.968    510.864
 68.770    998.414   1031.117    -32.703    510.959   1029.113    510.959    513.125    510.959
 68.870    881.001    873.207      7.794    511.053    871.088    511.053    513.287    511.053
 68.970    739.000    760.762    -21.762    511.146    758.531    511.146    513.455    511.146
 69.070    724.000    685.517     38.483    511.240    683.179    511.240    513.629    511.240
 69.170    637.000    637.687     -0.687    511.333    635.243    511.333    513.810    511.333
 69.270    628.000    608.371     19.629    511.425    605.819    511.425    513.998    511.425
 69.370    577.598    590.686    -13.088    511.517    588.022    511.517    514.196    511.517
 69.470    586.000    579.920      6.080    511.609    577.136    511.609    514.402    511.609
 69.570    544.791    573.154    -28.362    511.700    570.242    511.700    514.619    511.700
 69.670    555.745    568.721    -12.975    511.791    565.669    511.791    514.848    511.791
 69.770    546.000    565.730    -19.730    511.881    562.525    511.881    515.091    511.881
 69.870    567.000    563.729      3.271    511.971    560.354    511.971    515.348    511.971
 69.970    543.791    562.492    -18.701    512.060    558.931    512.060    515.623    512.060
 70.070    580.000    561.917     18.083    512.149    558.150    512.149    515.917    512.149
 70.170    520.743    561.971    -41.228    512.237    557.976    512.237    516.233    512.237
 70.270    565.000    562.683      2.317    512.325    558.433    512.325    516.574    512.325
 70.370    596.000    564.157     31.843    512.413    559.624    512.413    516.945    512.413
 70.470    575.317    566.631      8.686    512.499    561.779    512.499    517.349    512.499
 70.570    611.000    570.571     40.429    512.586    565.359    512.586    517.794    512.586
 70.670    582.817    576.832      5.985    512.671    571.212    512.671    518.285    512.671
 70.770    569.000    586.896    -17.896    512.756    580.811    512.756    518.831    512.756
 70.870    639.311    603.132     36.180    512.841    596.509    512.841    519.447    512.841
 70.970    650.000    629.028     20.972    512.925    621.778    512.925    520.149    512.925
 71.070    606.000    669.249    -63.249    513.008    661.252    513.008    520.966    513.008
 71.170    687.000    729.314    -42.314    513.091    720.403    513.091    521.945    513.091
 71.270    804.000    814.725    -10.725    513.173    804.658    513.173    523.159    513.173
 71.370    877.000    929.511    -52.511    513.255    917.926    513.255    524.732    513.255
 71.470   1035.567   1074.367    -38.799    513.336   1060.708    513.336    526.856    513.336
 71.570   1244.000   1244.794     -0.794    513.416   1228.220    513.416    529.824    513.416
 71.670   1377.000   1429.786    -52.786    513.496   1409.038    513.496    534.054    513.496
 71.770   1564.878   1611.488    -46.610    513.575   1584.757    513.575    540.105    513.575
 71.870   1745.000   1766.446    -21.446    513.654   1731.242    513.654    548.661    513.654
 71.970   1885.000   1869.673     15.327    513.731   1822.759    513.731    560.471    513.731
 72.070   1882.000   1902.550    -20.550    513.808   1839.986    513.808    576.233    513.808
 72.170   1804.000   1861.490    -57.490    513.885   1778.847    513.885    596.428    513.885
 72.270   1720.877   1760.023    -39.146    513.961   1652.812    513.961    621.108    513.961
 72.370   1642.000   1621.813     20.187    514.036   1486.122    514.036    649.691    514.036
 72.470   1443.516   1471.128    -27.613    514.110   1304.447    514.110    680.774    514.110
 72.570   1397.000   1326.794     70.206    514.184   1128.976    514.184    711.995    514.184
 72.670   1196.000   1199.906     -3.906    514.256    974.155    514.256    740.005    514.256
 72.770   1153.918   1093.924     59.994    514.329    847.490    514.329    760.761    514.329
 72.870    940.000   1006.608    -66.608    514.400    750.528    514.400    770.477    514.400
 72.970    905.000    933.241    -28.241    514.471    680.580    514.471    767.127    514.471
 73.070    788.000    869.603    -81.603    514.541    632.667    514.541    751.473    514.541
 73.170    765.000    813.241    -48.241    514.610    601.209    514.610    726.639    514.610
 73.270    785.325    763.174     22.151    514.678    581.167    514.678    696.682    514.678
 73.370    673.121    719.198    -46.077    514.746    568.599    514.746    665.343    514.746
 73.470    642.000    681.403    -39.403    514.813    560.748    514.813    635.468    514.813
 73.570    657.654    649.903      7.751    514.879    555.869    514.879    608.915    514.879
 73.670    586.000    624.657    -38.657    514.944    552.958    514.944    586.646    514.944
 73.770    649.589    605.370     44.219    515.008    551.489    515.008    568.896    515.008
 73.870    575.000    591.481    -16.481    515.072    551.196    515.072    555.366    515.072
 73.970    543.372    582.220    -38.848    515.135    551.925    515.135    545.444    515.135
 74.070    613.351    576.693     36.658    515.196    553.520    515.196    538.388    515.196
 74.170    607.641    573.955     33.686    515.258    555.764    515.258    533.474    515.258
 74.270    534.271    573.065    -38.794    515.318    558.336    515.318    530.078    515.318
 74.370    614.772    573.110     41.662    515.377    560.809    515.377    527.715    515.377
 74.470    577.704    573.241      4.463    515.436    562.685    515.436    526.033    515.436
 74.570    614.338    572.741     41.597    515.493    563.485    515.493    524.794    515.493
 74.670    537.683    571.158    -33.475    515.550    562.909    515.550    523.844    515.550
 74.770    555.683    568.407    -12.725    515.606    560.968    515.606    523.088    515.606
 74.870    609.000    564.756     44.244    515.661    557.989    515.661    522.467    515.661
 74.970    594.000    560.679     33.321    515.715    554.482    515.715    521.944    515.715
 75.070    634.000    556.710     77.290    515.768    551.006    515.768    521.498    515.768
 75.170    599.000    553.365     45.635    515.820    548.092    515.820    521.114    515.820
 75.270    561.062    551.131      9.931    515.871    546.237    515.871    520.779    515.871
 75.370    578.000    550.483     27.517    515.922    545.925    515.922    520.487    515.922
 75.470    546.000    551.911     -5.911    515.971    547.653    515.971    520.231    515.971
 75.570    573.000    555.938     17.062    516.019    551.947    516.019    520.006    516.019
 75.670    581.621    563.087     18.533    516.067    559.337    516.067    519.808    516.067
 75.770    529.895    573.811    -43.916    516.113    570.275    516.113    519.633    516.113
 75.870    581.000    588.344     -7.344    516.159    585.002    516.159    519.477    516.159
 75.970    593.000    606.538    -13.538    516.204    603.369    516.204    519.340    516.204
 76.070    593.561    627.692    -34.131    516.247    624.681    516.247    519.217    516.247
 76.170    692.507    650.442     42.065    516.290    647.574    516.290    519.109    516.290
 76.270    637.000    672.731    -35.731    516.331    669.994    516.331    519.012    516.331
 76.370    670.000    691.916    -21.916    516.372    689.301    516.372    518.925    516.372
 76.470    679.000    705.102    -26.102    516.411    702.602    516.411    518.848    516.411
 76.570    709.000    709.863     -0.863    516.450    707.473    516.450    518.779    516.450
 76.670    709.263    705.185      4.078    516.488    702.901    516.488    518.717    516.488
 76.770    735.332    691.962     43.370    516.524    689.777    516.524    518.662    516.524
 76.870    671.942    672.544     -0.602    516.559    670.453    516.559    518.613    516.559
 76.970    645.000    649.804     -4.804    516.594    647.801    516.594    518.568    516.594
 77.070    587.895    626.395    -38.500    516.627    624.473    516.627    518.528    516.627
 77.170    625.876    604.384     21.492    516.660    602.537    516.660    518.493    516.660
 77.270    595.021    585.138      9.883    516.691    583.359    516.691    518.460    516.691
 77.370    574.000    569.332      4.668    516.721    567.616    516.721    518.431    516.721
 77.470    524.000    557.063    -33.063    516.750    555.404    516.750    518.405    516.750
 77.570    585.986    548.009     37.977    516.778    546.403    516.778    518.382    516.778
 77.670    522.000    541.620    -19.620    516.805    540.063    516.805    518.360    516.805
 77.770    484.000    537.276    -53.276    516.831    535.764    516.831    518.341    516.831
 77.870    556.041    534.402     21.639    516.855    532.933    516.855    518.323    516.855
 77.970    556.070    532.528     23.542    516.879    531.098    516.879    518.307    516.879
 78.070    509.426    531.304    -21.878    516.901    529.912    516.901    518.293    516.901
 78.170    540.000    530.493      9.507    516.923    529.136    516.923    518.280    516.923
 78.270    526.000    529.941     -3.941    516.943    528.616    516.943    518.267    516.943
 78.370    521.000    529.540     -8.540    516.962    528.245    516.962    518.256    516.962
 78.470    524.000    529.258     -5.258    516.980    527.992    516.980    518.246    516.980
 78.570    515.033    529.105    -14.072    516.997    527.865    516.997    518.236    516.997
 78.670    487.000    529.053    -42.053    517.012    527.837    517.012    518.228    517.012
 78.770    503.837    529.108    -25.271    517.027    527.914    517.027    518.220    517.027
 78.870    531.000    529.286      1.714    517.040    528.112    517.040    518.214    517.040
 78.970    498.061    529.612    -31.551    517.052    528.455    517.052    518.209    517.052
 79.070    497.390    530.114    -32.724    517.063    528.971    517.063    518.205    517.063
 79.170    503.039    530.821    -27.782    517.073    529.689    517.073    518.204    517.073
 79.270    558.000    531.764     26.236    517.082    530.638    517.082    518.206    517.082
 79.370    513.475    532.969    -19.494    517.089    531.843    517.089    518.212    517.089
 79.470    538.526    534.464      4.062    517.096    533.332    517.096    518.224    517.096
 79.570    528.000    536.285     -8.285    517.101    535.139    517.101    518.243    517.101
 79.670    526.275    538.488    -12.213    517.105    537.319    517.105    518.269    517.105
 79.770    530.811    541.166    -10.356    517.107    539.964    517.107    518.304    517.107
 79.870    538.925    544.475     -5.550    517.109    543.230    517.109    518.349    517.109
 79.970    527.000    548.655    -21.655    517.109    547.355    517.109    518.403    517.109
 80.070    513.000    554.054    -41.054    517.108    552.692    517.108    518.466    517.108
 80.170    578.379    561.129     17.250    517.106    559.698    517.106    518.534    517.106
 80.270    579.000    570.390      8.610    517.102    568.887    517.102    518.604    517.102
 80.370    593.000    582.300     10.700    517.098    580.729    517.098    518.671    517.098
 80.470    566.000    597.159    -31.159    517.092    595.529    517.092    518.728    517.092
 80.570    614.000    614.981     -0.981    517.084    613.310    517.084    518.766    517.084
 80.670    625.000    635.408    -10.408    517.076    633.721    517.076    518.778    517.076
 80.770    665.000    657.657      7.343    517.066    655.985    517.066    518.759    517.066
 80.870    673.000    680.551     -7.551    517.055    678.923    517.055    518.710    517.055
 80.970    689.000    702.636    -13.636    517.043    701.078    517.043    518.635    517.043
 81.070    709.000    722.400    -13.400    517.030    720.930    517.030    518.541    517.030
 81.170    659.000    738.481    -79.481    517.015    737.108    517.015    518.437    517.015
 81.270    777.000    749.792     27.208    516.999    748.518    516.999    518.328    516.999
 81.370    754.000    755.618     -1.618    516.982    754.440    516.982    518.222    516.982
 81.470    727.000    755.702    -28.702    516.963    754.611    516.963    518.120    516.963
 81.570    766.000    750.257     15.743    516.944    749.243    516.944    518.027    516.944
 81.670    762.000    739.895     22.105    516.922    738.946    516.922    517.942    516.922
 81.770    767.447    725.566     41.882    516.900    724.670    516.900    517.866    516.900
 81.870    662.785    708.508    -45.723    516.876    707.654    516.876    517.799    516.876
 81.970    670.000    690.075    -20.075    516.851    689.254    516.851    517.739    516.851
 82.070    682.000    671.468     10.532    516.825    670.672    516.825    517.685    516.825
 82.170    658.000    653.521      4.479    516.798    652.742    516.798    517.636    516.798
 82.270    617.133    636.663    -19.530    516.769    635.897    516.769    517.590    516.769
 82.370    638.263    621.045     17.218    516.739    620.288    516.739    517.547    516.739
 82.470    559.479    606.722    -47.242    516.707    605.969    516.707    517.505    516.707
 82.570    615.000    593.788     21.212    516.674    593.038    516.674    517.464    516.674
 82.670    626.743    582.404     44.339    516.640    581.655    516.640    517.423    516.640
 82.770    567.000    572.757     -5.757    516.605    572.007    516.605    517.381    516.605
 82.870    557.000    565.015     -8.015    516.568    564.263    516.568    517.340    516.568
 82.970    559.000    559.311     -0.311    516.530    558.555    516.530    517.297    516.530
 83.070    563.000    555.724      7.276    516.490    554.964    516.490    517.254    516.490
 83.170    598.911    554.262     44.650    516.449    553.498    516.449    517.210    516.449
 83.270    554.884    554.834      0.050    516.407    554.065    516.407    517.165    516.407
 83.370    559.000    557.232      1.768    516.364    556.458    516.364    517.120    516.364
 83.470    549.000    561.116    -12.116    516.319    560.337    516.319    517.073    516.319
 83.570    576.000    566.015      9.985    516.273    565.230    516.273    517.026    516.273
 83.670    589.268    571.337     17.932    516.226    570.547    516.226    516.977    516.226
 83.770    535.000    576.399    -41.399    516.177    575.605    516.177    516.927    516.177
 83.870    563.000    580.481    -17.481    516.127    579.685    516.127    516.877    516.127
 83.970    563.000    582.922    -19.922    516.075    582.125    516.075    516.825    516.075
 84.070    560.000    583.256    -23.256    516.022    582.460    516.022    516.772    516.022
 84.170    546.055    581.347    -35.292    515.968    580.553    515.968    516.719    515.968
 84.270    553.921    577.416    -23.495    515.913    576.626    515.913    516.664    515.913
 84.370    537.000    571.958    -34.958    515.856    571.172    515.856    516.608    515.856
 84.470    582.000    565.584     16.416    515.798    564.802    515.798    516.551    515.798
 84.570    554.000    558.890     -4.890    515.738    558.111    515.738    516.493    515.738
 84.670    519.000    552.383    -33.383    515.677    551.608    515.677    516.434    515.677
 84.770    543.011    546.445     -3.434    515.615    545.671    515.615    516.374    515.615
 84.870    493.000    541.314    -48.314    515.551    540.542    515.551    516.312    515.551
 84.970    538.855    537.101      1.754    515.486    536.329    515.486    516.250    515.486
 85.070    513.000    533.807    -20.807    515.420    533.033    515.420    516.186    515.420
 85.170    525.000    531.355     -6.355    515.352    530.580    515.352    516.122    515.352
 85.270    484.933    529.630    -44.698    515.283    528.852    515.283    516.056    515.283
 85.370    532.000    528.503      3.497    515.212    527.721    515.212    515.990    515.212
 85.470    557.822    527.857     29.965    515.140    527.071    515.140    515.922    515.140
 85.570    558.276    527.604     30.672    515.067    526.814    515.067    515.853    515.067
 85.670    547.154    527.695     19.459    514.993    526.899    514.993    515.783    514.993
 85.770    535.000    528.119      6.881    514.917    527.318    514.917    515.712    514.917
 85.870    554.000    528.912     25.088    514.839    528.105    514.839    515.640    514.839
 85.970    493.000    530.152    -37.152    514.761    529.337    514.761    515.567    514.761
 86.070    534.000    531.959      2.041    514.681    531.136    514.681    515.493    514.681
 86.170    574.431    534.489     39.942    514.599    533.656    514.599    515.418    514.599
 86.270    528.000    537.922     -9.922    514.517    537.077    514.517    515.342    514.517
 86.370    528.322    542.443    -14.121    514.432    541.586    514.432    515.264    514.432
 86.470    586.045    548.217     37.828    514.347    547.345    514.347    515.186    514.347
 86.570    547.000    555.350     -8.350    514.260    554.461    514.260    515.107    514.260
 86.670    546.084    563.849    -17.765    514.172    562.942    514.172    515.027    514.172
 86.770    602.000    573.582     28.418    514.082    572.656    514.082    514.946    514.082
 86.870    603.000    584.248     18.752    513.992    583.301    513.992    514.864    513.992
 86.970    569.000    595.346    -26.346    513.899    594.378    513.899    514.781    513.899
 87.070    609.000    606.220      2.780    513.806    605.232    513.806    514.698    513.806
 87.170    637.000    616.051     20.949    513.711    615.044    513.711    514.613    513.711
 87.270    675.000    623.932     51.068    513.614    622.908    513.614    514.528    513.614
 87.370    667.000    629.023     37.977    513.517    627.986    513.517    514.441    513.517
 87.470    673.000    630.747     42.253    513.418    629.701    513.418    514.354    513.418
 87.570    674.000    628.953     45.047    513.317    627.901    513.317    514.266    513.317
 87.670    633.000    623.966      9.034    513.215    622.911    513.215    514.178    513.215
 87.770    638.000    616.481     21.519    513.112    615.426    513.112    514.087    513.112
 87.870    572.726    607.399    -34.673    513.008    606.342    513.008    513.997    513.008
 87.970    566.472    597.671    -31.198    512.902    596.612    512.902    513.906    512.902
 88.070    629.000    588.198     40.802    512.795    587.135    512.795    513.816    512.795
 88.170    603.000    579.763     23.237    512.687    578.696    512.687    513.724    512.687
 88.270    536.250    572.989    -36.739    512.577    571.914    512.577    513.632    512.577
 88.370    571.000    568.307      2.693    512.466    567.222    512.466    513.540    512.466
 88.470    562.000    565.951     -3.951    512.353    564.855    512.353    513.447    512.353
 88.570    574.000    565.959      8.041    512.239    564.851    512.239    513.354    512.239
 88.670    570.000    568.184      1.816    512.124    567.062    512.124    513.261    512.124
 88.770    613.810    572.308     41.502    512.008    571.169    512.008    513.168    512.008
 88.870    567.345    577.859    -10.514    511.890    576.703    511.890    513.075    511.890
 88.970    592.000    584.238      7.762    511.771    583.064    511.771    512.982    511.771
 89.070    606.000    590.747     15.253    511.650    589.553    511.650    512.889    511.650
 89.170    582.000    596.628    -14.628    511.529    595.411    511.529    512.797    511.529
 89.270    565.750    601.128    -35.378    511.406    599.887    511.406    512.705    511.406
 89.370    613.000    603.604      9.396    511.281    602.334    511.281    512.614    511.281
 89.470    606.388    603.641      2.746    511.156    602.338    511.156    512.524    511.156
 89.570    615.000    601.155     13.845    511.029    599.815    511.029    512.435    511.029
 89.670    559.073    596.401    -37.328    510.900    595.018    510.900    512.347    510.900
 89.770    596.077    589.882      6.195    510.771    588.452    510.771    512.261    510.771
 89.870    557.000    582.221    -25.221    510.640    580.738    510.640    512.176    510.640
 89.970    557.059    574.039    -16.980    510.508    572.500    510.508    512.094    510.508
 90.070    563.000    565.891     -2.891    510.375    564.291    510.375    512.014    510.375
 90.170    511.000    558.217    -47.217    510.240    556.553    510.240    511.937    510.240
 90.270    535.000    551.334    -16.334    510.104    549.601    510.104    511.864    510.104
 90.370    533.000    545.431    -12.431    509.967    543.623    509.967    511.794    509.967
 90.470    540.821    540.580      0.241    509.828    538.693    509.828    511.730    509.828
 90.570    555.000    536.764     18.236    509.689    534.791    509.689    511.672    509.689
 90.670    480.000    533.898    -53.898    509.548    531.832    509.548    511.621    509.548
 90.770    518.729    531.863    -13.134    509.405    529.693    509.405    511.580    509.405
 90.870    568.041    530.530     37.511    509.262    528.244    509.262    511.551    509.262
 90.970    536.000    529.777      6.223    509.117    527.358    509.117    511.538    509.117
 91.070    556.335    529.477     26.858    508.971    526.902    508.971    511.547    508.971
 91.170    533.830    529.641      4.189    508.824    526.881    508.824    511.583    508.824
 91.270    520.000    530.247    -10.247    508.676    527.262    508.676    511.658    508.676
 91.370    543.000    531.314     11.686    508.526    528.052    508.526    511.785    508.526
 91.470    535.592    532.925      2.667    508.375    529.316    508.375    511.981    508.375
 91.570    526.000    535.210     -9.210    508.223    531.161    508.223    512.267    508.223
 91.670    541.957    538.351      3.606    508.070    533.744    508.070    512.671    508.070
 91.770    535.000    542.576     -7.576    507.916    537.258    507.916    513.224    507.916
 91.870    546.000    548.135     -2.135    507.760    541.921    507.760    513.962    507.760
 91.970    553.193    555.300     -2.107    507.603    547.964    507.603    514.924    507.603
 92.070    580.000    564.331     15.669    507.445    555.608    507.445    516.147    507.445
 92.170    598.000    575.456     22.544    507.286    565.044    507.286    517.672    507.286
 92.270    561.000    588.831    -27.831    507.126    576.396    507.126    519.530    507.126
 92.370    587.831    604.507    -16.677    506.965    589.697    506.965    521.737    506.965
 92.470    606.000    622.400    -16.400    506.802    604.861    506.802    524.296    506.802
 92.570    679.000    642.268     36.732    506.638    621.664    506.638    527.189    506.638
 92.670    693.879    663.691     30.188    506.473    639.734    506.473    530.371    506.473
 92.770    658.000    686.071    -28.071    506.307    658.544    506.307    533.769    506.307
 92.870    708.000    708.644     -0.644    506.140    677.440    506.140    537.273    506.140
 92.970    717.000    730.550    -13.550    505.972    695.705    505.972    540.742    505.972
 93.070    725.000    750.929    -25.929    505.803    712.660    505.803    543.995    505.803
 93.170    749.620    769.051    -19.431    505.632    727.785    505.632    546.821    505.632
 93.270    774.708    784.453     -9.745    505.461    740.841    505.461    548.994    505.461
 93.370    828.469    796.986     31.484    505.288    751.891    505.288    550.307    505.288
 93.470    774.000    806.783    -32.783    505.115    761.214    505.115    550.610    505.115
 93.570    865.181    814.182     50.998    504.940    769.197    504.940    549.853    504.940
 93.670    875.214    819.667     55.547    504.764    776.260    504.764    548.103    504.764
 93.770    815.228    823.837     -8.610    504.587    782.841    504.587    545.518    504.587
 93.870    848.000    827.405     20.595    504.409    789.439    504.409    542.312    504.409
 93.970    830.000    831.162     -1.162    504.230    796.619    504.230    538.712    504.230
 94.070    807.819    835.866    -28.047    504.050    804.934    504.050    534.924    504.050
 94.170    812.000    842.075    -30.075    503.869    814.764    503.869    531.123    503.869
 94.270    872.000    849.965     22.035    503.688    826.149    503.688    527.448    503.688
 94.370    889.000    859.219     29.781    503.505    838.669    503.505    524.002    503.505
 94.470    832.169    869.006    -36.837    503.321    851.424    503.321    520.854    503.321
 94.570    850.000    878.045    -28.045    503.136    863.091    503.136    518.045    503.136
 94.670    964.000    884.745     79.255    502.950    872.066    502.950    515.590    502.950
 94.770    841.839    887.443    -45.604    502.763    876.691    502.763    513.485    502.763
 94.870    965.000    884.714     80.286    502.575    875.560    502.575    511.708    502.575
 94.970    913.000    875.708     37.292    502.386    867.853    502.386    510.228    502.386
 95.070    875.000    860.376     14.624    502.197    853.559    502.197    509.008    502.197
 95.170    875.000    839.494     35.506    502.006    833.494    502.006    508.008    502.006
 95.270    809.000    814.481     -5.481    501.815    809.113    501.815    507.190    501.815
 95.370    775.149    787.133    -11.984    501.622    782.249    501.622    506.518    501.622
 95.470    781.542    759.375     22.167    501.429    754.855    501.429    505.962    501.429
 95.570    743.000    733.148      9.852    501.235    728.900    501.235    505.496    501.235
 95.670    754.000    710.230     43.770    501.040    706.183    501.040    505.098    501.040
 95.770    661.105    692.215    -31.110    500.844    688.314    500.844    504.752    500.844
 95.870    678.000    680.498     -2.498    500.647    676.700    500.647    504.447    500.647
 95.970    669.000    676.261     -7.261    500.450    672.534    500.450    504.172    500.450
 96.070    695.000    680.492     14.508    500.252    676.809    500.252    503.921    500.252
 96.170    720.444    693.984     26.461    500.052    690.325    500.052    503.689    500.052
 96.270    697.000    717.329    -20.329    499.852    713.676    499.852    503.473    499.852
 96.370    733.000    750.875    -17.875    499.652    747.213    499.652    503.270    499.652
 96.470    810.000    794.652     15.348    499.450    790.967    499.450    503.080    499.450
 96.570    851.000    848.270      2.730    499.248    844.551    499.248    502.901    499.248
 96.670    940.642    910.817     29.824    499.045    907.053    499.045    502.733    499.045
 96.770    981.000    980.765      0.235    498.841    976.946    498.841    502.574    498.841
 96.870   1049.000   1055.890     -6.890    498.637   1052.007    498.637    502.426    498.637
 96.970   1093.000   1133.266    -40.266    498.431   1129.312    498.431    502.289    498.431
 97.070   1274.017   1209.302     64.715    498.226   1205.269    498.226    502.162    498.226
 97.170   1327.973   1279.864     48.109    498.019   1275.745    498.019    502.045    498.019
 97.270   1318.760   1340.519    -21.759    497.812   1336.308    497.812    501.940    497.812
 97.370   1363.000   1386.964    -23.964    497.604   1382.652    497.604    501.847    497.604
 97.470   1423.000   1415.621      7.379    497.395   1411.199    497.395    501.767    497.395
 97.570   1475.000   1424.299     50.701    497.186   1419.754    497.186    501.702    497.186
 97.670   1398.683   1412.628    -13.945    496.976   1407.946    496.976    501.651    496.976
 97.770   1404.038   1382.091     21.946    496.766   1377.252    496.766    501.618    496.766
 97.870   1407.251   1335.622     71.629    496.555   1330.603    496.555    501.605    496.555
 97.970   1345.000   1277.033     67.967    496.343   1271.807    496.343    501.615    496.343
 98.070   1233.000   1210.480     22.520    496.131   1205.014    496.131    501.652    496.131
 98.170   1147.000   1140.084      6.916    495.918   1134.340    495.918    501.722    495.918
 98.270   1007.883   1069.681    -61.798    495.705   1063.615    495.705    501.833    495.705
 98.370   1054.000   1002.674     51.326    495.491    996.228    495.491    501.996    495.491
 98.470    959.000    941.952     17.048    495.277    935.057    495.277    502.226    495.277
 98.570    863.000    889.873    -26.873    495.062    882.439    495.062    502.543    495.062
 98.670    832.867    848.286    -15.419    494.847    840.197    494.847    502.974    494.847
 98.770    788.000    818.593    -30.593    494.631    809.700    494.631    503.553    494.631
 98.870    776.798    801.825    -25.027    494.415    791.934    494.415    504.324    494.415
 98.970    813.000    798.720     14.280    494.198    787.583    494.198    505.344    494.198
 99.070    841.000    809.782     31.218    493.981    797.082    493.981    506.680    493.981
 99.170    818.000    835.357    -17.357    493.764    820.698    493.764    508.414    493.764
 99.270    850.000    875.574    -25.574    493.546    858.465    493.546    510.639    493.546
 99.370    913.000    930.307    -17.307    493.328    910.156    493.328    513.459    493.328
 99.470    985.000    999.119    -14.119    493.110    975.220    493.110    516.985    493.110
 99.570   1068.000   1081.148    -13.148    492.891   1052.686    492.891    521.330    492.891
 99.670   1187.633   1175.010     12.622    492.672   1141.061    492.672    526.602    492.672
 99.770   1337.000   1278.703     58.297    492.452   1238.253    492.452    532.891    492.452
 99.870   1406.000   1389.540     16.460    492.232   1341.507    492.232    540.265    492.232
 99.970   1469.000   1504.138    -35.138    492.012   1447.413    492.012    548.753    492.012
100.070   1705.000   1618.490     86.510    491.792   1551.982    491.792    558.336    491.792
100.170   1776.000   1728.167     47.833    491.572   1650.862    491.572    568.936    491.572
100.270   1769.736   1828.654    -58.918    491.351   1739.684    491.351    580.405    491.351
100.370   1943.000   1915.764     27.236    491.130   1814.485    491.130    592.521    491.130
100.470   1947.521   1985.993    -38.472    490.909   1872.063    490.909    604.978    490.909
100.570   2123.000   2036.681     86.319    490.688   1910.148    490.688    617.384    490.688
100.670   2067.000   2065.989      1.011    490.466   1927.375    490.466    629.264    490.466
100.770   2037.000   2072.838    -35.838    490.245   1923.217    490.245    640.068    490.245
100.870   2195.000   2056.987    138.013    490.023   1898.030    490.023    649.195    490.023
100.970   1934.955   2019.270    -84.316    489.801   1853.245    489.801    656.050    489.801
101.070   1944.000   1961.844    -17.844    489.579   1791.532    489.579    660.116    489.579
101.170   1872.000   1888.209    -16.209    489.358   1716.736    489.358    661.052    489.358
101.270   1753.213   1802.918    -49.706    489.136   1633.507    489.136    658.761    489.136
101.370   1667.092   1711.043    -43.951    488.914   1546.744    488.914    653.414    488.914
101.470   1627.719   1617.588     10.131    488.692   1461.053    488.692    645.414    488.692
101.570   1570.091   1527.012     43.079    488.470   1380.345    488.470    635.308    488.470
101.670   1468.033   1442.907     25.126    488.248   1307.608    488.248    623.701    488.248
101.770   1352.000   1367.832    -15.832    488.026   1244.811    488.026    611.185    488.026
101.870   1272.000   1303.259    -31.259    487.805   1192.897    487.805    598.289    487.805
101.970   1201.000   1249.609    -48.609    487.583   1151.834    487.583    585.467    487.583
102.070   1255.000   1206.338     48.662    487.361   1120.715    487.361    573.084    487.361
102.170   1232.648   1172.076     60.572    487.140   1097.886    487.140    561.421    487.140
102.270   1179.442   1144.803     34.638    486.919   1081.130    486.919    550.679    486.919
102.370   1213.000   1122.076     90.924    486.698   1067.874    486.698    540.984    486.698
102.470   1104.953   1101.298      3.656    486.477   1055.462    486.477    532.396    486.477
102.570   1085.566   1080.039      5.527    486.257   1041.462    486.257    524.919    486.257
102.670   1065.470   1056.354      9.116    486.036   1023.965    486.036    518.511    486.036
102.770   1012.000   1029.011    -17.011    485.816   1001.817    485.816    513.098    485.816
102.870    992.249    997.579     -5.330    485.596    974.682    485.596    508.581    485.596
102.970    964.328    962.337      1.991    485.377    942.950    485.377    504.851    485.377
103.070    883.000    924.079    -41.079    485.158    907.526    485.158    501.795    485.158
103.170    879.000    883.893     -4.893    484.939    869.608    484.939    499.304    484.939
103.270    856.000    842.971     13.029    484.721    830.490    484.721    497.276    484.721
103.370    816.000    802.481     13.519    484.503    791.431    484.503    495.621    484.503
103.470    774.448    763.474     10.974    484.285    753.558    484.285    494.262    484.285
103.570    758.421    726.827     31.593    484.068    717.814    484.068    493.135    484.068
103.670    639.860    693.210    -53.350    483.851    684.921    483.851    492.187    483.851
103.770    672.000    663.072      8.928    483.635    655.369    483.635    491.377    483.635
103.870    614.000    636.643    -22.643    483.419    629.423    483.419    490.673    483.419
103.970    656.000    613.954     42.046    483.204    607.136    483.204    490.049    483.204
104.070    610.000    594.865     15.135    482.989    588.387    482.989    489.489    482.989
104.170    568.000    579.129    -11.129    482.775    572.945    482.775    488.977    482.775
104.270    537.944    566.405    -28.461    482.562    560.475    482.562    488.505    482.562
104.370    529.868    556.308    -26.440    482.349    550.603    482.349    488.064    482.349
104.470    583.000    548.449     34.551    482.137    542.943    482.137    487.650    482.137
104.570    549.995    542.460      7.535    481.926    537.132    481.926    487.258    481.926
104.670    547.709    538.003      9.706    481.715    532.840    481.715    486.881    481.715
104.770    542.886    534.809      8.078    481.505    529.790    481.505    486.525    481.505
104.870    522.143    532.647    -10.505    481.296    527.758    481.296    486.185    481.296
104.970    484.956    531.350    -46.394    481.087    526.576    481.087    485.860    481.087
105.070    549.000    530.803     18.197    480.879    526.133    480.879    485.546    480.879
105.170    542.000    530.944     11.056    480.673    526.367    480.673    485.245    480.673
105.270    544.000    531.756     12.244    480.467    527.262    480.467    484.955    480.467
105.370    515.000    533.262    -18.262    480.261    528.842    480.261    484.675    480.261
105.470    554.575    535.521     19.054    480.057    531.166    480.057    484.403    480.057
105.570    509.000    538.609    -29.609    479.854    534.321    479.854    484.131    479.854
105.670    557.000    542.649     14.351    479.652    538.410    479.652    483.876    479.652
105.770    575.000    547.739     27.261    479.450    543.541    479.450    483.632    479.450
105.870    529.000    553.975    -24.975    479.250    549.812    479.250    483.394    479.250
105.970    582.000    561.432     20.568    479.050    557.296    479.050    483.165    479.050
106.070    558.000    570.141    -12.141    478.852    566.026    478.852    482.943    478.852
106.170    586.000    580.081      5.919    478.655    575.981    478.655    482.727    478.655
106.270    598.000    591.167      6.833    478.459    587.076    478.459    482.519    478.459
106.370    626.000    603.244     22.756    478.264    599.156    478.264    482.317    478.264
106.470    607.095    616.084     -8.989    478.070    611.995    478.070    482.122    478.070
106.570    648.000    629.387     18.613    477.878    625.291    477.878    481.933    477.878
106.670    640.000    642.790     -2.790    477.686    638.683    477.686    481.750    477.686
106.770    604.000    655.878    -51.878    477.496    651.756    477.496    481.574    477.496
106.870    679.000    668.203     10.797    477.307    664.061    477.307    481.403    477.307
106.970    690.950    679.310     11.640    477.120    675.146    477.120    481.240    477.120
107.070    627.000    688.782    -61.782    476.934    684.590    476.934    481.082    476.934
107.170    726.857    696.285     30.572    476.749    692.062    476.749    480.930    476.749
107.270    693.967    701.629     -7.662    476.566    697.370    476.566    480.785    476.566
107.370    680.000    704.804    -24.804    476.384    700.506    476.384    480.647    476.384
107.470    696.000    705.995     -9.995    476.203    701.653    476.203    480.514    476.203
107.570    656.309    705.547    -49.238    476.024    701.156    476.024    480.389    476.024
107.670    690.847    703.913    -13.066    475.847    699.467    475.847    480.270    475.847
107.770    705.011    701.579      3.432    475.671    697.074    475.671    480.158    475.671
107.870    698.781    699.009     -0.227    475.496    694.438    475.496    480.053    475.496
107.970    657.000    696.591    -39.591    475.324    691.950    475.324    479.955    475.324
108.070    719.726    694.614     25.112    475.152    689.896    475.152    479.865    475.152
108.170    713.000    693.241     19.759    474.983    688.440    474.983    479.782    474.983
108.270    740.039    692.504     47.535    474.815    687.614    474.815    479.708    474.815
108.370    651.388    692.306    -40.917    474.649    687.319    474.649    479.641    474.649
108.470    649.862    692.426    -42.564    474.485    687.337    474.485    479.583    474.485
108.570    681.000    692.543    -11.543    474.322    687.343    474.322    479.535    474.322
108.670    708.369    692.265     16.105    474.162    686.946    474.162    479.495    474.162
108.770    687.000    691.173     -4.173    474.003    685.728    474.003    479.466    474.003
108.870    690.000    688.883      1.117    473.846    683.303    473.846    479.446    473.846
108.970    704.000    685.097     18.903    473.691    679.372    473.691    479.437    473.691
109.070    684.000    679.653      4.347    473.538    673.774    473.538    479.440    473.538
109.170    686.475    672.544     13.932    473.387    666.501    473.387    479.454    473.387
109.270    691.000    663.908     27.092    473.237    657.689    473.237    479.481    473.237
109.370    648.000    653.995     -5.995    473.090    647.588    473.090    479.522    473.090
109.470    641.000    643.123     -2.123    472.945    636.517    472.945    479.576    472.945
109.570    648.000    631.623     16.377    472.803    624.803    472.803    479.645    472.803
109.670    642.598    619.874     22.724    472.662    612.827    472.662    479.731    472.662
109.770    579.000    608.225    -29.225    472.523    600.935    472.523    479.833    472.523
109.870    671.000    596.954     74.046    472.387    589.404    472.387    479.954    472.387
109.970    618.000    586.308     31.692    472.253    578.481    472.253    480.095    472.253
110.070    633.000    576.489     56.511    472.121    568.365    472.121    480.258    472.121
110.170    551.000    567.645    -16.645    471.992    559.203    471.992    480.445    471.992
110.270    586.000    559.872     26.128    471.865    551.087    471.865    480.658    471.865
110.370    584.000    553.215     30.785    471.740    544.061    471.740    480.901    471.740
110.470    580.445    547.679     32.766    471.618    538.123    471.618    481.179    471.618
110.570    526.000    543.231    -17.231    471.498    533.237    471.498    481.495    471.498
110.670    553.000    539.812     13.188    471.380    529.337    471.380    481.856    471.380
110.770    567.000    537.344     29.656    471.265    526.339    471.265    482.271    471.265
110.870    555.163    535.741     19.421    471.153    524.144    471.153    482.750    471.153
110.970    546.510    534.914     11.596    471.044    522.650    471.044    483.306    471.044
111.070    611.000    534.778     76.222    470.936    521.755    470.936    483.955    470.936
111.170    513.846    535.256    -21.410    470.832    521.364    470.832    484.720    470.832
111.270    558.618    536.288     22.329    470.730    521.387    470.730    485.627    470.730
111.370    519.981    537.826    -17.846    470.631    521.745    470.631    486.707    470.631
111.470    555.832    539.842     15.990    470.535    522.369    470.535    488.001    470.535
111.570    553.000    542.326     10.674    470.442    523.202    470.442    489.558    470.442
111.670    583.873    545.289     38.583    470.352    524.198    470.352    491.435    470.352
111.770    543.593    548.764     -5.171    470.264    525.320    470.264    493.700    470.264
111.870    568.000    552.804     15.196    470.179    526.543    470.179    496.432    470.179
111.970    578.000    557.484     20.516    470.098    527.853    470.098    499.720    470.098
112.070    526.000    562.900    -36.900    470.019    529.245    470.019    503.664    470.019
112.170    546.000    569.167    -23.167    469.943    530.727    469.943    508.374    469.943
112.270    609.000    576.416     32.584    469.871    532.312    469.871    513.965    469.871
112.370    540.000    584.791    -44.791    469.801    534.023    469.801    520.558    469.801
112.470    570.000    594.442    -24.442    469.735    535.891    469.735    528.276    469.735
112.570    581.575    605.526    -23.951    469.672    537.954    469.672    537.233    469.672
112.670    632.000    618.196     13.804    469.612    540.259    469.612    547.538    469.612
112.770    669.098    632.602     36.495    469.556    542.866    469.556    559.280    469.556
112.870    695.713    648.886     46.827    469.502    545.851    469.502    572.524    469.502
112.970    682.063    667.179     14.884    469.453    549.314    469.453    587.303    469.453
113.070    655.878    687.605    -31.727    469.406    553.384    469.406    603.612    469.406
113.170    719.000    710.283      8.717    469.363    558.231    469.363    621.399    469.363
113.270    719.000    735.334    -16.334    469.323    564.081    469.323    640.558    469.323
113.370    764.000    762.888      1.112    469.287    571.231    469.287    660.925    469.287
113.470    746.100    793.108    -47.008    469.255    580.068    469.255    682.273    469.255
113.570    787.000    826.202    -39.202    469.226    591.096    469.226    704.307    469.226
113.670    905.000    862.449     42.551    469.201    604.957    469.201    726.663    469.201
113.770    846.742    902.230    -55.488    469.179    622.465    469.179    748.909    469.179
113.870    956.000    946.052      9.948    469.161    644.631    469.161    770.541    469.161
113.970    995.751    994.588      1.163    469.147    672.690    469.147    790.996    469.147
114.070   1017.000   1048.708    -31.708    469.137    708.127    469.137    809.658    469.137
114.170   1120.000   1109.522     10.478    469.131    752.692    469.131    825.887    469.131
114.270   1201.000   1178.419     22.581    469.128    808.402    469.128    839.056    469.128
114.370   1296.000   1257.105     38.895    469.130    877.529    469.130    848.597    469.130
114.470   1328.000   1347.630    -19.630    469.135    962.568    469.135    854.065    469.135
114.570   1473.000   1452.380     20.620    469.145   1066.174    469.145    855.191    469.145
114.670   1555.522   1574.030    -18.508    469.158   1191.078    469.158    851.917    469.158
114.770   1691.259   1715.433    -24.174    469.176   1339.971    469.176    844.409    469.176
114.870   1871.000   1879.450     -8.450    469.197   1515.350    469.197    833.027    469.197
114.970   2088.000   2068.731     19.269    469.223   1719.353    469.223    818.285    469.223
115.070   2359.000   2285.460     73.540    469.254   1953.561    469.254    800.788    469.254
115.170   2545.000   2531.099     13.901    469.288   2218.795    469.288    781.176    469.288
115.270   2897.000   2806.141     90.859    469.327   2514.921    469.327    760.080    469.327
115.370   3101.496   3109.897     -8.401    469.370   2840.656    469.370    738.093    469.370
115.470   3389.000   3440.322    -51.322    469.418   3193.424    469.418    715.751    469.418
115.570   3827.475   3793.898     33.576    469.470   3569.240    469.470    693.521    469.470
115.670   4060.784   4165.579   -104.795    469.527   3962.660    469.527    671.804    469.527
115.770   4425.000   4548.799   -123.799    469.588   4366.791    469.588    650.928    469.588
115.870   4790.000   4935.556   -145.556    469.654   4773.374    469.654    631.155    469.654
115.970   5281.421   5316.566    -35.145    469.724   5172.930    469.724    612.680    469.724
116.070   5501.000   5681.502   -180.502    469.799   5555.000    469.799    595.638    469.799
116.170   6094.758   6019.314     75.444    469.879   5908.457    469.879    580.107    469.879
116.270   6293.000   6318.672    -25.672    469.964   6221.943    469.964    566.116    469.964
116.370   6643.000   6568.536     74.464    470.053   6484.431    470.053    553.650    470.053
116.470   6659.642   6758.861    -99.219    470.148   6685.926    470.148    542.659    470.148
116.570   7010.000   6881.404    128.596    470.247   6818.260    470.247    533.065    470.247
116.670   6951.000   6930.536     20.464    470.351   6875.900    470.351    524.768    470.351
116.770   6916.000   6903.887     12.113    470.461   6856.583    470.461    517.658    470.461
116.870   6809.426   6802.530      6.896    470.575   6761.496    470.575    511.613    470.575
116.970   6611.267   6630.900    -19.633    470.695   6595.191    470.695    506.513    470.695
117.070   6340.000   6396.245    -56.245    470.819   6365.029    470.819    502.239    470.819
117.170   6080.880   6107.869    -26.990    470.949   6080.427    470.949    498.676    470.949
117.270   5717.000   5776.324    -59.324    471.085   5752.037    471.085    495.722    471.085
117.370   5485.084   5412.674     72.411    471.225   5391.018    471.225    493.280    471.225
117.470   4979.000   5027.893    -48.893    471.371   5008.429    471.371    491.268    471.371
117.570   4614.000   4632.406    -18.406    471.522   4614.768    471.522    489.611    471.522
117.670   4275.398   4235.739     39.658    471.679   4219.626    471.679    488.247    471.679
117.770   3946.000   3846.275     99.725    471.841   3831.438    471.841    487.123    471.841
117.870   3680.000   3471.080    208.920    472.009   3457.320    472.009    486.195    472.009
117.970   3246.000   3115.824    130.176    472.183   3102.978    472.183    485.428    472.183
118.070   2902.000   2784.759    117.241    472.362   2772.695    472.362    484.790    472.362
118.170   2541.000   2480.774     60.226    472.547   2469.387    472.547    484.260    472.547
118.270   2222.000   2205.498     16.502    472.738   2194.704    472.738    483.818    472.738
118.370   1982.000   1959.448     22.552    472.934   1949.180    472.934    483.450    472.934
118.470   1775.000   1742.199     32.801    473.137   1732.402    473.137    483.144    473.137
118.570   1578.000   1552.569     25.431    473.345   1543.198    473.345    482.890    473.345
118.670   1343.000   1388.804    -45.804    473.559   1379.822    473.559    482.683    473.559
118.770   1179.284   1248.753    -69.469    473.780   1240.130    473.780    482.515    473.780
118.870   1130.744   1130.039      0.705    474.006   1121.749    474.006    482.384    474.006
118.970   1055.449   1030.192     25.257    474.239   1022.212    474.239    482.285    474.239
119.070    907.000    946.773    -39.773    474.477    939.084    474.477    482.215    474.477
119.170    906.000    877.460     28.540    474.722    870.044    474.722    482.174    474.722
119.270    782.991    820.114    -37.123    474.974    812.954    474.974    482.159    474.974
119.370    700.000    772.810    -72.810    475.231    765.891    475.231    482.168    475.231
119.470    689.000    733.865    -44.865    475.496    727.170    475.496    482.202    475.496
119.570    684.077    701.827    -17.749    475.766    695.341    475.766    482.258    475.766
119.670    642.000    675.472    -33.472    476.043    669.182    476.043    482.338    476.043
119.770    611.000    653.783    -42.783    476.327    647.674    476.327    482.439    476.327
119.870    609.000    635.925    -26.925    476.617    629.981    476.617    482.564    476.617
119.970    606.000    621.221    -15.221    476.914    615.426    476.914    482.710    476.914
120.070    582.856    609.126    -26.270    477.218    603.466    477.218    482.880    477.218
120.170    622.633    599.209     23.425    477.528    593.666    477.528    483.072    477.528
120.270    545.179    591.127    -45.948    477.846    585.686    477.846    483.289    477.846
120.370    537.303    584.612    -47.309    478.170    579.254    478.170    483.530    478.170
120.470    593.231    579.453     13.778    478.501    574.160    478.501    483.796    478.501
120.570    553.000    575.487    -22.487    478.839    570.240    478.839    484.089    478.839
120.670    559.000    572.586    -13.586    479.185    567.364    479.185    484.410    479.185
120.770    560.000    570.650    -10.650    479.537    565.434    479.537    484.759    479.537
120.870    540.000    569.603    -29.603    479.897    564.368    479.897    485.137    479.897
120.970    544.000    569.381    -25.381    480.263    564.105    480.263    485.546    480.263
121.070    519.000    569.932    -50.932    480.638    564.591    480.638    485.987    480.638
121.170    578.000    571.209      6.791    481.019    565.778    481.019    486.460    481.019
121.270    548.000    573.168    -25.168    481.408    567.621    481.408    486.965    481.408
121.370    555.000    575.762    -20.762    481.805    570.076    481.805    487.503    481.805
121.470    590.000    578.943     11.057    482.209    573.091    482.209    488.074    482.209
121.570    604.000    582.653     21.347    482.620    576.612    482.620    488.677    482.620
121.670    574.000    586.828    -12.828    483.039    580.576    483.039    489.310    483.039
121.770    582.000    591.396     -9.396    483.466    584.911    483.466    489.973    483.466
121.870    596.281    596.274      0.008    483.901    589.535    483.901    490.663    483.901
121.970    597.000    601.367     -4.367    484.344    594.360    484.344    491.377    484.344
122.070    612.000    606.573      5.427    484.794    599.284    484.794    492.112    484.794
122.170    607.000    611.779     -4.779    485.253    604.202    485.253    492.862    485.253
122.270    609.000    616.870     -7.870    485.719    609.000    485.719    493.625    485.719
122.370    626.000    621.726      4.274    486.194    613.562    486.194    494.395    486.194
122.470    663.593    626.221     37.372    486.676    617.771    486.676    495.167    486.676
122.570    641.000    630.239     10.761    487.167    621.516    487.167    495.932    487.167
122.670    650.000    633.670     16.330    487.666    624.696    487.666    496.685    487.666
122.770    645.140    636.423      8.717    488.174    627.225    488.174    497.418    488.174
122.870    646.000    638.427      7.573    488.690    629.041    488.690    498.124    488.690
122.970    588.370    639.641    -51.271    489.214    630.109    489.214    498.795    489.214
123.070    704.000    640.049     63.951    489.747    630.420    489.747    499.425    489.747
123.170    672.786    639.669     33.117    490.288    629.996    490.288    500.010    490.288
123.270    603.240    638.542    -35.302    490.838    628.882    490.838    500.546    490.838
123.370    616.839    636.731    -19.892    491.397    627.143    491.397    501.032    491.397
123.470    578.000    634.317    -56.317    491.964    624.857    491.964    501.469    491.964
123.570    659.000    631.387     27.613    492.541    622.110    492.541    501.860    492.541
123.670    647.000    628.036     18.964    493.126    618.993    493.126    502.210    493.126
123.770    608.000    624.360    -16.360    493.720    615.594    493.720    502.524    493.720
123.870    667.000    620.448     46.552    494.323    611.997    494.323    502.810    494.323
123.970    652.675    616.387     36.288    494.936    608.280    494.936    503.074    494.936
124.070    655.153    612.253     42.900    495.557    604.514    495.557    503.325    495.557
124.170    626.000    608.110     17.890    496.188    600.755    496.188    503.568    496.188
124.270    620.000    604.013     15.987    496.828    597.052    496.828    503.812    496.828
124.370    577.122    600.003    -22.881    497.477    593.439    497.477    504.061    497.477
124.470    570.970    596.108    -25.138    498.136    589.940    498.136    504.321    498.136
124.570    631.714    592.347     39.367    498.804    586.568    498.804    504.597    498.804
124.670    569.113    588.727    -19.614    499.482    583.327    499.482    504.893    499.482
124.770    576.000    585.247     -9.247    500.169    580.214    500.169    505.213    500.169
124.870    590.690    581.901      8.789    500.866    577.217    500.866    505.558    500.866
124.970    563.000    578.686    -15.686    501.573    574.333    501.573    505.933    501.573
