neutron_powder_diffraction_0220
R_wp: 3.940
Temperature (K): 1074.000
Counts: 83515.00
Wavelength (Ã…): 2.52098
COMMENTS
Test file for demonstrating the .xyy file format in Reel1.0
END OF HEADER
   tth       Y_obs     Y_calc      Y_res    Background    Phase_1_Nuc    Phase_1_Mag    Phase_2_Nuc    Phase_2_Mag
  9.970    575.000    574.868      0.132    574.191    574.847    574.191    574.212    574.191
 10.070    581.000    574.932      6.068    574.195    574.910    574.195    574.216    574.195
 10.170    600.000    575.000     25.000    574.194    574.977    574.194    574.217    574.194
 10.270    587.000    575.077     11.923    574.189    575.051    574.189    574.214    574.189
 10.370    555.000    575.174    -20.174    574.179    575.148    574.179    574.204    574.179
 10.470    619.000    575.269     43.731    574.165    575.243    574.165    574.190    574.165
 10.570    606.000    575.377     30.623    574.146    575.350    574.146    574.171    574.146
 10.670    577.000    575.504      1.496    574.122    575.477    574.122    574.148    574.122
 10.770    589.000    575.657     13.343    574.095    575.631    574.095    574.121    574.095
 10.870    628.000    575.847     52.153    574.063    575.820    574.063    574.089    574.063
 10.970    552.881    576.086    -23.205    574.027    576.059    574.027    574.053    574.027
 11.070    610.366    576.392     33.974    573.986    576.364    573.986    574.012    573.986
 11.170    642.000    576.791     65.209    573.941    576.763    573.941    573.968    573.941
 11.270    604.000    577.326     26.674    573.893    577.298    573.893    573.919    573.893
 11.370    561.692    578.068    -16.376    573.840    578.039    573.840    573.866    573.840
 11.470    582.000    579.178      2.822    573.783    579.148    573.783    573.810    573.783
 11.570    621.000    581.093     39.907    573.722    581.061    573.722    573.750    573.722
 11.670    621.000    584.973     36.027    573.657    584.938    573.657    573.686    573.657
 11.770    632.000    593.344     38.656    573.588    593.304    573.588    573.617    573.588
 11.870    642.000    610.016     31.984    573.515    609.966    573.515    573.544    573.515
 11.970    684.165    637.651     46.514    573.439    637.586    573.439    573.468    573.439
 12.070    628.774    672.483    -43.710    573.358    672.399    573.358    573.388    573.358
 12.170    657.578    699.566    -41.988    573.274    699.466    573.274    573.304    573.274
 12.270    729.000    700.360     28.640    573.186    700.259    573.186    573.216    573.186
 12.370    636.000    674.086    -38.086    573.094    673.999    573.094    573.125    573.094
 12.470    627.000    638.953    -11.953    572.999    638.886    572.999    573.030    572.999
 12.570    574.000    610.557    -36.557    572.900    610.504    572.900    572.932    572.900
 12.670    571.000    593.180    -22.180    572.798    593.127    572.798    572.840    572.798
 12.770    586.000    584.314      1.686    572.692    584.264    572.692    572.736    572.692
 12.870    558.000    580.115    -22.115    572.583    580.067    572.583    572.627    572.583
 12.970    547.000    577.971    -30.971    572.470    577.923    572.470    572.515    572.470
 13.070    579.000    576.664      2.336    572.354    576.617    572.354    572.399    572.354
 13.170    617.808    575.739     42.069    572.234    575.691    572.234    572.279    572.234
 13.270    570.000    575.026     -5.026    572.111    574.979    572.111    572.157    572.111
 13.370    596.000    574.452     21.548    571.985    574.405    571.985    572.031    571.985
 13.470    607.861    573.975     33.886    571.855    573.927    571.855    571.902    571.855
 13.570    605.848    573.571     32.277    571.723    573.519    571.723    571.774    571.723
 13.670    562.000    573.214    -11.214    571.587    573.161    571.587    571.640    571.587
 13.770    533.106    572.894    -39.788    571.448    572.840    571.448    571.501    571.448
 13.870    604.000    572.602     31.398    571.306    572.549    571.306    571.359    571.306
 13.970    536.933    572.332    -35.400    571.161    572.278    571.161    571.214    571.161
 14.070    553.000    572.079    -19.079    571.013    572.025    571.013    571.066    571.013
 14.170    558.000    571.838    -13.838    570.861    571.784    570.861    570.916    570.861
 14.270    587.000    571.608     15.392    570.707    571.553    570.707    570.762    570.707
 14.370    534.000    571.385    -37.385    570.550    571.330    570.550    570.605    570.550
 14.470    548.000    571.168    -23.168    570.390    571.112    570.390    570.446    570.390
 14.570    598.000    570.955     27.045    570.228    570.899    570.228    570.283    570.228
 14.670    540.000    570.746    -30.746    570.062    570.690    570.062    570.118    570.062
 14.770    529.000    570.539    -41.539    569.894    570.483    569.894    569.950    569.894
 14.870    582.000    570.337     11.663    569.723    570.280    569.723    569.780    569.723
 14.970    588.274    570.134     18.140    569.549    570.077    569.549    569.606    569.549
 15.070    520.000    569.931    -49.931    569.373    569.874    569.373    569.430    569.373
 15.170    565.293    569.728     -4.436    569.194    569.671    569.194    569.252    569.194
 15.270    548.000    569.525    -21.525    569.013    569.468    569.013    569.070    569.013
 15.370    567.000    569.322     -2.322    568.829    569.264    568.829    568.887    568.829
 15.470    539.460    569.118    -29.658    568.642    569.060    568.642    568.701    568.642
 15.570    534.000    568.914    -34.914    568.453    568.855    568.453    568.512    568.453
 15.670    576.000    568.708      7.292    568.262    568.649    568.262    568.321    568.262
 15.770    585.000    568.502     16.498    568.068    568.442    568.068    568.127    568.068
 15.870    553.000    568.294    -15.294    567.871    568.234    567.871    567.931    567.871
 15.970    549.000    568.086    -19.086    567.673    568.025    567.673    567.734    567.673
 16.070    568.000    567.878      0.122    567.472    567.814    567.472    567.536    567.472
 16.170    518.000    567.667    -49.667    567.269    567.603    567.269    567.333    567.269
 16.270    599.795    567.456     32.339    567.063    567.390    567.063    567.129    567.063
 16.370    578.199    567.244     10.955    566.856    567.177    566.856    566.922    566.856
 16.470    596.000    567.028     28.972    566.646    566.961    566.646    566.713    566.646
 16.570    563.000    566.811     -3.811    566.434    566.744    566.434    566.502    566.434
 16.670    577.000    566.593     10.407    566.220    566.524    566.220    566.288    566.220
 16.770    597.615    566.372     31.243    566.004    566.304    566.004    566.072    566.004
 16.870    550.461    566.150    -15.690    565.786    566.081    565.786    565.855    565.786
 16.970    535.375    565.927    -30.552    565.566    565.858    565.566    565.635    565.566
 17.070    538.501    565.703    -27.202    565.343    565.632    565.343    565.413    565.343
 17.170    564.000    565.476     -1.476    565.119    565.406    565.119    565.190    565.119
 17.270    573.000    565.248      7.752    564.893    565.177    564.893    564.964    564.893
 17.370    587.000    565.019     21.981    564.665    564.948    564.665    564.737    564.665
 17.470    575.000    564.790     10.210    564.436    564.718    564.436    564.508    564.436
 17.570    592.000    564.558     27.442    564.204    564.486    564.204    564.277    564.204
 17.670    588.000    564.325     23.675    563.971    564.252    563.971    564.044    563.971
 17.770    566.000    564.089      1.911    563.736    564.016    563.736    563.809    563.736
 17.870    535.317    563.853    -28.536    563.499    563.779    563.499    563.573    563.499
 17.970    580.000    563.615     16.385    563.260    563.540    563.260    563.335    563.260
 18.070    579.000    563.375     15.625    563.020    563.300    563.020    563.095    563.020
 18.170    597.854    563.135     34.720    562.778    563.059    562.778    562.854    562.778
 18.270    551.000    562.894    -11.894    562.535    562.816    562.535    562.613    562.535
 18.370    512.000    562.651    -50.651    562.290    562.572    562.290    562.368    562.290
 18.470    551.419    562.406    -10.987    562.043    562.327    562.043    562.122    562.043
 18.570    530.443    562.160    -31.717    561.795    562.081    561.795    561.875    561.795
 18.670    554.094    561.913     -7.819    561.546    561.833    561.546    561.626    561.546
 18.770    535.000    561.666    -26.666    561.295    561.585    561.295    561.376    561.295
 18.870    594.000    561.418     32.582    561.042    561.336    561.042    561.124    561.042
 18.970    544.000    561.167    -17.167    560.789    561.085    560.789    560.871    560.789
 19.070    551.000    560.916     -9.916    560.533    560.833    560.533    560.616    560.533
 19.170    579.000    560.664     18.336    560.277    560.580    560.277    560.360    560.277
 19.270    579.000    560.410     18.590    560.019    560.326    560.019    560.103    560.019
 19.370    539.000    560.155    -21.155    559.760    560.071    559.760    559.845    559.760
 19.470    521.407    559.900    -38.492    559.499    559.814    559.499    559.585    559.499
 19.570    604.404    559.643     44.761    559.238    559.557    559.238    559.324    559.238
 19.670    567.000    559.386      7.614    558.975    559.299    558.975    559.062    558.975
 19.770    577.000    559.128     17.872    558.711    559.040    558.711    558.799    558.711
 19.870    553.000    558.869     -5.869    558.446    558.780    558.446    558.534    558.446
 19.970    547.000    558.610    -11.610    558.179    558.520    558.179    558.269    558.179
 20.070    551.000    558.355     -7.355    557.912    558.260    557.912    558.007    557.912
 20.170    510.000    558.109    -48.109    557.644    558.012    557.644    557.741    557.644
 20.270    556.000    557.858     -1.858    557.374    557.759    557.374    557.473    557.374
 20.370    505.000    557.597    -52.597    557.104    557.497    557.104    557.203    557.104
 20.470    551.000    557.334     -6.334    556.832    557.234    556.832    556.932    556.832
 20.570    540.000    557.072    -17.072    556.560    556.970    556.560    556.661    556.560
 20.670    556.828    556.809      0.019    556.286    556.706    556.286    556.388    556.286
 20.770    539.000    556.545    -17.545    556.012    556.442    556.012    556.115    556.012
 20.870    546.988    556.282     -9.294    555.737    556.178    555.737    555.841    555.737
 20.970    542.000    556.019    -14.019    555.461    555.913    555.461    555.566    555.461
 21.070    587.000    555.755     31.245    555.184    555.649    555.184    555.290    555.184
 21.170    542.701    555.492    -12.791    554.906    555.384    554.906    555.014    554.906
 21.270    546.000    555.228     -9.228    554.628    555.120    554.628    554.736    554.628
 21.370    509.051    554.966    -45.914    554.348    554.856    554.348    554.458    554.348
 21.470    515.000    554.703    -39.703    554.068    554.592    554.068    554.180    554.068
 21.570    569.630    554.441     15.189    553.788    554.329    553.788    553.900    553.788
 21.670    552.000    554.181     -2.181    553.506    554.067    553.506    553.620    553.506
 21.770    553.582    553.921     -0.338    553.224    553.806    553.224    553.339    553.224
 21.870    540.000    553.662    -13.662    552.942    553.546    552.942    553.058    552.942
 21.970    589.708    553.405     36.304    552.658    553.287    552.658    552.776    552.658
 22.070    574.000    553.157     20.843    552.374    553.038    552.374    552.494    552.374
 22.170    567.000    552.980     14.020    552.090    552.859    552.090    552.211    552.090
 22.270    525.000    552.749    -27.749    551.805    552.627    551.805    551.927    551.805
 22.370    516.000    552.503    -36.503    551.519    552.379    551.519    551.643    551.519
 22.470    566.224    552.259     13.965    551.233    552.134    551.233    551.359    551.233
 22.570    567.971    552.020     15.951    550.947    551.893    550.947    551.074    550.947
 22.670    580.000    551.788     28.212    550.660    551.659    550.660    550.789    550.660
 22.770    555.000    551.563      3.437    550.373    551.433    550.373    550.504    550.373
 22.870    510.000    551.348    -41.348    550.085    551.215    550.085    550.218    550.085
 22.970    531.000    551.181    -20.181    549.797    551.047    549.797    549.932    549.797
 23.070    557.000    551.018      5.982    549.508    550.882    549.508    549.645    549.508
 23.170    514.000    550.859    -36.859    549.219    550.720    549.219    549.359    549.219
 23.270    541.000    550.695     -9.695    548.930    550.554    548.930    549.072    548.930
 23.370    578.659    550.552     28.107    548.641    550.409    548.641    548.785    548.641
 23.470    538.000    550.439    -12.439    548.351    550.293    548.351    548.497    548.351
 23.570    562.000    550.365     11.635    548.061    550.217    548.061    548.210    548.061
 23.670    551.000    550.344      0.656    547.771    550.194    547.771    547.922    547.771
 23.770    582.000    550.401     31.599    547.480    550.246    547.480    547.637    547.480
 23.870    574.731    550.558     24.174    547.190    550.399    547.190    547.350    547.190
 23.970    555.000    550.877      4.123    546.899    550.716    546.899    547.062    546.899
 24.070    585.790    551.498     34.292    546.608    551.334    546.608    546.774    546.608
 24.170    569.000    552.800     16.200    546.317    552.634    546.317    546.487    546.317
 24.270    580.000    555.737     24.263    546.026    555.570    546.026    546.199    546.026
 24.370    589.229    562.190     27.038    545.734    562.024    545.734    545.911    545.734
 24.470    570.847    574.608     -3.761    545.443    574.447    545.443    545.624    545.443
 24.570    638.507    594.029     44.478    545.152    593.878    545.152    545.337    545.152
 24.670    595.000    616.626    -21.626    544.860    616.488    544.860    545.050    544.860
 24.770    610.029    631.473    -21.444    544.569    631.341    544.569    544.763    544.569
 24.870    612.770    627.816    -15.046    544.277    627.677    544.277    544.476    544.277
 24.970    601.000    608.576     -7.576    543.986    608.418    543.986    544.190    543.986
 25.070    616.000    585.830     30.170    543.694    585.650    543.694    543.904    543.694
 25.170    551.000    568.136    -17.136    543.403    567.938    543.403    543.618    543.403
 25.270    575.544    557.367     18.177    543.112    557.155    543.112    543.333    543.112
 25.370    551.000    551.762     -0.762    542.821    551.539    542.821    543.049    542.821
 25.470    513.391    548.972    -35.581    542.530    548.741    542.530    542.765    542.530
 25.570    534.000    547.447    -13.447    542.239    547.208    542.239    542.481    542.239
 25.670    536.000    546.474    -10.474    541.948    546.225    541.948    542.199    541.948
 25.770    508.000    545.756    -37.756    541.658    545.498    541.658    541.917    541.658
 25.870    529.000    545.174    -16.174    541.368    544.908    541.368    541.636    541.368
 25.970    519.835    544.692    -24.857    541.078    544.415    541.078    541.356    541.078
 26.070    526.000    544.288    -18.288    540.788    544.000    540.788    541.076    540.788
 26.170    580.706    543.941     36.765    540.498    543.641    540.498    540.798    540.498
 26.270    563.000    543.643     19.357    540.209    543.330    540.209    540.522    540.209
 26.370    571.000    543.390     27.610    539.920    543.064    539.920    540.246    539.920
 26.470    518.148    543.182    -25.034    539.631    542.841    539.631    539.972    539.631
 26.570    549.368    543.017      6.350    539.343    542.660    539.343    539.700    539.343
 26.670    524.000    542.903    -18.903    539.055    542.527    539.055    539.430    539.055
 26.770    514.852    542.870    -28.018    538.767    542.474    538.767    539.162    538.767
 26.870    554.996    542.898     12.098    538.479    542.481    538.479    538.897    538.479
 26.970    542.000    542.973     -0.973    538.192    542.531    538.192    538.634    538.192
 27.070    500.753    543.138    -42.385    537.906    542.669    537.906    538.374    537.906
 27.170    561.000    543.430     17.570    537.620    542.931    537.620    538.118    537.620
 27.270    566.000    543.893     22.107    537.334    543.361    537.334    537.866    537.334
 27.370    550.000    544.571      5.429    537.049    544.001    537.049    537.618    537.049
 27.470    561.041    545.600     15.441    536.764    544.986    536.764    537.376    536.764
 27.570    585.000    547.286     37.714    536.479    546.623    536.479    537.141    536.479
 27.670    568.000    550.759     17.241    536.196    550.038    536.196    536.913    536.196
 27.770    573.000    560.429     12.571    535.912    559.640    535.912    536.695    535.912
 27.870    612.000    588.561     23.439    535.629    587.687    535.629    536.487    535.629
 27.970    620.000    656.060    -36.060    535.347    655.076    535.347    536.293    535.347
 28.070    782.000    774.251      7.749    535.065    773.127    535.065    536.115    535.065
 28.170    948.595    909.181     39.414    534.784    907.902    534.784    535.958    534.784
 28.270    969.000    975.622     -6.622    534.504    974.195    534.504    535.827    534.504
 28.370    938.000    917.911     20.089    534.224    916.342    534.224    535.729    534.224
 28.470    792.000    794.410     -2.410    533.944    792.655    533.944    535.676    533.944
 28.570    694.209    699.764     -5.555    533.666    697.737    533.666    535.683    533.666
 28.670    718.678    681.559     37.119    533.388    679.153    533.388    535.779    533.388
 28.770    745.000    732.549     12.451    533.110    729.621    533.110    536.017    533.110
 28.870    787.000    808.101    -21.101    532.833    804.427    532.833    536.494    532.833
 28.970    834.813    844.018     -9.205    532.557    839.196    532.557    537.380    532.557
 29.070    806.554    803.193      3.361    532.282    796.545    532.282    538.942    532.282
 29.170    683.000    719.100    -36.100    532.007    709.601    532.007    541.519    532.007
 29.270    681.000    643.423     37.577    531.733    629.732    531.733    545.432    531.733
 29.370    597.000    599.056     -2.056    531.460    579.739    531.460    550.779    531.460
 29.470    607.000    581.808     25.192    531.188    555.899    531.188    557.096    531.188
 29.570    676.000    578.141     97.859    530.916    546.218    530.916    562.837    530.916
 29.670    618.572    576.903     41.669    530.645    542.158    530.645    565.387    530.645
 29.770    596.000    572.722     23.278    530.375    540.022    530.375    563.072    530.375
 29.870    564.000    565.704     -1.704    530.106    538.634    530.106    557.174    530.106
 29.970    580.800    558.123     22.676    529.837    537.659    529.837    550.300    529.837
 30.070    558.000    551.623      6.377    529.569    536.995    529.569    544.196    529.569
 30.170    550.000    546.810      3.190    529.302    536.624    529.302    539.487    529.302
 30.270    550.800    543.766      7.033    529.036    536.651    529.036    536.149    529.036
 30.370    522.631    542.624    -19.993    528.771    537.504    528.771    533.888    528.771
 30.470    560.592    544.224     16.368    528.507    540.365    528.507    532.360    528.507
 30.570    571.000    550.596     20.404    528.244    547.546    528.244    531.283    528.244
 30.670    517.000    564.221    -47.221    527.981    561.710    527.981    530.470    527.981
 30.770    640.000    585.098     54.902    527.719    582.965    527.719    529.814    527.719
 30.870    643.000    606.939     36.061    527.459    605.091    527.459    529.254    527.459
 30.970    644.592    616.970     27.622    527.199    615.352    527.199    528.761    527.199
 31.070    610.000    606.784      3.216    526.940    605.364    526.940    528.314    526.940
 31.170    571.155    584.180    -13.025    526.682    582.931    526.682    527.902    526.682
 31.270    590.000    561.942     28.058    526.426    560.833    526.426    527.519    526.426
 31.370    555.000    546.633      8.367    526.170    545.639    526.170    527.157    526.170
 31.470    527.564    538.380    -10.815    525.915    537.478    525.915    526.812    525.915
 31.570    521.545    534.564    -13.019    525.661    533.740    525.661    526.483    525.661
 31.670    582.000    532.820     49.180    525.408    532.062    525.408    526.165    525.408
 31.770    504.132    531.893    -27.761    525.156    531.191    525.156    525.856    525.156
 31.870    558.000    531.298     26.702    524.905    530.645    524.905    525.557    524.905
 31.970    519.000    530.880    -11.880    524.655    530.270    524.655    525.264    524.655
 32.070    528.000    530.586     -2.586    524.406    530.013    524.406    524.978    524.406
 32.170    491.649    530.396    -38.747    524.158    529.856    524.158    524.698    524.158
 32.270    511.838    530.304    -18.466    523.912    529.793    523.912    524.422    523.912
 32.370    573.920    530.309     43.611    523.666    529.824    523.666    524.150    523.666
 32.470    508.627    530.421    -21.794    523.422    529.959    523.422    523.883    523.422
 32.570    556.000    530.654     25.346    523.178    530.213    523.178    523.618    523.178
 32.670    562.275    531.034     31.241    522.936    530.611    522.936    523.358    522.936
 32.770    570.000    531.592     38.408    522.694    531.186    522.694    523.100    522.694
 32.870    581.000    532.377     48.623    522.454    531.986    522.454    522.844    522.454
 32.970    536.000    533.465      2.535    522.215    533.088    522.215    522.592    522.215
 33.070    557.000    534.973     22.027    521.977    534.608    521.977    522.341    521.977
 33.170    537.918    537.109      0.809    521.741    536.754    521.741    522.093    521.741
 33.270    546.566    540.354      6.211    521.505    540.010    521.505    521.848    521.505
 33.370    506.000    546.057    -40.057    521.271    545.720    521.271    521.604    521.271
 33.470    591.997    557.882     34.115    521.037    557.552    521.037    521.362    521.037
 33.570    601.640    584.058     17.581    520.805    583.731    520.805    521.122    520.805
 33.670    665.000    638.026     26.974    520.574    637.696    520.574    520.884    520.574
 33.770    733.000    732.429      0.571    520.345    732.089    520.345    520.648    520.345
 33.870    849.000    863.995    -14.995    520.116    863.644    520.116    520.414    520.116
 33.970   1040.313    996.549     43.764    519.889    996.193    519.889    520.181    519.889
 34.070   1075.000   1061.580     13.420    519.663   1061.238    519.663    519.950    519.663
 34.170   1008.000   1012.758     -4.758    519.438   1012.448    519.438    519.720    519.438
 34.270    926.150    886.365     39.785    519.214    886.083    519.214    519.493    519.214
 34.370    798.477    751.325     47.152    518.992    751.059    518.992    519.266    518.992
 34.470    665.000    649.617     15.383    518.771    649.355    518.771    519.042    518.771
 34.570    579.000    589.017    -10.017    518.551    588.754    518.551    518.819    518.551
 34.670    542.937    558.510    -15.573    518.332    558.247    518.332    518.597    518.332
 34.770    553.109    544.316      8.793    518.115    544.055    518.115    518.377    518.115
 34.870    533.000    537.333     -4.333    517.899    537.073    517.899    518.159    517.899
 34.970    546.000    533.265     12.735    517.684    533.007    517.684    517.942    517.684
 35.070    544.000    530.475     13.525    517.470    530.219    517.470    517.726    517.470
 35.170    502.413    528.370    -25.958    517.258    528.116    517.258    517.512    517.258
 35.270    507.000    526.708    -19.708    517.047    526.455    517.047    517.299    517.047
 35.370    562.476    525.360     37.116    516.837    525.108    516.837    517.088    516.837
 35.470    526.000    524.243      1.757    516.629    523.993    516.629    516.879    516.629
 35.570    503.000    523.301    -20.301    516.422    523.052    516.422    516.671    516.422
 35.670    534.000    522.495     11.505    516.216    522.246    516.216    516.464    516.216
 35.770    497.000    521.795    -24.795    516.012    521.547    516.012    516.259    516.012
 35.870    497.940    521.180    -23.240    515.808    520.933    515.808    516.055    515.808
 35.970    493.503    520.634    -27.131    515.607    520.388    515.607    515.853    515.607
 36.070    505.000    520.147    -15.147    515.406    519.901    515.406    515.652    515.406
 36.170    491.000    519.708    -28.708    515.207    519.463    515.207    515.453    515.207
 36.270    497.000    519.312    -22.312    515.009    519.067    515.009    515.255    515.009
 36.370    511.458    518.954     -7.496    514.813    518.709    514.813    515.058    514.813
 36.470    479.000    518.632    -39.632    514.618    518.387    514.618    514.863    514.618
 36.570    530.000    518.344     11.656    514.424    518.099    514.424    514.670    514.424
 36.670    534.000    518.093     15.907    514.232    517.847    514.232    514.478    514.232
 36.770    516.000    517.885     -1.885    514.041    517.639    514.041    514.287    514.041
 36.870    534.000    517.739     16.261    513.852    517.493    513.852    514.098    513.852
 36.970    535.999    517.710     18.289    513.663    517.463    513.663    513.910    513.663
 37.070    482.339    517.917    -35.578    513.477    517.669    513.477    513.724    513.477
 37.170    525.000    518.587      6.413    513.291    518.339    513.291    513.540    513.291
 37.270    541.506    520.033     21.473    513.107    519.785    513.107    513.356    513.107
 37.370    493.795    522.508    -28.713    512.925    522.259    512.925    513.175    512.925
 37.470    529.000    525.911      3.089    512.744    525.662    512.744    512.994    512.744
 37.570    553.000    529.469     23.531    512.564    529.220    512.564    512.816    512.564
 37.670    500.992    531.696    -30.704    512.385    531.447    512.385    512.638    512.385
 37.770    502.000    531.346    -29.346    512.208    531.098    512.208    512.463    512.208
 37.870    485.000    528.740    -43.740    512.033    528.493    512.033    512.288    512.033
 37.970    533.000    525.242      7.758    511.859    524.996    511.859    512.116    511.859
 38.070    518.000    521.915     -3.915    511.686    521.667    511.686    511.944    511.686
 38.170    481.263    519.190    -37.928    511.515    518.939    511.515    511.775    511.515
 38.270    522.783    517.171      5.613    511.345    516.916    511.345    511.606    511.345
 38.370    505.053    515.785    -10.732    511.177    515.526    511.177    511.439    511.177
 38.470    547.000    514.873     32.127    511.010    514.611    511.010    511.274    511.010
 38.570    519.000    514.274      4.726    510.844    514.009    510.844    511.110    510.844
 38.670    530.101    513.863     16.238    510.680    513.596    510.680    510.948    510.680
 38.770    519.183    513.557      5.626    510.517    513.287    510.517    510.787    510.517
 38.870    477.000    513.306    -36.306    510.356    513.034    510.356    510.628    510.356
 38.970    538.000    513.086     24.914    510.196    512.812    510.196    510.471    510.196
 39.070    488.505    512.887    -24.381    510.038    512.610    510.038    510.314    510.038
 39.170    478.710    512.702    -33.991    509.881    512.423    509.881    510.160    509.881
 39.270    484.000    512.529    -28.529    509.726    512.248    509.726    510.007    509.726
 39.370    538.104    512.366     25.738    509.572    512.083    509.572    509.855    509.572
 39.470    498.000    512.212    -14.212    509.419    511.926    509.419    509.705    509.419
 39.570    496.100    512.067    -15.967    509.268    511.778    509.268    509.557    509.268
 39.670    522.000    511.929     10.071    509.119    511.638    509.119    509.410    509.119
 39.770    535.303    511.799     23.504    508.971    511.505    508.971    509.265    508.971
 39.870    523.000    511.676     11.324    508.824    511.379    508.824    509.121    508.824
 39.970    515.000    511.560      3.440    508.679    511.261    508.679    508.979    508.679
 40.070    511.691    511.453      0.238    508.535    511.150    508.535    508.838    508.535
 40.170    512.000    511.353      0.647    508.393    511.047    508.393    508.699    508.393
 40.270    510.000    511.262     -1.262    508.252    510.953    508.252    508.561    508.252
 40.370    496.000    511.180    -15.180    508.113    510.867    508.113    508.426    508.113
 40.470    475.000    511.108    -36.108    507.975    510.792    507.975    508.291    507.975
 40.570    521.000    511.048      9.952    507.839    510.728    507.839    508.158    507.839
 40.670    543.305    511.001     32.305    507.704    510.677    507.704    508.027    507.704
 40.770    493.000    510.968    -17.968    507.570    510.641    507.570    507.898    507.570
 40.870    468.000    510.954    -42.954    507.438    510.623    507.438    507.770    507.438
 40.970    492.000    510.960    -18.960    507.308    510.625    507.308    507.643    507.308
 41.070    477.795    510.991    -33.196    507.179    510.652    507.179    507.519    507.179
 41.170    489.000    511.053    -22.053    507.051    510.709    507.051    507.395    507.051
 41.270    542.712    511.153     31.560    506.925    510.805    506.925    507.274    506.925
 41.370    532.721    511.302     21.419    506.801    510.949    506.801    507.154    506.801
 41.470    527.000    511.514     15.486    506.678    511.157    506.678    507.036    506.678
 41.570    507.122    511.813     -4.691    506.556    511.451    506.556    506.919    506.556
 41.670    536.000    512.240     23.760    506.436    511.873    506.436    506.804    506.436
 41.770    534.110    512.887     21.223    506.317    512.516    506.317    506.691    506.317
 41.870    470.000    513.982    -43.982    506.200    513.606    506.200    506.579    506.200
 41.970    469.000    516.053    -47.053    506.084    515.672    506.084    506.469    506.084
 42.070    487.866    520.169    -32.302    505.970    519.783    505.970    506.361    505.970
 42.170    521.912    528.057     -6.144    505.857    527.669    505.857    506.254    505.857
 42.270    532.000    541.722     -9.722    505.746    541.334    505.746    506.149    505.746
 42.370    558.450    562.234     -3.784    505.636    561.850    505.636    506.046    505.636
 42.470    591.396    587.909      3.487    505.528    587.531    505.528    505.944    505.528
 42.570    572.360    612.737    -40.377    505.421    612.366    505.421    505.845    505.421
 42.670    587.000    626.946    -39.946    505.316    626.578    505.316    505.746    505.316
 42.770    609.000    623.087    -14.087    505.212    622.713    505.212    505.650    505.212
 42.870    650.433    603.428     47.006    505.110    603.037    505.110    505.556    505.110
 42.970    565.000    577.265    -12.265    505.009    576.853    505.009    505.463    505.009
 43.070    584.149    553.106     31.043    504.909    552.671    504.909    505.372    504.909
 43.170    512.000    535.148    -23.148    504.811    534.694    504.811    505.283    504.811
 43.270    512.000    523.796    -11.796    504.715    523.325    504.715    505.195    504.715
 43.370    502.000    517.446    -15.446    504.619    516.961    504.619    505.110    504.619
 43.470    474.000    514.131    -40.131    504.526    513.634    504.526    505.026    504.526
 43.570    536.000    512.381     23.619    504.434    511.873    504.434    504.944    504.434
 43.670    526.000    511.364     14.636    504.343    510.845    504.343    504.865    504.343
 43.770    549.038    510.690     38.348    504.254    510.159    504.254    504.787    504.254
 43.870    530.000    510.196     19.804    504.166    509.652    504.166    504.711    504.166
 43.970    530.000    509.813     20.187    504.079    509.256    504.079    504.637    504.079
 44.070    485.000    509.508    -24.508    503.995    508.938    503.995    504.565    503.995
 44.170    521.483    509.263     12.220    503.911    508.679    503.911    504.495    503.911
 44.270    488.000    509.064    -21.064    503.829    508.466    503.829    504.428    503.829
 44.370    512.000    508.904      3.096    503.749    508.290    503.749    504.362    503.749
 44.470    481.778    508.774    -26.996    503.670    508.145    503.670    504.299    503.670
 44.570    487.225    508.671    -21.446    503.592    508.025    503.592    504.238    503.592
 44.670    507.000    508.591     -1.591    503.516    507.927    503.516    504.180    503.516
 44.770    529.000    508.532     20.468    503.441    507.849    503.441    504.124    503.441
 44.870    542.000    508.490     33.510    503.367    507.788    503.367    504.070    503.367
 44.970    517.000    508.466      8.534    503.296    507.743    503.296    504.019    503.296
 45.070    480.000    508.458    -28.458    503.225    507.713    503.225    503.970    503.225
 45.170    509.000    508.466      0.534    503.156    507.697    503.156    503.925    503.156
 45.270    516.000    508.488      7.512    503.088    507.695    503.088    503.882    503.088
 45.370    504.655    508.527     -3.872    503.022    507.706    503.022    503.842    503.022
 45.470    504.310    508.580     -4.271    502.957    507.732    502.957    503.806    502.957
 45.570    502.000    508.651     -6.651    502.894    507.772    502.894    503.773    502.894
 45.670    517.000    508.738      8.262    502.832    507.827    502.832    503.743    502.832
 45.770    498.000    508.844    -10.844    502.771    507.899    502.771    503.717    502.771
 45.870    497.000    508.971    -11.971    502.712    507.987    502.712    503.695    502.712
 45.970    534.000    509.119     24.881    502.654    508.096    502.654    503.677    502.654
 46.070    563.000    509.292     53.708    502.598    508.225    502.598    503.664    502.598
 46.170    544.857    509.493     35.364    502.543    508.380    502.543    503.656    502.543
 46.270    517.000    509.726      7.274    502.490    508.563    502.490    503.653    502.490
 46.370    502.000    509.998     -7.998    502.437    508.779    502.437    503.656    502.437
 46.470    494.000    510.314    -16.314    502.387    509.035    502.387    503.665    502.387
 46.570    495.000    510.683    -15.683    502.337    509.339    502.337    503.681    502.337
 46.670    525.000    511.114     13.886    502.289    509.698    502.289    503.704    502.289
 46.770    523.000    511.647     11.353    502.242    510.151    502.242    503.737    502.242
 46.870    531.440    512.326     19.113    502.197    510.743    502.197    503.779    502.197
 46.970    555.548    513.268     42.280    502.153    511.588    502.153    503.831    502.153
 47.070    530.412    514.727     15.685    502.111    512.939    502.111    503.896    502.111
 47.170    477.750    517.201    -39.451    502.069    515.291    502.069    503.975    502.069
 47.270    513.000    521.504     -8.504    502.029    519.456    502.029    504.070    502.029
 47.370    534.000    528.672      5.328    501.991    526.466    501.991    504.183    501.991
 47.470    581.649    539.548     42.102    501.954    537.162    501.954    504.318    501.954
 47.570    534.000    554.064    -20.064    501.918    551.472    501.918    504.478    501.918
 47.670    600.000    570.461     29.539    501.883    567.632    501.883    504.669    501.883
 47.770    581.000    584.853     -3.853    501.850    581.754    501.850    504.896    501.850
 47.870    631.590    592.048     39.542    501.818    588.644    501.818    505.167    501.818
 47.970    597.488    588.975      8.513    501.788    585.220    501.788    505.492    501.788
 48.070    578.000    577.722      0.278    501.759    573.554    501.759    505.884    501.759
 48.170    592.000    563.353     28.647    501.731    558.689    501.731    506.365    501.731
 48.270    585.686    550.244     35.442    501.704    544.962    501.704    506.966    501.704
 48.370    537.000    540.743     -3.743    501.679    534.668    501.679    507.742    501.679
 48.470    528.000    535.410     -7.410    501.655    528.267    501.655    508.790    501.655
 48.570    539.000    533.772      5.228    501.632    525.121    501.632    510.278    501.632
 48.670    515.957    535.136    -19.179    501.611    524.256    501.611    512.487    501.611
 48.770    532.000    539.120     -7.120    501.591    524.863    501.591    515.844    501.591
 48.870    537.000    545.822     -8.822    501.572    526.467    501.572    520.923    501.572
 48.970    539.000    555.733    -16.733    501.554    528.907    501.554    528.376    501.554
 49.070    524.000    569.534    -45.534    501.538    532.306    501.538    538.760    501.538
 49.170    567.000    587.964    -20.964    501.523    537.219    501.523    552.261    501.523
 49.270    647.000    612.117     34.883    501.509    545.290    501.509    568.327    501.509
 49.370    652.000    644.540      7.460    501.497    560.802    501.497    585.220    501.497
 49.470    717.000    691.851     25.149    501.486    593.655    501.486    599.655    501.486
 49.570    787.000    768.903     18.097    501.476    662.986    501.476    607.345    501.476
 49.670    889.000    902.140    -13.140    501.467    798.149    501.467    605.376    501.467
 49.770   1097.496   1124.433    -26.937    501.459   1031.179    501.459    594.585    501.459
 49.870   1456.000   1454.273      1.727    501.453   1376.785    501.453    578.768    501.453
 49.970   1912.000   1866.181     45.819    501.448   1805.499    501.448    561.939    501.448
 50.070   2287.965   2272.749     15.216    501.444   2227.281    501.444    546.757    501.444
 50.170   2516.000   2540.770    -24.770    501.441   2507.702    501.441    534.451    501.441
 50.270   2576.000   2556.437     19.563    501.440   2532.699    501.440    525.247    501.440
 50.370   2270.000   2308.438    -38.438    501.439   2291.262    501.439    518.780    501.439
 50.470   1932.000   1898.682     33.318    501.440   1885.890    501.440    514.433    501.440
 50.570   1422.525   1464.855    -42.330    501.442   1454.907    501.442    511.572    501.442
 50.670   1040.000   1107.017    -67.017    501.446   1098.922    501.446    509.678    501.446
 50.770    861.000    863.865     -2.865    501.450    857.024    501.450    508.385    501.450
 50.870    719.000    724.920     -5.920    501.456    718.981    501.456    507.457    501.456
 50.970    700.490    656.918     43.571    501.463    651.668    501.463    506.759    501.463
 51.070    615.000    626.060    -11.060    501.470    621.356    501.470    506.212    501.470
 51.170    621.833    608.921     12.912    501.480    604.663    501.480    505.771    501.480
 51.270    584.000    594.273    -10.273    501.490    590.380    501.490    505.411    501.490
 51.370    576.000    579.562     -3.562    501.501    575.973    501.501    505.113    501.501
 51.470    563.722    565.836     -2.114    501.514    562.502    501.514    504.865    501.514
 51.570    522.000    554.475    -32.475    501.527    551.356    501.527    504.658    501.527
 51.670    524.328    546.114    -21.786    501.542    543.178    501.542    504.485    501.542
 51.770    570.000    540.621     29.379    501.558    537.843    501.558    504.341    501.558
 51.870    547.000    537.421      9.579    501.575    534.778    501.575    504.222    501.575
 51.970    495.344    535.854    -40.511    501.593    533.327    501.593    504.123    501.593
 52.070    550.198    535.414     14.785    501.612    532.985    501.612    504.043    501.612
 52.170    514.295    535.836    -21.541    501.632    533.492    501.632    503.978    501.632
 52.270    568.653    537.092     31.561    501.653    534.819    501.653    503.928    501.653
 52.370    534.763    539.407     -4.644    501.676    537.194    501.676    503.889    501.676
 52.470    557.000    543.411     13.589    501.699    541.248    501.699    503.862    501.699
 52.570    530.000    550.490    -20.490    501.723    548.369    501.723    503.845    501.723
 52.670    573.000    563.338      9.662    501.749    561.250    501.749    503.837    501.749
 52.770    603.782    586.486     17.296    501.775    584.423    501.775    503.838    501.775
 52.870    642.000    626.294     15.706    501.803    624.248    501.803    503.846    501.803
 52.970    687.000    689.652     -2.652    501.832    687.618    501.832    503.862    501.832
 53.070    880.000    780.947     99.053    501.861    778.918    501.861    503.884    501.861
 53.170    844.988    897.736    -52.748    501.892    895.710    501.892    503.914    501.892
 53.270   1042.000   1026.648     15.352    501.924   1024.623    501.924    503.949    501.924
 53.370   1098.000   1141.493    -43.493    501.956   1139.468    501.956    503.991    501.956
 53.470   1218.000   1207.988     10.012    501.990   1205.960    501.990    504.038    501.990
 53.570   1165.000   1200.967    -35.967    502.024   1198.933    502.024    504.092    502.024
 53.670   1108.000   1123.604    -15.604    502.060   1121.553    502.060    504.151    502.060
 53.770   1004.000   1004.443     -0.443    502.097   1002.364    502.097    504.217    502.097
 53.870    844.697    876.931    -32.234    502.134    874.811    502.134    504.288    502.134
 53.970    715.000    764.894    -49.894    502.173    762.727    502.173    504.365    502.173
 54.070    646.203    679.451    -33.248    502.212    677.233    502.212    504.449    502.212
 54.170    608.520    621.465    -12.945    502.252    619.191    502.252    504.538    502.252
 54.270    549.019    585.817    -36.798    502.294    583.484    502.294    504.634    502.294
 54.370    547.000    565.567    -18.567    502.336    563.171    502.336    504.737    502.336
 54.470    560.000    554.656      5.344    502.379    552.191    502.379    504.847    502.379
 54.570    583.000    548.915     34.085    502.423    546.375    502.423    504.965    502.423
 54.670    527.588    545.929    -18.341    502.468    543.309    502.468    505.090    502.468
 54.770    567.000    544.474     22.526    502.514    541.766    502.514    505.224    502.514
 54.870    541.020    543.990     -2.970    502.561    541.185    502.561    505.366    502.561
 54.970    551.470    544.241      7.229    502.608    541.331    502.608    505.518    502.608
 55.070    524.000    545.139    -21.139    502.657    542.116    502.657    505.681    502.657
 55.170    576.000    546.673     29.327    502.706    543.525    502.706    505.855    502.706
 55.270    571.000    548.876     22.124    502.756    545.592    502.756    506.041    502.756
 55.370    551.000    551.831     -0.831    502.807    548.398    502.807    506.240    502.807
 55.470    587.863    555.694     32.169    502.859    552.099    502.859    506.454    502.859
 55.570    596.786    560.767     36.018    502.912    556.995    502.912    506.685    502.912
 55.670    527.698    567.689    -39.991    502.966    563.722    502.966    506.933    502.966
 55.770    620.000    577.863     42.137    503.020    573.682    503.020    507.201    503.020
 55.870    597.000    594.300      2.700    503.075    589.882    503.075    507.491    503.075
 55.970    655.229    622.963     32.266    503.131    618.282    503.131    507.806    503.131
 56.070    691.000    674.357     16.643    503.188    669.383    503.188    508.149    503.188
 56.170    744.526    764.393    -19.867    503.245    759.092    503.245    508.524    503.245
 56.270    900.082    912.779    -12.697    503.304    907.111    503.304    508.935    503.304
 56.370   1083.000   1137.204    -54.204    503.363   1131.127    503.363    509.388    503.363
 56.470   1494.830   1443.225     51.605    503.423   1436.697    503.423    509.888    503.423
 56.570   1742.000   1812.704    -70.704    503.483   1805.685    503.483    510.442    503.483
 56.670   2237.488   2195.688     41.801    503.544   2188.138    503.544    511.061    503.544
 56.770   2600.971   2511.320     89.651    503.607   2503.196    503.607    511.755    503.607
 56.870   2587.000   2668.007    -81.007    503.669   2659.247    503.669    512.536    503.669
 56.970   2532.197   2611.102    -78.905    503.733   2601.605    503.733    513.423    503.733
 57.070   2360.000   2362.854     -2.854    503.797   2352.463    503.797    514.434    503.797
 57.170   2095.000   2004.033     90.967    503.862   1992.552    503.862    515.599    503.862
 57.270   1683.000   1623.896     59.104    503.928   1611.099    503.928    516.954    503.928
 57.370   1289.935   1287.742      2.193    503.994   1273.363    503.994    518.554    503.994
 57.470   1041.000   1028.248     12.752    504.061   1011.951    504.061    520.488    504.061
 57.570    857.000    850.039      6.961    504.128    831.354    504.128    522.898    504.128
 57.670    815.000    740.384     74.616    504.197    718.598    504.197    526.032    504.197
 57.770    713.000    680.673     32.327    504.266    654.665    504.266    530.300    504.266
 57.870    653.371    654.648     -1.277    504.335    622.637    504.335    536.358    504.335
 57.970    670.000    652.207     17.793    504.405    611.429    504.405    545.183    504.405
 58.070    707.000    669.560     37.440    504.476    615.925    504.476    558.101    504.476
 58.170    705.000    707.590     -2.590    504.548    635.409    504.548    576.707    504.548
 58.270    800.803    769.323     31.480    504.620    671.285    504.620    602.624    504.620
 58.370    849.000    857.203     -8.203    504.692    724.770    504.692    637.079    504.692
 58.470    984.000    970.536     13.464    504.765    794.921    504.765    680.325    504.765
 58.570   1093.000   1103.544    -10.544    504.839    877.340    504.839    730.982    504.839
 58.670   1189.518   1244.514    -54.996    504.914    964.064    504.914    785.304    504.914
 58.770   1413.000   1376.919     36.081    504.989   1045.404    504.989    836.453    504.989
 58.870   1551.000   1482.414     68.586    505.064   1112.920    505.064    874.524    505.064
 58.970   1606.479   1544.275     62.205    505.140   1160.117    505.140    889.284    505.140
 59.070   1591.000   1551.790     39.210    505.217   1181.014    505.217    876.001    505.217
 59.170   1452.031   1505.763    -53.732    505.294   1172.052    505.294    839.029    505.294
 59.270   1423.000   1420.213      2.787    505.371   1137.146    505.371    788.467    505.371
 59.370   1409.000   1317.109     91.891    505.449   1088.276    505.449    734.303    505.449
 59.470   1171.000   1218.429    -47.429    505.528   1040.422    505.528    683.532    505.528
 59.570   1112.000   1142.436    -30.436    505.607   1007.965    505.607    640.040    505.607
 59.670   1172.000   1104.278     67.722    505.687   1004.572    505.687    605.310    505.687
 59.770   1158.000   1115.096     42.904    505.767   1041.572    505.767    579.156    505.767
 59.870   1143.013   1177.351    -34.338    505.847   1122.620    505.847    560.386    505.847
 59.970   1332.807   1280.281     52.526    505.928   1238.576    505.928    547.387    505.928
 60.070   1372.743   1398.799    -26.056    506.010   1365.965    506.010    538.558    506.010
 60.170   1575.000   1496.665     78.335    506.092   1469.900    506.092    532.558    506.092
 60.270   1576.000   1536.209     39.791    506.174   1513.713    506.174    528.394    506.174
 60.370   1482.000   1495.722    -13.722    506.257   1476.359    506.257    525.397    506.257
 60.470   1449.000   1382.222     66.778    506.340   1365.256    506.340    523.148    506.340
 60.570   1235.000   1224.726     10.274    506.423   1209.654    506.423    521.400    506.423
 60.670   1141.000   1057.124     83.876    506.507   1043.571    506.507    520.010    506.507
 60.770    912.000    906.079      5.921    506.591    893.750    506.591    518.899    506.591
 60.870    838.248    786.608     51.640    506.676    775.251    506.676    518.026    506.676
 60.970    706.000    702.762      3.238    506.761    692.150    506.761    517.369    506.761
 61.070    648.000    651.310     -3.310    506.846    641.231    506.846    516.920    506.846
 61.170    594.000    626.423    -32.423    506.932    616.669    506.932    516.676    506.932
 61.270    596.861    623.550    -26.689    507.018    613.918    507.018    516.631    507.018
 61.370    621.000    641.517    -20.517    507.105    631.821    507.105    516.769    507.105
 61.470    649.672    682.675    -33.003    507.191    672.760    507.191    517.058    507.191
 61.570    751.000    751.268     -0.268    507.278    741.033    507.278    517.439    507.278
 61.670    814.000    850.386    -36.386    507.366    839.828    507.366    517.820    507.366
 61.770    917.000    978.229    -61.229    507.453    967.470    507.453    518.076    507.453
 61.870   1081.000   1124.830    -43.830    507.541   1114.127    507.541    518.079    507.541
 61.970   1249.151   1270.539    -21.388    507.629   1260.225    507.629    517.760    507.629
 62.070   1312.000   1387.532    -75.532    507.718   1377.919    507.718    517.149    507.718
 62.170   1461.941   1446.575     15.366    507.807   1437.870    507.807    516.353    507.807
 62.270   1414.000   1430.070    -16.070    507.896   1422.357    507.896    515.493    507.896
 62.370   1289.000   1342.850    -53.850    507.985   1336.101    507.985    514.664    507.985
 62.470   1154.975   1208.806    -53.831    508.074   1202.924    508.074    513.926    508.074
 62.570   1063.000   1057.714      5.286    508.164   1052.568    508.164    513.306    508.164
 62.670    857.000    914.529    -57.529    508.254    909.982    508.254    512.812    508.254
 62.770    757.000    794.888    -37.888    508.344    790.812    508.344    512.434    508.344
 62.870    686.000    704.853    -18.853    508.434    701.143    508.434    512.156    508.434
 62.970    684.000    643.085     40.915    508.524    639.661    508.524    511.957    508.524
 63.070    541.000    604.103    -63.103    508.615    600.904    508.615    511.818    508.615
 63.170    563.958    581.317    -17.359    508.706    578.300    508.706    511.722    508.706
 63.270    525.000    569.035    -44.035    508.796    566.171    508.796    511.658    508.796
 63.370    540.000    563.323    -23.323    508.888    560.590    508.888    511.616    508.888
 63.470    585.000    562.077     22.923    508.979    559.459    508.979    511.590    508.979
 63.570    595.000    564.770     30.230    509.070    562.253    509.070    511.578    509.070
 63.670    601.971    572.157     29.813    509.161    569.730    509.161    511.575    509.161
 63.770    619.000    586.005     32.995    509.253    583.657    509.253    511.582    509.253
 63.870    639.284    608.730     30.553    509.345    606.450    509.345    511.595    509.345
 63.970    672.000    642.805     29.195    509.436    640.583    509.436    511.616    509.436
 64.070    734.000    689.852     44.148    509.528    687.678    509.528    511.642    509.528
 64.170    744.140    749.539     -5.399    509.620    747.406    509.620    511.673    509.620
 64.270    784.662    818.540    -33.878    509.712    816.442    509.712    511.709    509.712
 64.370    905.000    889.871     15.129    509.804    887.809    509.804    511.748    509.804
 64.470    942.225    953.138    -10.912    509.896    951.113    509.896    511.792    509.896
 64.570   1032.000    996.705     35.295    509.988    994.726    509.988    511.840    509.988
 64.670   1080.000   1012.163     67.837    510.080   1010.239    510.080    511.892    510.080
 64.770   1079.000    998.016     80.984    510.172    996.152    510.172    511.947    510.172
 64.870    904.171    959.335    -55.163    510.264    957.533    510.264    512.005    510.264
 64.970    937.000    905.015     31.985    510.356    903.272    510.356    512.065    510.356
 65.070    910.000    844.843     65.157    510.448    843.154    510.448    512.128    510.448
 65.170    743.000    786.807    -43.807    510.540    785.162    510.540    512.194    510.540
 65.270    716.013    735.542    -19.529    510.632    733.933    510.632    512.262    510.632
 65.370    682.000    692.532    -10.532    510.724    690.950    510.724    512.332    510.724
 65.470    669.000    657.464     11.536    510.816    655.903    510.816    512.404    510.816
 65.570    603.000    629.497    -26.497    510.908    627.950    510.908    512.478    510.908
 65.670    629.000    607.728     21.272    511.000    606.192    511.000    512.554    511.000
 65.770    580.000    591.240    -11.240    511.092    589.713    511.092    512.632    511.092
 65.870    587.076    579.153      7.923    511.184    577.634    511.184    512.711    511.184
 65.970    580.000    570.684      9.316    511.275    569.171    511.275    512.792    511.275
 66.070    574.173    565.159      9.013    511.367    563.652    511.367    512.875    511.367
 66.170    554.000    562.005     -8.005    511.458    560.503    511.458    512.960    511.458
 66.270    532.867    560.748    -27.881    511.549    559.251    511.549    513.046    511.549
 66.370    542.425    561.037    -18.611    511.640    559.543    511.640    513.134    511.640
 66.470    536.000    562.679    -26.679    511.731    561.187    511.731    513.223    511.731
 66.570    556.000    565.703     -9.703    511.822    564.211    511.822    513.314    511.822
 66.670    577.000    570.471      6.529    511.913    568.978    511.913    513.407    511.913
 66.770    544.000    577.884    -33.884    512.003    576.387    512.003    513.501    512.003
 66.870    590.000    589.722      0.278    512.093    588.219    512.093    513.597    512.093
 66.970    567.059    609.128    -42.069    512.184    607.616    512.184    513.694    512.184
 67.070    625.000    641.122    -16.122    512.274    639.598    512.274    513.793    512.274
 67.170    683.057    692.926     -9.869    512.363    691.387    512.363    513.894    512.363
 67.270    778.000    773.686      4.314    512.453    772.129    512.453    513.996    512.453
 67.370    880.000    893.172    -13.172    512.542    891.595    512.542    514.100    512.542
 67.470   1094.450   1059.201     35.249    512.631   1057.605    512.631    514.207    512.631
 67.570   1326.000   1274.027     51.973    512.720   1272.417    512.720    514.315    512.720
 67.670   1433.000   1530.524    -97.524    512.809   1528.909    512.809    514.425    512.809
 67.770   1766.000   1809.329    -43.329    512.897   1807.722    512.897    514.537    512.897
 67.870   2089.781   2078.083     11.697    512.985   2076.498    512.985    514.652    512.985
 67.970   2295.000   2294.182      0.818    513.073   2292.631    513.073    514.769    513.073
 68.070   2442.000   2413.833     28.167    513.160   2412.321    513.160    514.889    513.160
 68.170   2474.000   2408.479     65.521    513.247   2406.995    513.247    515.011    513.247
 68.270   2271.000   2279.572     -8.572    513.334   2278.089    513.334    515.137    513.334
 68.370   2073.000   2057.682     15.318    513.421   2056.164    513.421    515.266    513.421
 68.470   1724.000   1786.989    -62.989    513.507   1785.402    513.507    515.398    513.507
 68.570   1549.000   1509.425     39.575    513.593   1507.746    513.593    515.534    513.593
 68.670   1298.000   1256.287     41.713    513.679   1254.502    513.679    515.674    513.679
 68.770   1058.000   1045.837     12.163    513.764   1043.942    513.764    515.819    513.764
 68.870    931.147    884.284     46.863    513.849    882.278    513.849    515.969    513.849
 68.970    803.000    768.757     34.243    513.934    766.644    513.934    516.124    513.934
 69.070    754.000    691.154     62.846    514.018    688.938    514.018    516.285    514.018
 69.170    644.060    641.685      2.375    514.102    639.367    514.102    516.453    514.102
 69.270    648.000    611.333     36.667    514.185    608.911    514.185    516.628    514.185
 69.370    640.000    593.055     46.945    514.268    590.526    514.268    516.811    514.268
 69.470    633.000    581.987     51.013    514.351    579.344    514.351    517.003    514.351
 69.570    594.000    575.089     18.911    514.433    572.324    514.433    517.205    514.433
 69.670    590.986    570.613     20.373    514.515    567.714    514.515    517.418    514.515
 69.770    583.324    567.620     15.704    514.596    564.575    514.596    517.644    514.596
 69.870    593.000    565.629     27.371    514.677    562.424    514.677    517.885    514.677
 69.970    603.000    564.406     38.594    514.757    561.024    514.757    518.141    514.757
 70.070    565.292    563.842      1.450    514.838    560.264    514.838    518.416    514.838
 70.170    585.000    563.905     21.095    514.917    560.109    514.917    518.713    514.917
 70.270    571.000    564.625      6.375    514.996    560.587    514.996    519.033    514.996
 70.370    578.771    566.116     12.655    515.075    561.808    515.075    519.381    515.075
 70.470    508.000    568.627    -60.627    515.153    564.015    515.153    519.762    515.153
 70.570    536.000    572.646    -36.646    515.230    567.691    515.230    520.180    515.230
 70.670    611.000    579.072     31.928    515.308    573.730    515.308    520.643    515.308
 70.770    613.000    589.438     23.562    515.384    583.652    515.384    521.158    515.384
 70.870    606.393    606.177      0.216    515.460    599.880    515.460    521.739    515.460
 70.970    613.000    632.850    -19.850    515.536    625.956    515.536    522.403    515.536
 71.070    673.000    674.174     -1.174    515.611    666.568    515.611    523.176    515.611
 71.170    758.000    735.675     22.325    515.685    727.199    515.685    524.101    515.685
 71.270    847.460    822.794     24.666    515.759    813.217    515.759    525.251    515.759
 71.370    890.703    939.418    -48.714    515.833    928.395    515.833    526.741    515.833
 71.470   1062.842   1086.026    -23.183    515.905   1073.030    515.905    528.756    515.905
 71.570   1287.000   1257.877     29.123    515.978   1242.103    515.978    531.577    515.978
 71.670   1374.000   1443.749    -69.749    516.049   1423.994    516.049    535.606    516.049
 71.770   1544.000   1625.681    -81.681    516.120   1600.208    516.120    541.383    516.120
 71.870   1849.256   1780.293     68.963    516.191   1746.710    516.191    549.567    516.191
 71.970   1935.000   1882.867     52.133    516.260   1838.054    516.260    560.889    516.260
 72.070   1897.413   1915.083    -17.671    516.330   1855.235    516.330    576.028    516.330
 72.170   1946.418   1873.426     72.992    516.398   1794.259    516.398    595.454    516.398
 72.270   1765.000   1771.191     -6.191    516.466   1668.356    516.466    619.228    516.466
 72.370   1683.000   1631.728     51.272    516.533   1501.427    516.533    646.790    516.533
 72.470   1513.000   1479.162     33.838    516.600   1318.951    516.600    676.786    516.600
 72.570   1337.000   1332.407      4.593    516.666   1142.127    516.666    706.932    516.666
 72.670   1209.032   1202.822      6.210    516.731    985.558    516.731    733.988    516.731
 72.770   1148.774   1094.223     54.551    516.796    856.973    516.796    754.040    516.796
 72.870    972.352   1004.713    -32.361    516.860    758.141    516.860    763.425    516.860
 72.970    926.814    929.813     -2.999    516.923    686.546    516.923    760.182    516.923
 73.070    868.981    865.374      3.607    516.986    637.304    516.986    745.049    516.986
 73.170    752.000    808.861    -56.861    517.048    604.853    517.048    721.048    517.048
 73.270    717.000    759.125    -42.125    517.109    584.121    517.109    692.108    517.109
 73.370    670.061    715.775    -45.714    517.169    571.094    517.169    661.846    517.169
 73.470    646.000    678.732    -32.732    517.229    562.943    517.229    633.016    517.229
 73.570    624.000    647.981    -23.981    517.288    557.855    517.288    607.414    517.288
 73.670    665.947    623.391     42.556    517.346    554.771    517.346    585.969    517.346
 73.770    646.449    604.613     41.836    517.404    553.124    517.404    568.897    517.404
 73.870    599.000    591.063      7.937    517.460    552.625    517.460    555.906    517.460
 73.970    574.000    581.970     -7.970    517.516    553.103    517.516    546.396    517.516
 74.070    579.863    576.458      3.405    517.572    554.402    517.572    539.645    517.572
 74.170    532.970    573.616    -40.646    517.626    556.315    517.626    534.951    517.626
 74.270    629.000    572.546     56.454    517.680    558.543    517.680    531.712    517.680
 74.370    555.021    572.388    -17.367    517.733    560.695    517.733    529.460    517.733
 74.470    571.144    572.350     -1.206    517.785    562.316    517.785    527.858    517.785
 74.570    550.093    571.768    -21.675    517.836    562.968    517.836    526.678    517.836
 74.670    560.639    570.222     -9.583    517.886    562.379    517.886    525.772    517.886
 74.770    576.158    567.633      8.525    517.936    560.561    517.936    525.049    517.936
 74.870    639.000    564.243     74.757    517.985    557.809    517.985    524.455    517.985
 74.970    637.000    560.484     76.516    518.033    554.592    518.033    523.955    518.033
 75.070    612.000    556.847     55.153    518.080    551.425    518.080    523.528    518.080
 75.170    552.000    553.813     -1.813    518.126    548.800    518.126    523.158    518.126
 75.270    598.000    551.840     46.160    518.172    547.188    518.172    522.837    518.172
 75.370    610.000    551.381     58.619    518.216    547.048    518.216    522.556    518.216
 75.470    548.256    552.907     -4.652    518.260    548.860    518.260    522.309    518.260
 75.570    534.254    556.922    -22.667    518.303    553.129    518.303    522.092    518.303
 75.670    594.550    563.927     30.623    518.345    560.362    518.345    521.900    518.345
 75.770    570.259    574.348     -4.089    518.386    570.988    518.386    521.730    518.386
 75.870    578.000    588.400    -10.400    518.426    585.224    518.426    521.579    518.426
 75.970    627.060    605.927     21.133    518.466    602.915    518.466    521.445    518.466
 76.070    659.000    626.244     32.756    518.504    623.381    518.504    521.326    518.504
 76.170    620.000    648.035    -28.035    518.542    645.308    518.542    521.219    518.542
 76.270    698.000    669.335     28.665    518.578    666.733    518.578    521.124    518.578
 76.370    735.054    687.630     47.424    518.614    685.144    518.614    521.039    518.614
 76.470    687.000    700.181    -13.181    518.649    697.804    518.649    520.963    518.649
 76.570    683.469    704.701    -21.232    518.683    702.428    518.683    520.894    518.683
 76.670    701.420    700.238      1.183    518.715    698.065    518.715    520.833    518.715
 76.770    663.000    687.629    -24.629    518.747    685.552    518.747    520.778    518.747
 76.870    678.000    669.092      8.908    518.778    667.105    518.778    520.728    518.778
 76.970    660.440    647.344     13.096    518.808    645.440    518.808    520.683    518.808
 77.070    564.000    624.906    -60.906    518.838    623.080    518.838    520.642    518.838
 77.170    587.421    603.757    -16.336    518.866    602.002    518.866    520.606    518.866
 77.270    546.861    585.211    -38.350    518.893    583.521    518.893    520.572    518.893
 77.370    549.000    569.917    -20.917    518.919    568.287    518.919    520.542    518.919
 77.470    521.000    557.996    -36.996    518.944    556.421    518.944    520.515    518.944
 77.570    572.406    549.183     23.223    518.968    547.659    518.968    520.490    518.968
 77.670    569.149    542.944     26.205    518.991    541.466    518.991    520.467    518.991
 77.770    504.000    538.686    -34.686    519.014    537.252    519.014    520.447    519.014
 77.870    537.252    535.859      1.393    519.035    534.465    519.035    520.427    519.035
 77.970    553.000    534.010     18.990    519.055    532.654    519.055    520.410    519.055
 78.070    533.000    532.799      0.201    519.074    531.478    519.074    520.394    519.074
 78.170    540.000    531.993      8.007    519.092    530.706    519.092    520.379    519.092
 78.270    526.000    531.445     -5.445    519.109    530.188    519.109    520.365    519.109
 78.370    548.879    531.064     17.815    519.126    529.836    519.126    520.352    519.126
 78.470    540.000    530.805      9.195    519.141    529.605    519.141    520.340    519.141
 78.570    489.000    530.648    -41.648    519.155    529.473    519.155    520.329    519.155
 78.670    510.000    530.588    -20.588    519.167    529.435    519.167    520.319    519.167
 78.770    520.000    530.634    -10.634    519.179    529.503    519.179    520.310    519.179
 78.870    504.354    530.806    -26.452    519.190    529.694    519.190    520.302    519.190
 78.970    506.000    531.129    -25.129    519.200    530.034    519.200    520.295    519.200
 79.070    519.000    531.636    -12.636    519.209    530.555    519.209    520.289    519.209
 79.170    571.477    532.360     39.117    519.216    531.288    519.216    520.286    519.216
 79.270    526.000    533.330     -7.330    519.223    532.265    519.223    520.286    519.223
 79.370    541.000    534.575      6.425    519.228    533.511    519.228    520.290    519.228
 79.470    560.195    536.119     24.077    519.233    535.049    519.233    520.298    519.233
 79.570    494.920    537.986    -43.067    519.236    536.905    519.236    520.313    519.236
 79.670    564.000    540.218     23.782    519.238    539.116    519.238    520.336    519.238
 79.770    513.000    542.884    -29.884    519.239    541.752    519.239    520.366    519.239
 79.870    510.000    546.106    -36.106    519.240    544.934    519.240    520.406    519.240
 79.970    572.000    550.084     21.916    519.238    548.863    519.238    520.454    519.238
 80.070    525.101    555.125    -30.025    519.236    553.847    519.236    520.510    519.236
 80.170    601.512    561.643     39.869    519.233    560.301    519.233    520.571    519.233
 80.270    575.000    570.111      4.889    519.229    568.703    519.229    520.635    519.229
 80.370    542.000    580.964    -38.964    519.223    579.493    519.223    520.695    519.223
 80.470    621.000    594.481     26.519    519.216    592.956    519.216    520.746    519.216
 80.570    652.508    610.678     41.830    519.209    609.115    519.209    520.779    519.209
 80.670    627.294    629.231     -1.936    519.200    627.654    519.200    520.789    519.200
 80.770    600.618    649.442    -48.824    519.190    647.879    519.190    520.771    519.190
 80.870    659.000    670.266    -11.266    519.178    668.745    519.178    520.724    519.178
 80.970    637.000    690.425    -53.425    519.166    688.969    519.166    520.654    519.166
 81.070    718.000    708.590      9.410    519.153    707.215    519.153    520.565    519.153
 81.170    734.388    723.557     10.831    519.138    722.271    519.138    520.467    519.138
 81.270    725.000    734.351     -9.351    519.122    733.157    519.122    520.366    519.122
 81.370    787.061    740.304     46.757    519.105    739.198    519.105    520.266    519.105
 81.470    779.000    741.113     37.887    519.087    740.088    519.087    520.171    519.087
 81.570    744.000    736.855      7.145    519.068    735.902    519.068    520.084    519.068
 81.670    771.000    727.953     43.047    519.047    727.061    519.047    520.005    519.047
 81.770    764.644    715.171     49.473    519.026    714.329    519.026    519.934    519.026
 81.870    682.834    699.594    -16.760    519.003    698.791    519.003    519.871    519.003
 81.970    647.000    682.474    -35.474    518.979    681.701    518.979    519.815    518.979
 82.070    677.000    664.967     12.033    518.954    664.216    518.954    519.765    518.954
 82.170    644.000    647.918     -3.918    518.928    647.184    518.928    519.718    518.928
 82.270    628.000    631.813     -3.813    518.900    631.090    518.900    519.675    518.900
 82.370    627.000    616.869     10.131    518.871    616.154    518.871    519.635    518.871
 82.470    545.000    603.191    -58.191    518.842    602.481    518.842    519.595    518.842
 82.570    620.000    590.886     29.114    518.811    590.178    518.811    519.556    518.811
 82.670    558.282    580.094    -21.812    518.778    579.386    518.778    519.517    518.778
 82.770    537.861    570.961    -33.100    518.745    570.252    518.745    519.479    518.745
 82.870    554.748    563.614     -8.866    518.710    562.903    518.710    519.439    518.710
 82.970    539.105    558.147    -19.041    518.674    557.433    518.674    519.400    518.674
 83.070    572.000    554.605     17.395    518.637    553.887    518.637    519.359    518.637
 83.170    545.000    552.971     -7.971    518.599    552.250    518.599    519.318    518.599
 83.270    580.000    553.148     26.852    518.560    552.422    518.560    519.276    518.560
 83.370    553.132    554.935     -1.803    518.519    554.204    518.519    519.233    518.519
 83.470    555.000    558.024     -3.024    518.477    557.288    518.477    519.190    518.477
 83.570    487.000    561.999    -74.999    518.434    561.258    518.434    519.145    518.434
 83.670    547.143    566.349    -19.206    518.390    565.604    518.390    519.100    518.390
 83.770    612.930    570.494     42.436    518.344    569.745    518.344    519.054    518.344
 83.870    540.000    573.831    -33.831    518.298    573.079    518.298    519.007    518.298
 83.970    536.000    575.815    -39.815    518.250    575.063    518.250    518.958    518.250
 84.070    563.139    576.068    -12.929    518.201    575.316    518.201    518.909    518.201
 84.170    578.000    574.472      3.528    518.150    573.722    518.150    518.860    518.150
 84.270    551.000    571.203    -20.203    518.099    570.456    518.099    518.809    518.099
 84.370    554.000    566.656    -12.656    518.046    565.913    518.046    518.757    518.046
 84.470    565.752    561.326      4.426    517.992    560.587    517.992    518.704    517.992
 84.570    552.000    555.705     -3.705    517.937    554.969    517.937    518.650    517.937
 84.670    574.000    550.217     23.783    517.880    549.484    517.880    518.595    517.880
 84.770    577.704    545.185     32.519    517.823    544.454    517.823    518.540    517.823
 84.870    573.000    540.817     32.183    517.764    540.087    517.764    518.483    517.764
 84.970    522.000    537.215    -15.215    517.704    536.485    517.704    518.425    517.704
 85.070    560.915    534.386     26.529    517.643    533.655    517.643    518.367    517.643
 85.170    523.358    532.275     -8.917    517.580    531.543    517.580    518.307    517.580
 85.270    537.000    530.788      6.212    517.516    530.053    517.516    518.247    517.516
 85.370    551.000    529.821     21.179    517.451    529.082    517.451    518.185    517.451
 85.470    500.442    529.279    -28.837    517.385    528.536    517.385    518.123    517.385
 85.570    513.001    529.092    -16.091    517.318    528.345    517.318    518.060    517.318
 85.670    533.000    529.225      3.775    517.249    528.473    517.249    517.995    517.249
 85.770    520.000    529.681     -9.681    517.179    528.924    517.179    517.930    517.179
 85.870    549.000    530.507     18.493    517.108    529.744    517.108    517.864    517.108
 85.970    571.995    531.793     40.202    517.035    531.023    517.035    517.797    517.035
 86.070    541.174    533.672      7.502    516.962    532.893    516.962    517.729    516.962
 86.170    529.000    536.312     -7.312    516.887    535.524    516.887    517.660    516.887
 86.270    502.972    539.907    -36.935    516.811    539.108    516.811    517.590    516.811
 86.370    495.000    544.654    -49.654    516.734    543.843    516.734    517.519    516.734
 86.470    568.000    550.723     17.277    516.655    549.898    516.655    517.448    516.655
 86.570    578.000    558.222     19.778    516.576    557.380    516.576    517.375    516.576
 86.670    561.672    567.150     -5.478    516.495    566.291    516.495    517.302    516.495
 86.770    613.000    577.361     35.639    516.413    576.482    516.413    517.228    516.413
 86.870    595.000    588.521      6.479    516.329    587.621    516.329    517.153    516.329
 86.970    644.053    600.127     43.926    516.245    599.207    516.245    517.077    516.245
 87.070    592.203    611.482    -19.279    516.159    610.541    516.159    517.001    516.159
 87.170    643.000    621.715     21.285    516.072    620.755    516.072    516.923    516.072
 87.270    671.000    629.889     41.111    515.984    628.913    515.984    516.845    515.984
 87.370    600.890    635.136    -34.246    515.894    634.148    515.894    516.767    515.894
 87.470    660.000    636.858     23.142    515.804    635.861    515.804    516.687    515.804
 87.570    640.419    634.903      5.516    515.712    633.902    515.712    516.607    515.712
 87.670    651.000    629.611     21.389    515.619    628.609    515.619    516.526    515.619
 87.770    640.368    621.709     18.659    515.525    620.706    515.525    516.444    515.525
 87.870    607.429    612.127     -4.698    515.429    611.124    515.429    516.362    515.429
 87.970    665.000    601.846     63.154    515.333    600.842    515.333    516.280    515.333
 88.070    589.000    591.786     -2.786    515.235    590.780    515.235    516.197    515.235
 88.170    601.000    582.742     18.258    515.136    581.732    515.136    516.114    515.136
 88.270    582.000    575.333      6.667    515.036    574.317    515.036    516.031    515.036
 88.370    582.912    569.981     12.931    514.934    568.956    514.934    515.947    514.934
 88.470    543.000    566.903    -23.903    514.832    565.869    514.832    515.863    514.832
 88.570    620.000    566.124     53.876    514.728    565.078    514.728    515.779    514.728
 88.670    599.000    567.484     31.516    514.623    566.425    514.623    515.695    514.623
 88.770    536.767    570.668    -33.901    514.517    569.594    514.517    515.610    514.517
 88.870    597.953    575.222     22.731    514.409    574.133    514.409    515.526    514.409
 88.970    605.000    580.586     24.414    514.301    579.479    514.301    515.442    514.301
 89.070    590.000    586.119      3.881    514.191    584.993    514.191    515.359    514.191
 89.170    595.163    591.139      4.023    514.080    589.992    514.080    515.275    514.080
 89.270    591.000    594.982     -3.982    513.968    593.811    513.968    515.193    513.968
 89.370    573.000    597.081    -24.081    513.855    595.883    513.855    515.111    513.855
 89.470    587.918    597.075     -9.157    513.741    595.847    513.741    515.030    513.741
 89.570    569.000    594.886    -25.886    513.626    593.622    513.626    514.950    513.626
 89.670    597.112    590.724      6.387    513.509    589.421    513.509    514.871    513.509
 89.770    629.726    585.016     44.710    513.391    583.667    513.391    514.794    513.391
 89.870    615.000    578.291     36.709    513.272    576.894    513.272    514.718    513.272
 89.970    541.133    571.087    -29.955    513.152    569.638    513.152    514.645    513.152
 90.070    519.000    563.887    -44.887    513.031    562.380    513.031    514.574    513.031
 90.170    567.365    557.079     10.285    512.909    555.512    512.909    514.506    512.909
 90.270    500.000    550.948    -50.948    512.785    549.316    512.785    514.441    512.785
 90.370    545.000    545.666     -0.666    512.661    543.965    512.661    514.381    512.661
 90.470    528.000    541.308    -13.308    512.535    539.532    512.535    514.325    512.535
 90.570    521.000    537.864    -16.864    512.408    536.008    512.408    514.274    512.408
 90.670    571.000    535.267     35.733    512.280    533.323    512.280    514.231    512.280
 90.770    499.000    533.414    -34.414    512.151    531.373    512.151    514.197    512.151
 90.870    521.918    532.165    -10.246    512.021    530.015    512.021    514.174    512.021
 90.970    517.492    531.480    -13.988    511.890    529.205    511.890    514.167    511.890
 91.070    513.000    531.272    -18.272    511.758    528.851    511.758    514.179    511.758
 91.170    563.523    531.480     32.043    511.625    528.886    511.625    514.218    511.625
 91.270    543.550    532.096     11.453    511.490    529.292    511.490    514.293    511.490
 91.370    505.000    533.158    -28.158    511.355    530.093    511.355    514.417    511.355
 91.470    506.092    534.745    -28.653    511.218    531.354    511.218    514.605    511.218
 91.570    512.000    536.986    -24.986    511.080    533.181    511.080    514.879    511.080
 91.670    535.257    540.051     -4.794    510.942    535.721    510.942    515.265    510.942
 91.770    556.895    544.150     12.746    510.802    539.151    510.802    515.791    510.802
 91.870    516.000    549.519    -33.519    510.661    543.677    510.661    516.491    510.661
 91.970    602.000    556.413     45.587    510.520    549.511    510.520    517.405    510.520
 92.070    528.000    565.075    -37.075    510.377    556.860    510.377    518.571    510.377
 92.170    613.045    575.712     37.333    510.233    565.895    510.233    520.024    510.233
 92.270    609.000    588.462     20.538    510.088    576.726    510.088    521.792    510.088
 92.370    606.000    603.378      2.622    509.942    589.388    509.942    523.894    509.942
 92.470    625.438    620.392      5.046    509.795    603.808    509.795    526.334    509.795
 92.570    618.114    639.280    -21.166    509.647    619.782    509.647    529.093    509.647
 92.670    671.000    659.665     11.335    509.499    636.975    509.499    532.129    509.499
 92.770    633.000    681.007    -48.007    509.349    654.919    509.349    535.372    509.349
 92.870    703.000    702.623      0.377    509.198    673.031    509.198    538.719    509.198
 92.970    774.000    723.731     50.269    509.046    690.670    509.046    542.033    509.046
 93.070    725.648    743.552    -17.904    508.893    707.226    508.893    545.142    508.893
 93.170    759.000    761.424     -2.424    508.740    722.240    508.740    547.845    508.740
 93.270    750.239    776.920    -26.682    508.585    735.500    508.585    549.926    508.585
 93.370    815.655    789.889     25.765    508.429    747.054    508.429    551.187    508.429
 93.470    774.000    800.433    -26.433    508.273    757.146    508.273    551.484    508.273
 93.570    860.000    808.843     51.157    508.115    766.113    508.115    550.772    508.115
 93.670    787.382    815.545    -28.163    507.957    774.319    507.957    549.111    507.957
 93.770    832.000    821.080     10.920    507.798    782.153    507.798    546.655    507.798
 93.870    831.000    826.097      4.903    507.638    790.060    507.638    543.608    507.638
 93.970    819.000    831.323    -12.323    507.476    798.549    507.476    540.185    507.476
 94.070    833.000    837.451     -4.451    507.315    808.118    507.315    536.585    507.315
 94.170    869.000    844.977     24.023    507.152    819.094    507.152    532.974    507.152
 94.270    839.856    854.023    -14.168    506.988    831.468    506.988    529.484    506.988
 94.370    874.000    864.235      9.765    506.824    844.788    506.824    526.214    506.824
 94.470    922.185    874.763     47.423    506.658    858.138    506.658    523.230    506.658
 94.570    829.666    884.333    -54.667    506.492    870.206    506.492    520.570    506.492
 94.670    935.391    891.395     43.996    506.325    879.428    506.325    518.249    506.325
 94.770    951.000    894.352     56.648    506.157    884.211    506.157    516.262    506.157
 94.870    912.000    891.846     20.154    505.988    883.219    505.988    514.588    505.988
 94.970    950.000    883.063     66.937    505.819    875.666    505.819    513.197    505.819
 95.070    939.000    867.986     71.014    505.649    861.571    505.649    512.054    505.649
 95.170    857.000    847.352      9.648    505.477    841.708    505.477    511.119    505.477
 95.270    857.647    822.526     35.121    505.306    817.478    505.306    510.357    505.306
 95.370    762.798    795.268    -32.469    505.133    790.675    505.133    509.734    505.133
 95.470    819.000    767.505     51.495    504.960    763.255    504.960    509.220    504.960
 95.570    756.000    741.169     14.831    504.786    737.175    504.786    508.790    504.786
 95.670    771.000    718.086     52.914    504.611    714.279    504.611    508.425    504.611
 95.770    694.000    699.907     -5.907    504.435    696.238    504.435    508.110    504.435
 95.870    697.992    688.081      9.911    504.259    684.508    504.259    507.832    504.259
 95.970    688.000    683.838      4.162    504.082    680.331    504.082    507.582    504.082
 96.070    680.805    688.196     -7.391    503.905    684.729    503.905    507.356    503.905
 96.170    685.577    701.959    -16.381    503.726    698.513    503.726    507.147    503.726
 96.270    759.000    725.707     33.293    503.547    722.266    503.547    506.953    503.547
 96.370    776.008    759.753     16.254    503.368    756.302    503.368    506.772    503.368
 96.470    783.332    804.075    -20.744    503.187    800.602    503.187    506.603    503.187
 96.570    845.248    858.228    -12.980    503.006    854.722    503.006    506.444    503.006
 96.670    943.000    921.233     21.767    502.825    917.682    502.825    506.295    502.825
 96.770    988.000    991.498     -3.498    502.643    987.895    502.643    506.156    502.643
 96.870   1062.644   1066.764     -4.121    502.460   1063.101    502.460    506.026    502.460
 96.970   1183.000   1144.091     38.909    502.277   1140.360    502.277    505.907    502.277
 97.070   1159.115   1219.902    -60.787    502.093   1216.097    502.093    505.797    502.093
 97.170   1398.000   1290.111    107.889    501.908   1286.224    501.908    505.697    501.908
 97.270   1352.089   1350.363      1.725    501.723   1346.390    501.723    505.609    501.723
 97.370   1345.823   1396.455    -50.632    501.538   1392.387    501.538    505.531    501.538
 97.470   1393.000   1424.908    -31.908    501.352   1420.737    501.352    505.466    501.352
 97.570   1446.857   1433.596     13.261    501.165   1429.310    501.165    505.415    501.165
 97.670   1479.000   1422.166     56.834    500.978   1417.751    500.978    505.378    500.978
 97.770   1437.000   1392.058     44.942    500.791   1387.497    500.791    505.357    500.791
 97.870   1366.480   1346.133     20.347    500.603   1341.404    500.603    505.355    500.603
 97.970   1322.000   1288.119     33.881    500.414   1283.196    500.414    505.375    500.414
 98.070   1256.000   1222.094     33.906    500.225   1216.947    500.225    505.420    500.225
 98.170   1117.217   1152.116    -34.899    500.036   1146.710    500.036    505.496    500.036
 98.270   1070.953   1081.982    -11.029    499.846   1076.273    499.846    505.611    499.846
 98.370   1029.000   1015.079     13.921    499.656   1009.015    499.656    505.775    499.656
 98.470    983.165    954.310     28.856    499.466    947.823    499.466    506.002    499.466
 98.570    927.087    902.064     25.024    499.275    895.071    499.275    506.310    499.275
 98.670    834.732    860.229    -25.496    499.083    852.621    499.083    506.726    499.083
 98.770    798.000    830.279    -32.279    498.892    821.915    498.892    507.280    498.892
 98.870    796.000    813.288    -17.288    498.700    803.986    498.700    508.017    498.700
 98.970    861.783    810.018     51.765    498.507    799.542    498.507    508.989    498.507
 99.070    781.000    820.991    -39.991    498.315    809.042    498.315    510.260    498.315
 99.170    900.185    846.520     53.664    498.122    832.723    498.122    511.907    498.122
 99.270    847.570    886.707    -39.137    497.929    870.595    497.929    514.021    497.929
 99.370    977.177    941.396     35.781    497.735    922.408    497.735    516.700    497.735
 99.470    999.000   1010.114    -11.114    497.542    987.578    497.542    520.051    497.542
 99.570   1142.967   1091.972     50.995    497.348   1065.110    497.348    524.182    497.348
 99.670   1178.000   1185.574     -7.574    497.154   1153.507    497.154    529.196    497.154
 99.770   1288.000   1288.930     -0.930    496.959   1250.689    496.959    535.183    496.959
 99.870   1401.000   1399.393      1.607    496.765   1353.946    496.765    542.206    496.765
 99.970   1526.326   1513.648     12.678    496.570   1459.932    496.570    550.294    496.570
100.070   1596.505   1627.781    -31.277    496.376   1564.752    496.376    559.431    496.376
100.170   1738.000   1737.466      0.534    496.181   1664.153    496.181    569.543    496.181
100.270   1799.361   1838.277    -38.916    495.986   1753.847    495.986    580.489    495.986
100.370   1846.869   1926.066    -79.197    495.791   1829.900    495.791    592.057    495.791
100.470   1970.000   1997.293    -27.293    495.595   1889.060    495.595    603.954    495.595
100.570   2038.000   2049.182    -11.182    495.400   1928.926    495.400    615.807    495.400
100.670   2221.000   2079.724    141.276    495.205   1947.941    495.205    627.160    495.205
100.770   2119.000   2087.654     31.346    495.009   1945.367    495.009    637.487    495.009
100.870   2086.000   2072.566     13.434    494.814   1921.369    494.814    646.216    494.814
100.970   2018.001   2035.176    -17.175    494.619   1877.232    494.619    652.776    494.619
101.070   1968.000   1977.578     -9.578    494.423   1815.543    494.423    656.675    494.423
101.170   1854.000   1903.270    -49.270    494.228   1740.127    494.228    657.585    494.228
101.270   1805.000   1816.841    -11.841    494.033   1655.667    494.033    655.415    494.033
101.370   1752.000   1723.426     28.574    493.838   1567.133    493.838    650.327    493.838
101.470   1568.703   1628.108    -59.405    493.643   1479.226    493.643    642.706    493.643
101.570   1493.920   1535.424    -41.505    493.448   1395.962    493.448    633.076    493.448
101.670   1430.666   1449.049    -18.383    493.253   1320.436    493.253    622.016    493.253
101.770   1353.000   1371.618    -18.618    493.058   1254.721    493.058    610.089    493.058
101.870   1278.000   1304.679    -26.679    492.863   1199.857    492.863    597.804    492.863
101.970   1211.981   1248.724    -36.743    492.669   1155.907    492.669    585.592    492.669
102.070   1166.000   1203.279    -37.279    492.475   1122.046    492.475    573.804    492.475
102.170   1115.000   1167.043    -52.043    492.281   1096.704    492.281    562.707    492.281
102.270   1146.000   1138.065      7.935    492.087   1077.740    492.087    552.494    492.087
102.370   1125.000   1113.967     11.033    491.894   1062.656    491.894    543.284    491.894
102.470   1124.000   1092.219     31.781    491.701   1048.864    491.701    535.134    491.701
102.570   1047.000   1070.441    -23.441    491.508   1033.981    491.508    528.046    491.508
102.670   1052.000   1046.707      5.293    491.316   1016.122    491.316    521.980    491.316
102.770   1013.000   1019.771     -6.771    491.123    994.113    491.123    516.863    491.123
102.870    989.000    989.147     -0.147    490.932    967.560    490.932    512.600    490.932
102.970    951.000    955.030     -4.030    490.740    936.762    490.740    509.087    490.740
103.070    946.000    918.112     27.888    490.549    902.523    490.549    506.216    490.549
103.170    847.000    879.381    -32.381    490.359    865.933    490.359    503.880    490.359
103.270    927.000    839.939     87.061    490.168    828.192    490.168    501.984    490.168
103.370    824.458    800.877     23.581    489.979    790.478    489.979    500.441    489.979
103.470    855.000    763.189     91.811    489.789    753.857    489.789    499.179    489.789
103.570    743.000    727.712     15.288    489.601    719.228    489.601    498.135    489.601
103.670    653.855    695.092    -41.238    489.413    687.289    489.413    497.260    489.413
103.770    654.000    665.775    -11.775    489.225    658.523    489.225    496.515    489.225
103.870    645.000    639.993      5.007    489.038    633.193    489.038    495.869    489.038
103.970    633.530    617.792     15.737    488.851    611.370    488.851    495.300    488.851
104.070    610.000    599.058     10.942    488.666    592.955    488.666    494.789    488.666
104.170    614.000    583.568     30.432    488.480    577.740    488.480    494.325    488.480
104.270    559.000    571.007    -12.007    488.296    565.418    488.296    493.898    488.296
104.370    567.986    561.015      6.972    488.112    555.636    488.112    493.500    488.112
104.470    529.000    553.218    -24.218    487.929    548.031    487.929    493.122    487.929
104.570    528.000    547.273    -19.273    487.746    542.253    487.746    492.770    487.746
104.670    563.000    542.855     20.145    487.565    537.985    487.565    492.437    487.565
104.770    573.073    539.691     33.382    487.384    534.955    487.384    492.120    487.384
104.870    545.230    537.558      7.673    487.204    532.943    487.204    491.818    487.204
104.970    567.119    536.286     30.833    487.024    531.779    487.024    491.529    487.024
105.070    511.605    535.758    -24.153    486.846    531.348    486.846    491.252    486.846
105.170    498.129    535.904    -37.775    486.668    531.582    486.668    490.986    486.668
105.270    540.000    536.698      3.302    486.491    532.454    486.491    490.729    486.491
105.370    501.023    538.144    -37.121    486.316    533.979    486.316    490.473    486.316
105.470    545.474    540.307      5.167    486.141    536.203    486.141    490.235    486.141
105.570    574.830    543.252     31.579    485.967    539.200    485.967    490.007    485.967
105.670    581.843    547.066     34.776    485.794    543.060    485.794    489.787    485.794
105.770    594.000    551.845     42.155    485.622    547.877    485.622    489.575    485.622
105.870    569.000    557.674     11.326    485.451    553.737    485.451    489.370    485.451
105.970    541.488    564.615    -23.127    485.282    560.703    485.282    489.172    485.282
106.070    535.701    572.692    -36.991    485.113    568.798    485.113    488.982    485.113
106.170    533.000    581.883    -48.883    484.945    578.003    484.945    488.798    484.945
106.270    590.657    592.107     -1.451    484.779    588.235    484.779    488.620    484.779
106.370    596.000    603.219     -7.219    484.613    599.349    484.613    488.449    484.613
106.470    671.000    615.008     55.992    484.449    611.137    484.449    488.284    484.449
106.570    601.000    627.204    -26.204    484.286    623.326    484.286    488.125    484.286
106.670    604.000    639.478    -35.478    484.125    635.589    484.125    487.972    484.125
106.770    656.530    651.461      5.069    483.964    647.556    483.964    487.825    483.964
106.870    584.000    662.753    -78.753    483.805    658.830    483.805    487.685    483.805
106.970    643.570    672.958    -29.387    483.648    669.011    483.648    487.550    483.648
107.070    661.000    681.710    -20.710    483.491    677.737    483.491    487.421    483.491
107.170    683.000    688.726     -5.726    483.336    684.723    483.336    487.298    483.336
107.270    680.851    693.847    -12.997    483.182    689.810    483.182    487.181    483.182
107.370    669.000    697.078    -28.078    483.030    693.002    483.030    487.071    483.030
107.470    666.000    698.588    -32.588    482.879    694.470    482.879    486.966    482.879
107.570    736.750    698.692     38.058    482.730    694.526    482.730    486.868    482.730
107.670    634.000    697.793    -63.793    482.582    693.576    482.582    486.776    482.582
107.770    658.000    696.328    -38.328    482.436    692.054    482.436    486.691    482.436
107.870    728.451    694.705     33.747    482.292    690.368    482.292    486.613    482.292
107.970    644.871    693.265    -48.394    482.149    688.861    482.149    486.542    482.149
108.070    679.000    692.254    -13.254    482.007    687.777    482.007    486.477    482.007
108.170    692.805    691.803      1.002    481.867    687.247    481.867    486.421    481.867
108.270    692.000    691.920      0.080    481.729    687.279    481.729    486.371    481.729
108.370    718.452    692.490     25.962    481.593    687.757    481.593    486.330    481.593
108.470    651.000    693.284    -42.284    481.458    688.453    481.458    486.297    481.458
108.570    666.177    693.978    -27.802    481.325    689.042    481.325    486.273    481.325
108.670    699.000    694.184      4.816    481.194    689.135    481.194    486.257    481.194
108.770    654.637    693.489    -38.852    481.065    688.320    481.065    486.251    481.065
108.870    682.000    691.518     -9.518    480.937    686.220    480.937    486.255    480.937
108.970    684.000    687.984     -3.984    480.812    682.549    480.812    486.268    480.812
109.070    677.000    682.736     -5.736    480.688    677.154    480.688    486.293    480.688
109.170    639.000    675.779    -36.779    480.567    670.040    480.567    486.329    480.567
109.270    704.000    667.261     36.739    480.447    661.355    480.447    486.377    480.447
109.370    650.000    657.440     -7.440    480.329    651.355    480.329    486.438    480.329
109.470    682.000    646.624     35.376    480.214    640.349    480.214    486.512    480.214
109.570    678.738    635.198     43.540    480.100    628.719    480.100    486.601    480.100
109.670    615.000    623.536     -8.536    479.989    616.840    479.989    486.704    479.989
109.770    612.895    611.954      0.941    479.879    605.027    479.879    486.824    479.879
109.870    598.000    600.746     -2.746    479.772    593.573    479.772    486.962    479.772
109.970    579.921    590.166    -10.245    479.667    582.728    479.667    487.119    479.667
110.070    563.000    580.413    -17.413    479.565    572.693    479.565    487.297    479.565
110.170    583.739    571.634     12.105    479.464    563.611    479.464    487.497    479.464
110.270    618.000    563.923     54.077    479.366    555.574    479.366    487.723    479.366
110.370    578.000    557.324     20.676    479.270    548.623    479.270    487.977    479.270
110.470    529.000    551.839    -22.839    479.177    542.756    479.177    488.264    479.177
110.570    555.199    547.432      7.767    479.086    537.933    479.086    488.587    479.086
110.670    591.000    544.043     46.957    478.997    534.087    478.997    488.953    478.997
110.770    569.000    541.592     27.408    478.911    531.131    478.911    489.371    478.911
110.870    511.575    539.991    -28.416    478.827    528.967    478.827    489.849    478.827
110.970    498.974    539.149    -40.175    478.746    527.492    478.746    490.400    478.746
111.070    574.000    538.980     35.020    478.667    526.603    478.667    491.041    478.667
111.170    527.549    539.409    -11.859    478.591    526.204    478.591    491.791    478.591
111.270    571.120    540.370     30.751    478.518    526.206    478.518    492.676    478.518
111.370    570.860    541.816     29.044    478.447    526.531    478.447    493.726    478.447
111.470    577.534    543.718     33.815    478.379    527.109    478.379    494.981    478.379
111.570    564.000    546.065     17.935    478.314    527.885    478.314    496.486    478.314
111.670    518.000    548.867    -30.867    478.251    528.812    478.251    498.297    478.251
111.770    562.000    552.151      9.849    478.191    529.854    478.191    500.480    478.191
111.870    582.350    555.971     26.379    478.134    530.987    478.134    503.110    478.134
111.970    593.000    560.397     32.603    478.080    532.196    478.080    506.272    478.080
112.070    571.615    565.523      6.091    478.029    533.478    478.029    510.065    478.029
112.170    564.000    571.461     -7.461    477.981    534.838    477.981    514.593    477.981
112.270    542.000    578.337    -36.337    477.936    536.294    477.936    519.969    477.936
112.370    582.445    586.293     -3.848    477.893    537.866    477.893    526.310    477.893
112.470    568.000    595.478    -27.478    477.854    539.588    477.854    533.733    477.854
112.570    622.246    606.045     16.201    477.818    541.498    477.818    542.353    477.818
112.670    609.143    618.149     -9.006    477.785    543.649    477.785    552.273    477.785
112.770    649.776    631.942     17.833    477.755    546.104    477.755    563.581    477.755
112.870    660.000    647.572     12.428    477.729    548.947    477.729    576.340    477.729
112.970    649.000    665.180    -16.180    477.705    552.285    477.705    590.585    477.705
113.070    665.000    684.902    -19.902    477.685    556.259    477.685    606.311    477.685
113.170    714.809    706.875      7.933    477.668    561.057    477.668    623.468    477.668
113.270    759.916    731.245     28.671    477.655    566.924    477.655    641.955    477.655
113.370    756.000    758.173     -2.173    477.645    574.181    477.645    661.614    477.645
113.470    794.000    787.860      6.140    477.638    583.246    477.638    682.226    477.638
113.570    820.000    820.558     -0.558    477.635    594.658    477.635    703.505    477.635
113.670    870.000    856.599     13.401    477.635    609.099    477.635    725.102    477.635
113.770    889.000    896.423     -7.423    477.639    627.427    477.639    746.595    477.639
113.870   1009.000    940.600     68.400    477.647    650.699    477.647    767.499    477.647
113.970   1011.441    989.869     21.572    477.658    680.199    477.658    787.270    477.658
114.070   1033.000   1045.164    -12.164    477.672    717.456    477.672    805.311    477.672
114.170   1146.805   1107.655     39.150    477.691    764.256    477.691    821.006    477.691
114.270   1159.000   1178.777    -19.777    477.713    822.642    477.713    833.746    477.713
114.370   1297.674   1260.264     37.409    477.739    894.897    477.739    842.983    477.739
114.470   1414.971   1354.169     60.803    477.769    983.500    477.769    848.289    477.769
114.570   1507.000   1462.846     44.154    477.802   1091.069    477.802    849.400    477.802
114.670   1623.000   1588.902     34.098    477.840   1220.265    477.840    846.263    477.840
114.770   1748.652   1735.081     13.571    477.881   1373.673    477.881    839.037    477.881
114.870   1931.000   1904.095     26.905    477.926   1553.654    477.926    828.071    477.926
114.970   2015.188   2098.406    -83.218    477.976   1762.176    477.976    813.862    477.976
115.070   2356.113   2319.983     36.130    478.029   2000.624    478.029    796.993    478.029
115.170   2605.047   2570.052     34.995    478.087   2269.606    478.087    778.084    478.087
115.270   2894.737   2848.863     45.874    478.148   2568.764    478.148    757.745    478.148
115.370   3078.880   3155.491    -76.611    478.214   2896.601    478.214    736.549    478.214
115.470   3449.000   3487.680    -38.680    478.284   3250.346    478.284    715.013    478.284
115.570   3832.656   3841.741     -9.085    478.359   3625.857    478.359    693.591    478.359
115.670   4079.000   4212.510   -133.510    478.437   4017.590    478.437    672.668    478.437
115.770   4497.000   4593.381    -96.381    478.520   4418.620    478.520    652.564    478.520
115.870   4776.000   4976.396   -200.396    478.608   4820.741    478.608    633.530    478.608
115.970   5365.428   5352.421     13.007    478.700   5214.630    478.700    615.755    478.700
116.070   5777.349   5711.386     65.963    478.796   5590.093    478.796    599.368    478.796
116.170   5913.000   6042.621   -129.621    478.897   5936.382    478.897    584.444    478.897
116.270   6372.000   6335.279     36.721    479.002   6242.628    479.002    571.010    479.002
116.370   6515.612   6578.886    -63.274    479.112   6498.369    479.112    559.051    479.112
116.470   6669.908   6763.989    -94.081    479.227   6694.201    479.227    548.516    479.227
116.570   6746.557   6882.884   -136.327    479.347   6822.495    479.347    539.331    479.347
116.670   6900.899   6930.337    -29.437    479.471   6878.109    479.471    531.398    479.471
116.770   6766.480   6904.150   -137.670    479.600   6858.951    479.600    524.607    479.600
116.870   6813.801   6805.315      8.486    479.733   6766.122    479.733    518.844    479.733
116.970   6693.000   6637.945     55.055    479.872   6603.851    479.872    513.989    479.872
117.070   6344.000   6408.802    -64.802    480.016   6379.009    480.016    509.927    480.016
117.170   6239.956   6126.625    113.332    480.164   6100.441    480.164    506.549    480.164
117.270   5793.206   5801.404     -8.198    480.318   5778.238    480.318    503.755    480.318
117.370   5326.000   5443.708   -117.708    480.476   5423.059    480.476    501.451    480.476
117.470   5164.418   5064.118    100.300    480.640   5045.565    480.640    499.559    480.640
117.570   4630.000   4672.777    -42.777    480.809   4655.970    480.809    498.006    480.809
117.670   4417.000   4279.041    137.959    480.983   4263.691    480.983    496.733    480.983
117.770   4078.000   3891.220    186.780    481.163   3877.091    481.163    495.690    481.163
117.870   3716.000   3516.399    199.601    481.347   3503.301    481.347    494.833    481.347
117.970   3297.000   3160.339    136.661    481.537   3148.114    481.537    494.128    481.537
118.070   3012.000   2827.437    184.563    481.733   2815.960    481.733    493.548    481.733
118.170   2601.000   2520.766     80.234    481.933   2509.937    481.933    493.069    481.933
118.270   2323.000   2242.162     80.838    482.140   2231.899    482.140    492.674    482.140
118.370   2046.000   1992.354     53.646    482.351   1982.593    482.351    492.350    482.351
118.470   1751.855   1771.121    -19.266    482.569   1761.808    482.569    492.083    482.569
118.570   1529.000   1577.465    -48.465    482.792   1568.558    482.792    491.868    482.792
118.670   1393.275   1409.790    -16.515    483.021   1401.254    483.021    491.695    483.021
118.770   1239.000   1266.074    -27.074    483.255   1257.880    483.255    491.561    483.255
118.870   1067.000   1144.032    -77.032    483.495   1136.155    483.495    491.460    483.495
118.970   1029.914   1041.258    -11.344    483.741   1033.675    483.741    491.391    483.741
119.070    945.000    955.342    -10.342    483.993    948.035    483.993    491.350    483.993
119.170    832.000    883.969    -51.969    484.251    876.921    484.251    491.335    484.251
119.270    826.000    824.982      1.018    484.515    818.177    484.515    491.345    484.515
119.370    748.000    776.427    -28.427    484.785    769.851    484.785    491.379    484.785
119.470    754.000    736.576     17.424    485.061    730.213    485.061    491.435    485.061
119.570    686.383    703.930    -17.547    485.343    697.766    485.343    491.514    485.343
119.670    594.000    677.214    -83.214    485.631    671.236    485.631    491.614    485.631
119.770    668.866    655.362     13.504    485.925    649.555    485.925    491.735    485.925
119.870    620.000    637.491    -17.491    486.226    631.842    486.226    491.878    486.226
119.970    640.919    622.885     18.035    486.533    617.378    486.533    492.042    486.533
120.070    547.000    610.963    -63.963    486.846    605.584    486.846    492.227    486.846
120.170    602.000    601.264      0.736    487.166    595.998    487.166    492.435    487.166
120.270    588.989    593.422     -4.433    487.493    588.252    487.493    492.665    487.493
120.370    537.000    587.149    -50.149    487.825    582.058    487.825    492.919    487.825
120.470    598.000    582.220     15.780    488.165    577.191    488.165    493.197    488.165
120.570    553.520    578.459    -24.940    488.511    573.474    488.511    493.500    488.511
120.670    583.000    575.731      7.269    488.864    570.769    488.864    493.829    488.864
120.770    543.332    573.929    -30.598    489.223    568.971    489.223    494.186    489.223
120.870    622.000    572.971     49.029    489.590    567.996    489.590    494.571    489.590
120.970    604.069    572.791     31.278    489.963    567.776    489.963    494.985    489.963
121.070    574.000    573.333      0.667    490.343    568.255    490.343    495.429    490.343
121.170    554.000    574.550    -20.550    490.730    569.385    490.730    495.903    490.730
121.270    531.810    576.396    -44.586    491.124    571.121    491.124    496.409    491.124
121.370    573.000    578.827     -5.827    491.525    573.417    491.525    496.947    491.525
121.470    556.824    581.794    -24.970    491.933    576.226    491.933    497.515    491.933
121.570    576.000    585.244     -9.244    492.349    579.494    492.349    498.114    492.349
121.670    573.000    589.118    -16.118    492.771    583.164    492.771    498.743    492.771
121.770    638.750    593.348     45.402    493.201    587.170    493.201    499.399    493.201
121.870    614.000    597.858     16.142    493.639    591.437    493.639    500.082    493.639
121.970    576.000    602.564    -26.564    494.083    595.885    494.083    500.787    494.083
122.070    625.000    607.372     17.628    494.535    600.423    494.535    501.511    494.535
122.170    612.981    612.184      0.797    494.995    604.957    494.995    502.252    494.995
122.270    603.267    616.894    -13.627    495.462    609.384    495.462    503.005    495.462
122.370    678.000    621.393     56.607    495.937    613.601    495.937    503.765    495.937
122.470    659.508    625.572     33.936    496.420    617.504    496.420    504.525    496.420
122.570    657.764    629.324     28.440    496.910    620.994    496.910    505.280    496.910
122.670    634.517    632.552      1.965    497.408    623.980    497.408    506.022    497.408
122.770    659.000    635.172     23.828    497.914    626.384    497.914    506.745    497.914
122.870    659.000    637.120     21.880    498.428    628.150    498.428    507.441    498.428
122.970    667.226    638.351     28.875    498.950    629.241    498.950    508.104    498.950
123.070    652.000    638.850     13.150    499.479    629.646    499.479    508.728    499.479
123.170    666.000    638.623     27.377    500.017    629.377    500.017    509.308    500.017
123.270    594.000    637.702    -43.702    500.563    628.467    500.563    509.842    500.563
123.370    645.000    636.135      8.865    501.118    626.968    501.118    510.327    501.118
123.470    603.412    633.987    -30.574    501.680    624.944    501.680    510.764    501.680
123.570    665.236    631.332     33.904    502.251    622.465    502.251    511.158    502.251
123.670    627.000    628.252     -1.252    502.830    619.609    502.830    511.511    502.830
123.770    655.000    624.830     30.170    503.418    616.453    503.418    511.830    503.418
123.870    579.688    621.149    -41.461    504.014    613.073    504.014    512.122    504.014
123.970    638.000    617.287     20.713    504.619    609.542    504.619    512.393    504.619
124.070    638.000    613.317     24.683    505.232    605.925    505.232    512.651    505.232
124.170    578.000    609.304    -31.304    505.854    602.280    505.854    512.901    505.854
124.270    622.956    605.304     17.652    506.485    598.658    506.485    513.152    506.485
124.370    601.000    601.362     -0.362    507.124    595.097    507.124    513.408    507.124
124.470    632.000    597.513     34.487    507.773    591.627    507.773    513.674    507.773
124.570    611.372    593.783     17.590    508.430    588.270    508.430    513.956    508.430
124.670    623.000    590.187     32.813    509.097    585.039    509.097    514.256    509.097
124.770    583.000    586.737     -3.737    509.772    581.939    509.772    514.579    509.772
124.870    566.000    583.434    -17.434    510.456    578.971    510.456    514.927    510.456
124.970    591.000    580.276     10.724    511.150    576.130    511.150    515.302    511.150
