neutron_powder_diffraction_0144
R_wp: 3.886
Temperature (K): 1074.000
Counts: 83774.00
Wavelength (Ã…): 2.52098
COMMENTS
Test file for demonstrating the .xyy file format in Reel1.0
END OF HEADER
   tth       Y_obs     Y_calc      Y_res    Background    Phase_1_Nuc    Phase_1_Mag    Phase_2_Nuc    Phase_2_Mag
  9.970    563.044    576.709    -13.665    575.886    576.657    575.886    575.937    575.886
 10.070    605.000    576.766     28.234    575.875    576.714    575.875    575.927    575.875
 10.170    586.000    576.828      9.172    575.860    576.776    575.860    575.912    575.860
 10.270    615.000    576.898     38.102    575.840    576.845    575.840    575.892    575.840
 10.370    601.000    576.977     24.023    575.816    576.925    575.816    575.868    575.816
 10.470    539.000    577.071    -38.071    575.787    577.018    575.787    575.840    575.787
 10.570    562.000    577.182    -15.182    575.754    577.128    575.754    575.807    575.754
 10.670    606.000    577.315     28.685    575.716    577.262    575.716    575.769    575.716
 10.770    631.000    577.480     53.520    575.674    577.426    575.674    575.727    575.674
 10.870    585.000    577.685      7.315    575.628    577.631    575.628    575.681    575.628
 10.970    555.698    577.947    -22.249    575.577    577.892    575.577    575.631    575.577
 11.070    565.945    578.285    -12.339    575.522    578.229    575.522    575.576    575.522
 11.170    626.000    578.729     47.271    575.463    578.673    575.463    575.517    575.463
 11.270    577.027    579.327     -2.300    575.400    579.271    575.400    575.454    575.400
 11.370    577.000    580.164     -3.164    575.332    580.107    575.332    575.387    575.332
 11.470    592.000    581.430     10.570    575.261    581.372    575.261    575.316    575.261
 11.570    566.612    583.623    -17.011    575.186    583.563    575.186    575.241    575.186
 11.670    678.000    587.977     90.023    575.106    587.914    575.106    575.162    575.106
 11.770    599.000    596.964      2.036    575.023    596.893    575.023    575.082    575.023
 11.870    576.103    614.004    -37.901    574.936    613.922    574.936    574.996    574.936
 11.970    618.154    641.155    -23.001    574.845    641.057    574.845    574.906    574.845
 12.070    710.000    674.491     35.509    574.750    674.373    574.750    574.811    574.750
 12.170    674.159    700.035    -25.876    574.651    699.903    574.651    574.713    574.651
 12.270    709.000    700.759      8.241    574.549    700.626    574.549    574.611    574.549
 12.370    647.250    675.952    -28.703    574.443    675.833    574.443    574.505    574.443
 12.470    605.000    642.331    -37.331    574.333    642.230    574.333    574.396    574.333
 12.570    571.000    614.451    -43.451    574.220    614.365    574.220    574.283    574.220
 12.670    605.000    596.698      8.302    574.103    596.622    574.103    574.166    574.103
 12.770    616.401    587.187     29.215    573.983    587.116    573.983    574.046    573.983
 12.870    600.000    582.473     17.527    573.859    582.404    573.859    573.923    573.859
 12.970    543.026    580.012    -36.986    573.732    579.945    573.732    573.796    573.732
 13.070    593.000    578.517     14.483    573.602    578.450    573.602    573.666    573.602
 13.170    618.000    577.466     40.534    573.468    577.399    573.468    573.532    573.468
 13.270    546.000    576.660    -30.660    573.331    576.594    573.331    573.395    573.331
 13.370    566.579    576.012     -9.433    573.190    575.946    573.190    573.255    573.190
 13.470    565.000    575.473    -10.473    573.046    575.407    573.046    573.112    573.046
 13.570    532.000    575.014    -43.014    572.899    574.947    572.899    572.965    572.899
 13.670    562.856    574.614    -11.758    572.749    574.547    572.749    572.815    572.749
 13.770    576.000    574.257      1.743    572.596    574.190    572.596    572.663    572.596
 13.870    616.278    573.931     42.347    572.440    573.863    572.440    572.507    572.440
 13.970    581.940    573.629      8.311    572.281    573.562    572.281    572.348    572.281
 14.070    563.000    573.347    -10.347    572.119    573.279    572.119    572.186    572.119
 14.170    609.652    573.080     36.572    571.953    573.012    571.953    572.021    571.953
 14.270    590.638    572.825     17.813    571.785    572.757    571.785    571.853    571.785
 14.370    550.330    572.579    -22.249    571.614    572.510    571.614    571.683    571.614
 14.470    592.000    572.340     19.660    571.440    572.271    571.440    571.509    571.440
 14.570    578.000    572.106      5.894    571.264    572.037    571.264    571.333    571.264
 14.670    545.316    571.877    -26.561    571.084    571.807    571.084    571.154    571.084
 14.770    525.515    571.651    -46.136    570.902    571.581    570.902    570.972    570.902
 14.870    551.682    571.427    -19.745    570.717    571.357    570.717    570.788    570.717
 14.970    574.669    571.205      3.464    570.530    571.134    570.530    570.600    570.530
 15.070    605.559    570.984     34.575    570.340    570.913    570.340    570.411    570.340
 15.170    558.000    570.764    -12.764    570.147    570.693    570.147    570.218    570.147
 15.270    568.000    570.545     -2.545    569.952    570.473    569.952    570.024    569.952
 15.370    550.000    570.325    -20.325    569.754    570.253    569.754    569.826    569.754
 15.470    603.235    570.105     33.130    569.554    570.033    569.554    569.626    569.554
 15.570    611.081    569.885     41.196    569.351    569.812    569.351    569.424    569.351
 15.670    615.497    569.664     45.833    569.146    569.591    569.146    569.219    569.146
 15.770    584.630    569.442     15.187    568.939    569.368    568.939    569.012    568.939
 15.870    557.000    569.220    -12.220    568.729    569.145    568.729    568.803    568.729
 15.970    584.000    568.996     15.004    568.517    568.921    568.517    568.591    568.517
 16.070    527.387    568.773    -41.386    568.302    568.698    568.302    568.378    568.302
 16.170    543.000    568.548    -25.548    568.086    568.472    568.086    568.161    568.086
 16.270    580.248    568.321     11.927    567.867    568.245    567.867    567.943    567.867
 16.370    548.000    568.093    -20.093    567.646    568.017    567.646    567.723    567.646
 16.470    581.397    567.864     13.533    567.423    567.787    567.423    567.500    567.423
 16.570    570.000    567.633      2.367    567.198    567.556    567.198    567.275    567.198
 16.670    573.647    567.401      6.247    566.971    567.323    566.971    567.049    566.971
 16.770    580.000    567.167     12.833    566.742    567.088    566.742    566.820    566.742
 16.870    552.000    566.931    -14.931    566.510    566.853    566.510    566.589    566.510
 16.970    564.000    566.695     -2.695    566.277    566.615    566.277    566.356    566.277
 17.070    573.820    566.456      7.364    566.042    566.377    566.042    566.122    566.042
 17.170    546.000    566.217    -20.217    565.805    566.136    565.805    565.885    565.805
 17.270    579.079    565.976     13.103    565.566    565.895    565.566    565.647    565.566
 17.370    532.000    565.735    -33.735    565.325    565.652    565.325    565.408    565.325
 17.470    538.000    565.492    -27.492    565.083    565.407    565.083    565.167    565.083
 17.570    553.209    565.247    -12.037    564.839    565.162    564.839    564.924    564.839
 17.670    586.072    565.001     21.071    564.593    564.915    564.593    564.678    564.593
 17.770    543.616    564.753    -21.137    564.345    564.667    564.345    564.431    564.345
 17.870    534.514    564.504    -29.989    564.096    564.417    564.096    564.182    564.096
 17.970    535.723    564.253    -28.530    563.844    564.166    563.844    563.932    563.844
 18.070    550.000    564.001    -14.001    563.592    563.914    563.592    563.680    563.592
 18.170    532.523    563.748    -31.226    563.338    563.660    563.338    563.426    563.338
 18.270    554.000    563.495     -9.495    563.082    563.406    563.082    563.171    563.082
 18.370    575.000    563.254     11.746    562.825    563.164    562.825    562.914    562.825
 18.470    543.000    563.008    -20.008    562.566    562.917    562.566    562.656    562.566
 18.570    552.000    562.751    -10.751    562.306    562.660    562.306    562.396    562.306
 18.670    522.000    562.492    -40.492    562.044    562.401    562.044    562.136    562.044
 18.770    523.203    562.232    -39.029    561.781    562.140    561.781    561.873    561.781
 18.870    524.170    561.972    -37.801    561.516    561.879    561.516    561.609    561.516
 18.970    558.000    561.710     -3.710    561.251    561.616    561.251    561.344    561.251
 19.070    572.000    561.447     10.553    560.984    561.352    560.984    561.078    560.984
 19.170    600.703    561.183     39.520    560.715    561.088    560.715    560.810    560.715
 19.270    564.000    560.918      3.082    560.446    560.822    560.446    560.541    560.446
 19.370    596.000    560.653     35.347    560.175    560.556    560.175    560.271    560.175
 19.470    574.000    560.386     13.614    559.903    560.289    559.903    560.000    559.903
 19.570    551.150    560.119     -8.970    559.629    560.021    559.629    559.728    559.629
 19.670    565.000    559.851      5.149    559.355    559.752    559.355    559.454    559.355
 19.770    546.000    559.583    -13.583    559.080    559.483    559.080    559.180    559.080
 19.870    599.280    559.314     39.966    558.803    559.213    558.803    558.904    558.803
 19.970    544.000    559.044    -15.044    558.526    558.942    558.526    558.627    558.526
 20.070    542.000    558.773    -16.773    558.247    558.671    558.247    558.349    558.247
 20.170    578.796    558.502     20.293    557.967    558.399    557.967    558.071    557.967
 20.270    595.000    558.231     36.769    557.687    558.127    557.687    557.791    557.687
 20.370    583.000    557.959     25.041    557.405    557.854    557.405    557.510    557.405
 20.470    592.000    557.688     34.312    557.123    557.581    557.123    557.229    557.123
 20.570    515.840    557.418    -41.578    556.839    557.311    556.839    556.947    556.839
 20.670    515.000    557.153    -42.153    556.555    557.045    556.555    556.663    556.555
 20.770    601.295    556.881     44.414    556.270    556.772    556.270    556.379    556.270
 20.870    569.000    556.617     12.383    555.984    556.506    555.984    556.095    555.984
 20.970    569.000    556.425     12.575    555.698    556.313    555.698    555.809    555.698
 21.070    577.452    556.174     21.278    555.410    556.061    555.410    555.523    555.410
 21.170    560.000    555.903      4.097    555.122    555.790    555.122    555.236    555.122
 21.270    513.032    555.632    -42.601    554.833    555.517    554.833    554.948    554.833
 21.370    573.000    555.362     17.638    554.543    555.245    554.543    554.660    554.543
 21.470    574.475    555.092     19.383    554.253    554.974    554.253    554.371    554.253
 21.570    515.904    554.823    -38.919    553.962    554.704    553.962    554.081    553.962
 21.670    562.000    554.555      7.445    553.671    554.435    553.671    553.791    553.671
 21.770    554.000    554.289     -0.289    553.379    554.168    553.379    553.500    553.379
 21.870    530.984    554.026    -23.042    553.086    553.903    553.086    553.209    553.086
 21.970    578.000    553.767     24.233    552.793    553.643    552.793    552.918    552.793
 22.070    566.000    553.552     12.448    552.499    553.426    552.499    552.625    552.499
 22.170    572.000    553.312     18.688    552.205    553.185    552.205    552.333    552.205
 22.270    552.000    553.059     -1.059    551.911    552.930    551.911    552.040    551.911
 22.370    533.000    552.808    -19.808    551.615    552.677    551.615    551.746    551.615
 22.470    574.000    552.563     21.437    551.320    552.431    551.320    551.453    551.320
 22.570    598.000    552.341     45.659    551.024    552.207    551.024    551.159    551.024
 22.670    577.648    552.132     25.516    550.728    551.995    550.728    550.864    550.728
 22.770    554.000    551.907      2.093    550.431    551.769    550.431    550.569    550.431
 22.870    514.000    551.688    -37.688    550.134    551.548    550.134    550.275    550.134
 22.970    554.000    551.481      2.519    549.837    551.339    549.837    549.979    549.837
 23.070    505.000    551.287    -46.287    549.539    551.143    549.539    549.684    549.539
 23.170    555.924    551.111      4.813    549.242    550.964    549.242    549.388    549.242
 23.270    528.810    550.955    -22.146    548.944    550.807    548.944    549.093    548.944
 23.370    528.808    550.826    -22.019    548.645    550.676    548.645    548.797    548.645
 23.470    528.000    550.732    -22.732    548.347    550.579    548.347    548.501    548.347
 23.570    581.000    550.683     30.317    548.048    550.527    548.048    548.205    548.048
 23.670    585.095    550.695     34.400    547.749    550.537    547.749    547.909    547.749
 23.770    558.753    550.792      7.961    547.451    550.631    547.451    547.613    547.451
 23.870    518.000    551.014    -33.014    547.152    550.850    547.152    547.317    547.152
 23.970    591.000    551.427     39.573    546.852    551.261    546.852    547.021    546.852
 24.070    513.104    552.215    -39.111    546.553    552.046    546.553    546.725    546.553
 24.170    564.000    553.805     10.195    546.254    553.634    546.254    546.430    546.254
 24.270    578.000    557.197     20.803    545.955    557.025    545.955    546.134    545.955
 24.370    551.000    564.142    -13.142    545.656    563.971    545.656    545.839    545.656
 24.470    552.781    576.653    -23.872    545.356    576.487    545.356    545.543    545.356
 24.570    627.000    595.261     31.739    545.057    595.104    545.057    545.248    545.057
 24.670    622.000    616.215      5.785    544.758    616.070    544.758    544.954    544.758
 24.770    622.000    629.739     -7.739    544.459    629.599    544.459    544.659    544.459
 24.870    646.000    626.425     19.575    544.160    626.278    544.160    544.365    544.160
 24.970    612.000    608.807      3.193    543.861    608.642    543.861    544.072    543.861
 25.070    626.000    587.487     38.513    543.563    587.301    543.563    543.779    543.563
 25.170    610.000    570.262     39.738    543.264    570.058    543.264    543.486    543.264
 25.270    550.851    559.215     -8.364    542.966    558.997    542.966    543.194    542.966
 25.370    554.000    553.104      0.896    542.667    552.875    542.667    542.903    542.667
 25.470    536.000    549.915    -13.915    542.369    549.677    542.369    542.612    542.369
 25.570    571.000    548.148     22.852    542.072    547.901    542.072    542.322    542.072
 25.670    545.000    547.045     -2.045    541.774    546.788    541.774    542.033    541.774
 25.770    568.000    546.244     21.756    541.477    545.979    541.477    541.744    541.477
 25.870    537.000    545.597     -8.597    541.180    545.322    541.180    541.457    541.180
 25.970    545.137    545.066      0.071    540.883    544.780    540.883    541.170    540.883
 26.070    500.046    544.624    -44.578    540.587    544.327    540.587    540.885    540.587
 26.170    581.437    544.254     37.183    540.291    543.945    540.291    540.601    540.291
 26.270    546.000    543.954      2.046    539.995    543.632    539.995    540.318    539.995
 26.370    566.768    543.717     23.051    539.700    543.381    539.700    540.037    539.700
 26.470    522.000    543.507    -21.507    539.405    543.156    539.405    539.758    539.405
 26.570    567.296    543.346     23.950    539.111    542.978    539.111    539.480    539.111
 26.670    501.000    543.238    -42.238    538.817    542.851    538.817    539.204    538.817
 26.770    563.000    543.186     19.814    538.523    542.779    538.523    538.931    538.523
 26.870    533.000    543.203    -10.203    538.230    542.773    538.230    538.660    538.230
 26.970    504.785    543.308    -38.523    537.937    542.853    537.937    538.392    537.937
 27.070    525.312    543.521    -18.208    537.645    543.038    537.645    538.127    537.645
 27.170    577.638    543.866     33.772    537.354    543.353    537.354    537.866    537.354
 27.270    536.000    544.383     -8.383    537.062    543.836    537.062    537.609    537.062
 27.370    614.000    545.152     68.848    536.772    544.566    536.772    537.357    536.772
 27.470    588.000    546.299     41.701    536.482    545.669    536.482    537.111    536.482
 27.570    504.332    548.164    -43.832    536.192    547.483    536.192    536.871    536.192
 27.670    597.000    552.026     44.974    535.903    551.287    535.903    536.638    535.903
 27.770    563.000    562.458      0.542    535.615    561.651    535.615    536.415    535.615
 27.870    636.000    591.598     44.402    535.327    590.705    535.327    536.203    535.327
 27.970    667.000    659.159      7.841    535.040    658.157    535.040    536.004    535.040
 28.070    822.000    774.650     47.350    534.754    773.511    534.754    535.822    534.754
 28.170    915.000    904.809     10.191    534.468    903.519    534.468    535.659    534.468
 28.270    984.193    968.809     15.384    534.183    967.373    534.183    535.522    534.183
 28.370    879.000    914.077    -35.077    533.899    912.497    533.899    535.419    533.899
 28.470    794.000    796.282     -2.282    533.615    794.514    533.615    535.360    533.615
 28.570    702.000    705.496     -3.496    533.332    703.453    533.332    535.366    533.332
 28.670    680.941    687.597     -6.656    533.050    685.170    533.050    535.464    533.050
 28.770    762.996    736.012     26.984    532.768    733.062    532.768    535.700    532.768
 28.870    781.000    807.891    -26.891    532.488    804.227    532.488    536.139    532.488
 28.970    854.000    841.753     12.247    532.208    837.097    532.208    536.867    532.208
 29.070    743.000    801.907    -58.907    531.929    795.867    531.929    537.983    531.929
 29.170    681.000    719.641    -38.641    531.650    711.721    531.650    539.584    531.650
 29.270    645.000    643.692      1.308    531.373    633.347    531.373    541.726    531.373
 29.370    618.703    596.263     22.440    531.096    583.007    531.096    544.355    531.096
 29.470    568.000    574.468     -6.468    530.820    558.116    530.820    547.172    530.820
 29.570    582.000    566.552     15.448    530.545    547.605    530.545    549.491    530.545
 29.670    590.000    563.190     26.810    530.271    543.090    530.271    550.369    530.271
 29.770    568.000    559.996      8.004    529.998    540.721    529.998    549.271    529.998
 29.870    580.000    556.072     23.928    529.726    539.198    529.726    546.598    529.726
 29.970    517.344    551.958    -34.614    529.454    538.138    529.454    543.273    529.454
 30.070    549.744    548.278      1.466    529.184    537.420    529.184    540.040    529.184
 30.170    583.061    545.374     37.687    528.914    537.029    528.914    537.257    528.914
 30.270    545.000    543.454      1.546    528.645    537.082    528.645    535.016    528.645
 30.370    582.000    542.930     39.070    528.378    538.032    528.378    533.273    528.378
 30.470    586.299    544.891     41.408    528.111    541.059    528.111    531.936    528.111
 30.570    537.658    551.402    -13.744    527.845    548.329    527.845    530.906    527.845
 30.670    530.000    564.701    -34.701    527.580    562.165    527.580    530.093    527.580
 30.770    586.460    584.569      1.891    527.317    582.420    527.317    529.428    527.317
 30.870    648.263    605.072     43.190    527.054    603.211    527.054    528.864    527.054
 30.970    608.000    614.413     -6.413    526.792    612.781    526.792    528.368    526.792
 31.070    629.000    604.852     24.148    526.531    603.417    526.531    527.921    526.531
 31.170    591.474    583.563      7.911    526.272    582.296    526.272    527.509    526.272
 31.270    562.000    562.340     -0.340    526.013    561.213    526.013    527.125    526.013
 31.370    520.835    547.374    -26.538    525.756    546.359    525.756    526.762    525.756
 31.470    577.284    539.026     38.257    525.499    538.105    525.499    526.416    525.499
 31.570    561.000    535.023     25.977    525.244    534.180    525.244    526.085    525.244
 31.670    577.828    533.152     44.677    524.989    532.375    524.989    525.765    524.989
 31.770    523.000    532.165     -9.165    524.736    531.444    524.736    525.455    524.736
 31.870    562.693    531.546     31.146    524.484    530.875    524.484    525.154    524.484
 31.970    544.000    531.122     12.878    524.233    530.494    524.233    524.860    524.233
 32.070    493.156    530.834    -37.678    523.984    530.244    523.984    524.572    523.984
 32.170    557.000    530.660     26.340    523.735    530.105    523.735    524.290    523.735
 32.270    548.000    530.595     17.405    523.487    530.069    523.487    524.012    523.487
 32.370    521.768    530.638     -8.870    523.241    530.138    523.241    523.740    523.241
 32.470    503.410    530.799    -27.389    522.996    530.323    522.996    523.471    522.996
 32.570    549.000    531.095     17.905    522.752    530.640    522.752    523.206    522.752
 32.670    566.000    531.551     34.449    522.509    531.115    522.509    522.944    522.509
 32.770    554.623    532.208     22.415    522.268    531.789    522.268    522.685    522.268
 32.870    578.000    533.120     44.880    522.027    532.717    522.027    522.430    522.027
 32.970    565.000    534.373     30.627    521.788    533.983    521.788    522.176    521.788
 33.070    533.000    536.097     -3.097    521.550    535.720    521.550    521.926    521.550
 33.170    532.000    538.534     -6.534    521.313    538.168    521.313    521.677    521.313
 33.270    517.281    542.250    -24.970    521.078    541.894    521.078    521.432    521.078
 33.370    553.000    548.776      4.224    520.844    548.429    520.844    521.188    520.844
 33.470    591.736    562.032     29.704    520.611    561.690    520.611    520.946    520.611
 33.570    607.000    590.257     16.743    520.379    589.919    520.379    520.706    520.379
 33.670    673.927    646.059     27.868    520.149    645.718    520.149    520.469    520.149
 33.770    757.205    740.310     16.894    519.920    739.961    519.920    520.233    519.920
 33.870    892.000    868.517     23.483    519.692    868.156    519.692    519.999    519.692
 33.970   1003.564    995.908      7.655    519.465    995.545    519.465    519.767    519.465
 34.070   1033.000   1058.010    -25.010    519.240   1057.660    519.240    519.537    519.240
 34.170    987.000   1011.419    -24.419    519.016   1011.100    519.016    519.308    519.016
 34.270    900.000    890.105      9.895    518.794    889.814    518.794    519.081    518.794
 34.370    805.847    758.859     46.988    518.573    758.583    518.573    518.856    518.573
 34.470    699.179    657.778     41.401    518.353    657.506    518.353    518.632    518.353
 34.570    608.711    595.556     13.155    518.134    595.285    518.134    518.410    518.134
 34.670    537.000    562.971    -25.971    517.917    562.700    517.917    518.190    517.917
 34.770    521.000    547.239    -26.239    517.701    546.969    517.701    517.972    517.701
 34.870    566.148    539.347     26.802    517.486    539.078    517.486    517.755    517.486
 34.970    556.730    534.762     21.968    517.273    534.496    517.273    517.539    517.273
 35.070    520.000    531.646    -11.646    517.061    531.381    517.061    517.325    517.061
 35.170    544.641    529.311     15.330    516.851    529.049    516.851    517.113    516.851
 35.270    557.000    527.475     29.525    516.642    527.214    516.642    516.903    516.642
 35.370    494.143    525.990    -31.847    516.434    525.731    516.434    516.694    516.434
 35.470    569.992    524.764     45.228    516.228    524.506    516.228    516.486    516.228
 35.570    514.413    523.735     -9.322    516.023    523.478    516.023    516.280    516.023
 35.670    532.000    522.857      9.143    515.820    522.601    515.820    516.076    515.820
 35.770    476.000    522.098    -46.098    515.618    521.843    515.618    515.873    515.618
 35.870    512.000    521.435     -9.435    515.417    521.181    515.417    515.672    515.417
 35.970    543.000    520.848     22.152    515.218    520.594    515.218    515.472    515.218
 36.070    529.000    520.325      8.675    515.020    520.071    515.020    515.274    515.020
 36.170    529.000    519.860      9.140    514.824    519.607    514.824    515.077    514.824
 36.270    479.645    519.443    -39.798    514.629    519.190    514.629    514.882    514.629
 36.370    542.000    519.069     22.931    514.436    518.816    514.436    514.689    514.436
 36.470    526.042    518.736      7.306    514.244    518.483    514.244    514.497    514.244
 36.570    542.000    518.441     23.559    514.053    518.188    514.053    514.306    514.053
 36.670    502.000    518.189    -16.189    513.864    517.936    513.864    514.117    513.864
 36.770    522.000    517.988      4.012    513.676    517.735    513.676    513.930    513.676
 36.870    519.894    517.864      2.030    513.490    517.610    513.490    513.744    513.490
 36.970    484.000    517.878    -33.878    513.306    517.623    513.306    513.560    513.306
 37.070    477.000    518.155    -41.155    513.122    517.900    513.122    513.378    513.122
 37.170    549.000    518.903     30.097    512.941    518.648    512.941    513.197    512.941
 37.270    504.000    520.377    -16.377    512.760    520.121    512.760    513.017    512.760
 37.370    495.000    522.744    -27.744    512.582    522.488    512.582    512.839    512.582
 37.470    504.000    525.862    -21.862    512.404    525.605    512.404    512.663    512.404
 37.570    523.821    529.040     -5.219    512.228    528.783    512.228    512.488    512.228
 37.670    502.000    531.018    -29.018    512.054    530.762    512.054    512.315    512.054
 37.770    535.000    530.758      4.242    511.881    530.502    511.881    512.143    511.881
 37.870    503.000    528.511    -25.511    511.710    528.256    511.710    511.973    511.710
 37.970    514.737    525.394    -10.656    511.540    525.139    511.540    511.805    511.540
 38.070    510.000    522.295    -12.295    511.372    522.039    511.372    511.638    511.372
 38.170    544.000    519.622     24.378    511.205    519.363    511.205    511.473    511.205
 38.270    527.000    517.543      9.457    511.040    517.281    511.040    511.309    511.040
 38.370    479.000    516.065    -37.065    510.876    515.798    510.876    511.147    510.876
 38.470    503.000    515.071    -12.071    510.714    514.801    510.714    510.987    510.714
 38.570    506.000    514.415     -8.415    510.553    514.142    510.553    510.828    510.553
 38.670    496.000    513.968    -17.968    510.394    513.693    510.394    510.670    510.394
 38.770    552.378    513.641     38.737    510.236    513.363    510.236    510.515    510.236
 38.870    505.000    513.378     -8.378    510.080    513.098    510.080    510.361    510.080
 38.970    505.617    513.153     -7.536    509.925    512.870    509.925    510.208    509.925
 39.070    516.000    512.951      3.049    509.772    512.666    509.772    510.057    509.772
 39.170    563.000    512.766     50.234    509.621    512.479    509.621    509.908    509.621
 39.270    525.000    512.594     12.406    509.471    512.305    509.471    509.760    509.471
 39.370    532.000    512.435     19.565    509.322    512.143    509.322    509.614    509.322
 39.470    512.000    512.286     -0.286    509.175    511.991    509.175    509.470    509.175
 39.570    568.000    512.146     55.854    509.030    511.848    509.030    509.327    509.030
 39.670    501.207    512.015    -10.807    508.886    511.715    508.886    509.186    508.886
 39.770    539.138    511.892     27.246    508.744    511.589    508.744    509.047    508.744
 39.870    485.000    511.778    -26.778    508.603    511.472    508.603    508.909    508.603
 39.970    485.000    511.672    -26.672    508.464    511.363    508.464    508.773    508.464
 40.070    474.206    511.575    -37.369    508.326    511.263    508.326    508.638    508.326
 40.170    523.000    511.487     11.513    508.190    511.172    508.190    508.505    508.190
 40.270    531.000    511.408     19.592    508.055    511.090    508.055    508.374    508.055
 40.370    510.000    511.341     -1.341    507.922    511.019    507.922    508.245    507.922
 40.470    510.000    511.284     -1.284    507.791    510.959    507.791    508.117    507.791
 40.570    488.000    511.241    -23.241    507.661    510.912    507.661    507.990    507.661
 40.670    497.000    511.213    -14.213    507.532    510.880    507.532    507.866    507.532
 40.770    548.903    511.201     37.702    507.405    510.864    507.405    507.743    507.405
 40.870    494.000    511.210    -17.210    507.280    510.869    507.280    507.622    507.280
 40.970    497.000    511.242    -14.242    507.156    510.897    507.156    507.502    507.156
 41.070    493.000    511.303    -18.303    507.034    510.954    507.034    507.384    507.034
 41.170    509.000    511.399     -2.399    506.913    511.046    506.913    507.268    506.913
 41.270    492.000    511.539    -19.539    506.794    511.181    506.794    507.154    506.794
 41.370    477.336    511.735    -34.400    506.677    511.372    506.677    507.041    506.677
 41.470    549.921    512.004     37.917    506.561    511.636    506.561    506.930    506.561
 41.570    539.082    512.373     26.710    506.446    512.000    506.446    506.820    506.446
 41.670    491.000    512.893    -21.893    506.333    512.515    506.333    506.713    506.333
 41.770    503.000    513.677    -10.677    506.222    513.294    506.222    506.607    506.222
 41.870    482.000    514.990    -32.990    506.112    514.603    506.112    506.503    506.112
 41.970    558.859    517.410     41.449    506.004    517.018    506.004    506.400    506.004
 42.070    540.806    522.027     18.779    505.897    521.630    505.897    506.300    505.897
 42.170    509.000    530.481    -21.481    505.792    530.083    505.792    506.201    505.792
 42.270    498.000    544.535    -46.535    505.689    544.136    505.689    506.104    505.689
 42.370    541.000    564.949    -23.949    505.586    564.554    505.586    506.008    505.586
 42.470    586.714    589.922     -3.207    505.486    589.532    505.486    505.915    505.486
 42.570    611.000    613.730     -2.730    505.387    613.346    505.387    505.823    505.387
 42.670    625.734    627.258     -1.524    505.289    626.877    505.289    505.733    505.289
 42.770    587.000    623.607    -36.607    505.194    623.219    505.194    505.645    505.194
 42.870    627.000    604.870     22.130    505.099    604.466    505.099    505.559    505.099
 42.970    559.585    579.680    -20.095    505.006    579.255    505.006    505.474    505.006
 43.070    570.878    556.012     14.866    504.915    555.565    504.915    505.392    504.915
 43.170    514.000    537.953    -23.953    504.825    537.486    504.825    505.311    504.825
 43.270    506.000    526.133    -20.133    504.737    525.649    504.737    505.232    504.737
 43.370    515.000    519.250     -4.250    504.650    518.751    504.650    505.155    504.650
 43.470    489.000    515.516    -26.516    504.565    515.005    504.565    505.081    504.565
 43.570    518.578    513.496      5.082    504.482    512.973    504.482    505.008    504.482
 43.670    522.000    512.321      9.679    504.399    511.786    504.399    504.937    504.399
 43.770    484.000    511.554    -27.554    504.319    511.006    504.319    504.868    504.319
 43.870    481.000    511.000    -30.000    504.240    510.440    504.240    504.801    504.240
 43.970    519.000    510.577      8.423    504.162    510.004    504.162    504.736    504.162
 44.070    536.000    510.244     25.756    504.086    509.657    504.086    504.674    504.086
 44.170    551.597    509.979     41.618    504.012    509.378    504.012    504.613    504.012
 44.270    517.000    509.767      7.233    503.939    509.152    503.939    504.555    503.939
 44.370    504.000    509.599     -5.599    503.867    508.967    503.867    504.499    503.867
 44.470    473.000    509.466    -36.466    503.797    508.818    503.797    504.445    503.797
 44.570    511.000    509.363      1.637    503.729    508.698    503.729    504.394    503.729
 44.670    498.000    509.286    -11.286    503.662    508.603    503.662    504.345    503.662
 44.770    482.198    509.233    -27.035    503.596    508.530    503.596    504.299    503.596
 44.870    569.000    509.200     59.800    503.532    508.477    503.532    504.255    503.532
 44.970    496.389    509.186    -12.797    503.470    508.441    503.470    504.214    503.470
 45.070    515.000    509.190      5.810    503.409    508.423    503.409    504.176    503.409
 45.170    543.000    509.212     33.788    503.349    508.421    503.349    504.140    503.349
 45.270    541.000    509.250     31.750    503.291    508.434    503.291    504.108    503.291
 45.370    516.000    509.306      6.694    503.234    508.463    503.234    504.078    503.234
 45.470    514.000    509.380      4.620    503.179    508.507    503.179    504.052    503.179
 45.570    477.404    509.472    -32.068    503.126    508.568    503.126    504.029    503.126
 45.670    491.704    509.582    -17.878    503.073    508.645    503.073    504.010    503.073
 45.770    492.000    509.714    -17.714    503.023    508.741    503.023    503.995    503.023
 45.870    547.000    509.868     37.132    502.973    508.857    502.973    503.984    502.973
 45.970    502.000    510.046     -8.046    502.926    508.994    502.926    503.977    502.926
 46.070    527.000    510.252     16.748    502.879    509.156    502.879    503.975    502.879
 46.170    490.558    510.489    -19.932    502.834    509.346    502.834    503.978    502.834
 46.270    524.000    510.763     13.237    502.791    509.567    502.791    503.986    502.791
 46.370    536.000    511.078     24.922    502.749    509.827    502.749    504.000    502.749
 46.470    511.332    511.444     -0.113    502.708    510.131    502.708    504.020    502.708
 46.570    512.000    511.872      0.128    502.669    510.492    502.669    504.048    502.669
 46.670    518.000    512.378      5.622    502.632    510.925    502.632    504.083    502.632
 46.770    497.097    512.995    -15.898    502.595    511.461    502.595    504.127    502.595
 46.870    539.000    513.785     25.215    502.561    512.162    502.561    504.181    502.561
 46.970    505.000    514.887     -9.887    502.527    513.165    502.527    504.246    502.527
 47.070    520.000    516.582      3.418    502.495    514.750    502.495    504.323    502.495
 47.170    503.000    519.374    -16.374    502.464    517.420    502.464    504.413    502.464
 47.270    502.140    524.061    -21.921    502.435    521.967    502.435    504.520    502.435
 47.370    518.000    531.549    -13.549    502.407    529.296    502.407    504.645    502.407
 47.470    515.000    542.500    -27.500    502.381    540.067    502.381    504.792    502.381
 47.570    572.000    556.707     15.293    502.356    554.067    502.356    504.964    502.356
 47.670    551.000    572.451    -21.451    502.332    569.573    502.332    505.166    502.332
 47.770    593.000    586.126      6.874    502.310    582.980    502.310    505.404    502.310
 47.870    582.000    592.983    -10.983    502.289    589.532    502.289    505.685    502.289
 47.970    600.321    590.232     10.090    502.270    586.429    502.270    506.021    502.270
 48.070    580.000    579.775      0.225    502.251    575.556    502.251    506.428    502.251
 48.170    563.000    566.247     -3.247    502.235    561.521    502.235    506.930    502.235
 48.270    556.000    553.698      2.302    502.219    548.334    502.219    507.562    502.219
 48.370    531.000    544.387    -13.387    502.205    538.195    502.205    508.384    502.205
 48.470    564.429    538.969     25.460    502.192    531.673    502.192    509.479    502.192
 48.570    570.000    537.115     32.885    502.181    528.317    502.181    510.974    502.181
 48.670    565.900    538.162     27.738    502.171    527.294    502.171    513.035    502.171
 48.770    540.287    541.567     -1.280    502.162    527.853    502.162    515.872    502.162
 48.870    529.201    547.084    -17.883    502.155    529.524    502.155    519.712    502.155
 48.970    540.885    554.749    -13.864    502.148    532.132    502.148    524.762    502.148
 49.070    545.000    564.812    -19.812    502.144    535.808    502.144    531.143    502.144
 49.170    572.000    577.826     -5.826    502.140    541.166    502.140    538.795    502.140
 49.270    562.703    595.169    -32.466    502.138    549.969    502.138    547.331    502.138
 49.370    585.000    620.441    -35.441    502.137    566.710    502.137    555.856    502.137
 49.470    673.000    662.163     10.837    502.137    601.429    502.137    562.848    502.137
 49.570    783.000    737.295     45.705    502.139    672.910    502.139    566.481    502.139
 49.670    818.330    872.579    -54.249    502.142    809.066    502.142    565.579    502.142
 49.770   1088.741   1097.663     -8.922    502.146   1039.219    502.146    560.471    502.146
 49.870   1486.000   1426.059     59.941    502.151   1375.334    502.151    552.718    502.151
 49.970   1866.000   1829.816     36.184    502.158   1787.716    502.158    544.088    502.158
 50.070   2252.000   2224.535     27.465    502.166   2190.713    502.166    535.856    502.166
 50.170   2478.828   2484.397     -5.569    502.175   2457.834    502.175    528.700    502.175
 50.270   2445.357   2502.471    -57.114    502.186   2481.876    502.186    522.863    502.186
 50.370   2267.816   2268.448     -0.631    502.197   2252.494    502.197    518.324    502.197
 50.470   1761.000   1878.544   -117.544    502.210   1866.038    502.210    514.920    502.210
 50.570   1359.000   1462.564   -103.564    502.224   1452.542    502.224    512.432    502.224
 50.670   1050.000   1115.512    -65.512    502.240   1107.258    502.240    510.635    502.240
 50.770    837.000    875.660    -38.660    502.256    868.677    502.256    509.336    502.256
 50.870    715.000    735.206    -20.206    502.274    729.161    502.274    508.383    502.274
 50.970    655.119    664.049     -8.930    502.293    658.719    502.293    507.669    502.293
 51.070    632.000    630.537      1.463    502.313    625.768    502.313    507.119    502.313
 51.170    611.000    612.144     -1.144    502.334    607.825    502.334    506.685    502.334
 51.270    596.000    597.543     -1.543    502.356    593.592    502.356    506.336    502.356
 51.370    538.000    583.550    -45.550    502.380    579.903    502.380    506.050    502.380
 51.470    591.000    570.591     20.409    502.405    567.198    502.405    505.815    502.405
 51.570    548.000    559.694    -11.694    502.431    556.515    502.431    505.622    502.431
 51.670    582.083    551.426     30.656    502.458    548.431    502.458    505.462    502.458
 51.770    564.000    545.778     18.222    502.486    542.940    502.486    505.330    502.486
 51.870    515.115    542.357    -27.242    502.515    539.654    502.515    505.223    502.515
 51.970    532.000    540.646     -8.646    502.546    538.059    502.546    505.136    502.546
 52.070    579.000    540.211     38.789    502.577    537.723    502.577    505.068    502.577
 52.170    568.000    540.801     27.199    502.610    538.398    502.610    505.015    502.610
 52.270    549.960    542.396      7.563    502.644    540.065    502.644    504.976    502.644
 52.370    532.651    545.269    -12.618    502.678    542.999    502.678    504.950    502.678
 52.470    583.000    550.161     32.839    502.714    547.942    502.714    504.935    502.714
 52.570    566.539    558.620      7.919    502.751    556.442    502.751    504.930    502.751
 52.670    606.000    573.448     32.552    502.789    571.303    502.789    504.934    502.789
 52.770    588.768    599.034    -10.266    502.829    596.914    502.829    504.947    502.829
 52.870    670.000    641.101     28.899    502.869    638.998    502.869    504.968    502.869
 52.970    669.000    705.339    -36.339    502.910    703.249    502.910    504.996    502.910
 53.070    844.555    794.731     49.824    502.952    792.646    502.952    505.032    502.952
 53.170    953.000    906.052     46.948    502.996    903.970    502.996    505.074    502.996
 53.270    972.598   1026.618    -54.021    503.040   1024.536    503.040    505.122    503.040
 53.370   1214.000   1132.718     81.282    503.085   1130.634    503.085    505.177    503.085
 53.470   1154.000   1193.748    -39.748    503.132   1191.661    503.132    505.238    503.132
 53.570   1133.000   1187.396    -54.396    503.179   1185.300    503.179    505.305    503.179
 53.670   1080.000   1116.460    -36.460    503.227   1114.346    503.227    505.378    503.227
 53.770    970.000   1006.286    -36.286    503.277   1004.144    503.277    505.457    503.277
 53.870    831.828    886.780    -54.951    503.327    884.598    503.327    505.542    503.327
 53.970    755.000    779.616    -24.616    503.378    777.387    503.378    505.633    503.378
 54.070    736.303    695.549     40.753    503.430    693.268    503.430    505.730    503.430
 54.170    599.000    636.410    -37.410    503.484    634.073    503.484    505.834    503.484
 54.270    611.188    598.490     12.697    503.538    596.093    503.538    505.944    503.538
 54.370    598.000    575.953     22.047    503.593    573.490    503.593    506.061    503.593
 54.470    603.000    563.272     39.728    503.649    560.739    503.649    506.185    503.649
 54.570    555.908    556.361     -0.453    503.706    553.752    503.706    506.317    503.706
 54.670    567.000    552.673     14.327    503.764    549.981    503.764    506.457    503.764
 54.770    538.437    550.823    -12.386    503.822    548.041    503.822    506.606    503.822
 54.870    543.000    550.131     -7.131    503.882    547.251    503.882    506.764    503.882
 54.970    590.000    550.295     39.705    503.943    547.308    503.943    506.931    503.943
 55.070    564.000    551.196     12.804    504.004    548.092    504.004    507.109    504.004
 55.170    554.221    552.808      1.414    504.066    549.577    504.066    507.298    504.066
 55.270    592.915    555.164     37.751    504.129    551.794    504.129    507.500    504.129
 55.370    562.000    558.356      3.644    504.193    554.835    504.193    507.715    504.193
 55.470    525.051    562.558    -37.507    504.258    558.872    504.258    507.945    504.258
 55.570    592.000    568.119     23.881    504.324    564.252    504.324    508.192    504.324
 55.670    615.532    575.766     39.766    504.390    571.700    504.390    508.456    504.390
 55.770    557.000    587.064    -30.064    504.458    582.781    504.458    508.741    504.458
 55.870    624.226    605.257     18.969    504.526    600.733    504.526    509.048    504.526
 55.970    621.000    636.535    -15.535    504.595    631.744    504.595    509.380    504.595
 56.070    698.000    691.407      6.593    504.664    686.319    504.664    509.740    504.664
 56.170    827.942    785.215     42.727    504.735    779.796    504.735    510.132    504.735
 56.270    923.000    936.243    -13.243    504.806    930.454    504.806    510.560    504.806
 56.370   1200.000   1160.059     39.941    504.878   1153.859    504.878    511.030    504.878
 56.470   1432.000   1460.282    -28.282    504.951   1453.629    504.951    511.547    504.951
 56.570   1856.248   1818.402     37.846    505.025   1811.257    505.025    512.118    505.025
 56.670   2234.000   2186.663     47.337    505.099   2178.985    505.099    512.753    505.099
 56.770   2366.000   2488.770   -122.770    505.174   2480.514    505.174    513.462    505.174
 56.870   2729.434   2638.469     90.965    505.250   2629.572    505.250    514.258    505.250
 56.970   2611.000   2584.315     26.685    505.326   2574.675    505.326    515.158    505.326
 57.070   2422.094   2347.257     74.837    505.403   2336.718    505.403    516.186    505.403
 57.170   1987.042   2003.353    -16.312    505.481   1991.716    505.481    517.372    505.481
 57.270   1616.000   1636.698    -20.698    505.560   1623.725    505.560    518.760    505.560
 57.370   1349.000   1309.207     39.793    505.639   1294.609    505.639    520.419    505.639
 57.470    993.000   1052.827    -59.827    505.719   1036.228    505.719    522.450    505.719
 57.570    838.751    873.573    -34.822    505.799    854.455    505.799    525.005    505.799
 57.670    772.961    760.880     12.081    505.881    738.503    505.881    528.311    505.881
 57.770    741.000    697.863     43.137    505.962    671.169    505.962    532.686    505.962
 57.870    678.000    669.008      8.992    506.045    636.513    506.045    538.553    506.045
 57.970    661.000    663.943     -2.943    506.128    623.633    506.128    546.439    506.128
 58.070    689.000    677.937     11.063    506.212    627.201    506.212    556.941    506.212
 58.170    725.000    710.498     14.502    506.296    646.125    506.296    570.651    506.296
 58.270    734.881    763.166    -28.286    506.381    681.462    506.381    588.057    506.381
 58.370    846.000    837.176      8.824    506.466    734.224    506.466    609.381    506.466
 58.470    897.747    931.363    -33.616    506.552    803.472    506.552    634.397    506.552
 58.570   1027.687   1040.594    -12.908    506.639    885.012    506.639    662.174    506.639
 58.670   1143.473   1155.211    -11.738    506.726    971.164    506.726    690.729    506.726
 58.770   1250.288   1262.371    -12.084    506.814   1052.447    506.814    716.706    506.814
 58.870   1338.000   1349.094    -11.094    506.902   1120.459    506.902    735.522    506.902
 58.970   1477.397   1404.224     73.173    506.991   1168.490    506.991    742.729    506.991
 59.070   1395.812   1419.542    -23.730    507.080   1190.291    507.080    736.354    507.080
 59.170   1484.000   1393.144     90.856    507.170   1182.143    507.170    718.209    507.170
 59.270   1367.000   1333.344     33.656    507.261   1147.970    507.261    692.674    507.261
 59.370   1313.665   1256.900     56.765    507.351   1099.921    507.351    664.356    507.351
 59.470   1192.905   1182.464     10.440    507.443   1053.226    507.443    636.681    507.443
 59.570   1155.000   1126.539     28.461    507.535   1022.346    507.535    611.692    507.535
 59.670   1183.000   1103.323     79.677    507.627   1020.504    507.627    590.366    507.627
 59.770   1122.633   1123.422     -0.790    507.719   1058.050    507.719    572.959    507.719
 59.870   1202.317   1189.329     12.987    507.813   1137.689    507.813    559.265    507.813
 59.970   1296.030   1291.161      4.869    507.906   1250.017    507.906    548.811    507.906
 60.070   1416.352   1405.596     10.756    508.000   1372.316    508.000    541.004    508.000
 60.170   1620.000   1498.752    121.248    508.095   1471.312    508.095    535.247    508.095
 60.270   1545.000   1535.264      9.736    508.189   1512.177    508.189    531.012    508.189
 60.370   1618.000   1494.788    123.212    508.285   1474.988    508.285    527.871    508.285
 60.470   1409.000   1384.171     24.829    508.380   1366.897    508.380    525.502    508.380
 60.570   1241.000   1231.067      9.933    508.476   1215.768    508.476    523.681    508.476
 60.670   1078.000   1067.682     10.318    508.573   1053.950    508.573    522.254    508.573
 60.770    962.000    919.452     42.548    508.669    906.974    508.669    521.125    508.669
 60.870    784.000    801.013    -17.013    508.766    789.541    508.766    520.230    508.766
 60.970    712.188    716.802     -4.615    508.864    706.130    508.864    519.532    508.864
 61.070    662.000    664.341     -2.341    508.962    654.292    508.962    519.004    508.962
 61.170    635.000    638.484     -3.484    509.060    628.904    509.060    518.629    509.060
 61.270    667.000    635.047     31.953    509.158    625.796    509.158    518.389    509.158
 61.370    673.000    652.822     20.178    509.257    643.779    509.257    518.267    509.257
 61.470    725.000    693.751     31.249    509.356    684.819    509.356    518.238    509.356
 61.570    769.653    761.401      8.252    509.455    752.514    509.455    518.269    509.455
 61.670    856.781    858.140     -1.359    509.554    849.283    509.554    518.310    509.554
 61.770    938.197    981.749    -43.552    509.654    972.968    509.654    518.303    509.654
 61.870   1115.000   1122.500     -7.500    509.754   1113.905    509.754    518.190    509.754
 61.970   1251.000   1261.776    -10.776    509.854   1253.513    509.854    517.941    509.854
 62.070   1320.000   1373.373    -53.373    509.955   1365.588    509.955    517.565    509.955
 62.170   1299.000   1429.747   -130.747    510.056   1422.546    510.056    517.106    510.056
 62.270   1361.602   1414.288    -52.687    510.156   1407.719    510.156    516.615    510.156
 62.370   1274.000   1331.491    -57.491    510.258   1325.546    510.258    516.136    510.258
 62.470   1149.000   1203.787    -54.787    510.359   1198.420    510.359    515.696    510.359
 62.570   1032.434   1059.145    -26.711    510.460   1054.289    510.460    515.312    510.460
 62.670    901.000    921.078    -20.078    510.562    916.660    510.562    514.989    510.562
 62.770    844.271    804.537     39.734    510.664    800.487    510.664    514.727    510.664
 62.870    684.000    715.676    -31.676    510.766    711.933    510.766    514.521    510.766
 62.970    652.000    653.743     -1.743    510.868    650.255    510.868    514.363    510.868
 63.070    639.626    613.956     25.670    510.970    610.682    510.970    514.248    510.970
 63.170    573.552    590.275    -16.723    511.073    587.182    511.073    514.165    511.073
 63.270    612.000    577.319     34.681    511.175    574.381    511.175    514.110    511.175
 63.370    580.000    571.277      8.723    511.278    568.474    511.278    514.076    511.278
 63.470    549.523    570.069    -20.546    511.380    567.384    511.380    514.058    511.380
 63.570    530.511    573.154    -42.643    511.483    570.573    511.483    514.054    511.483
 63.670    605.153    581.251     23.902    511.586    578.762    511.586    514.061    511.586
 63.770    612.000    596.044     15.956    511.689    593.636    511.689    514.077    511.689
 63.870    628.939    619.791      9.148    511.792    617.451    511.792    514.101    511.792
 63.970    687.073    654.714     32.359    511.895    652.434    511.895    514.131    511.895
 64.070    719.000    702.152     16.848    511.998    699.921    511.998    514.167    511.998
 64.170    792.000    761.553     30.447    512.101    759.365    512.101    514.208    512.101
 64.270    838.000    829.541      8.459    512.204    827.390    512.204    514.254    512.204
 64.370    904.000    899.310      4.690    512.307    897.195    512.307    514.305    512.307
 64.470    991.720    960.834     30.886    512.411    958.758    512.411    514.360    512.411
 64.570   1039.000   1002.951     36.049    512.514   1000.922    512.514    514.418    512.514
 64.670   1010.000   1017.623     -7.623    512.617   1015.650    512.617    514.479    512.617
 64.770   1026.173   1003.445     22.728    512.720   1001.532    512.720    514.544    512.720
 64.870    973.000    965.299      7.701    512.823    963.448    512.823    514.612    512.823
 64.970    856.000    911.722    -55.722    512.926    909.930    512.926    514.683    512.926
 65.070    882.056    852.122     29.934    513.029    850.382    513.029    514.756    513.029
 65.170    792.000    794.279     -2.279    513.131    792.584    513.131    514.831    513.131
 65.270    735.000    742.892     -7.892    513.234    741.234    513.234    514.909    513.234
 65.370    688.000    699.695    -11.695    513.337    698.065    513.337    514.989    513.337
 65.470    644.000    664.604    -20.604    513.439    662.996    513.439    515.071    513.439
 65.570    608.948    636.838    -27.890    513.542    635.246    513.542    515.155    513.542
 65.670    582.000    615.417    -33.417    513.644    613.837    513.644    515.241    513.644
 65.770    609.000    599.297      9.703    513.746    597.726    513.746    515.329    513.746
 65.870    574.000    587.485    -13.485    513.848    585.923    513.848    515.419    513.848
 65.970    534.000    579.141    -45.141    513.950    577.586    513.950    515.510    513.950
 66.070    549.000    573.600    -24.600    514.052    572.051    514.052    515.603    514.052
 66.170    539.000    570.345    -31.345    514.154    568.802    514.154    515.697    514.154
 66.270    531.157    568.982    -37.825    514.255    567.443    514.255    515.793    514.255
 66.370    575.950    569.228      6.722    514.356    567.693    514.356    515.891    514.356
 66.470    589.000    570.948     18.052    514.457    569.415    514.457    515.990    514.457
 66.570    615.928    574.218     41.710    514.558    572.686    514.558    516.091    514.558
 66.670    575.000    579.462     -4.462    514.659    577.928    514.659    516.194    514.659
 66.770    582.050    587.665     -5.616    514.759    586.128    514.759    516.297    514.759
 66.870    574.000    600.718    -26.718    514.859    599.174    514.859    516.403    514.859
 66.970    665.617    621.860     43.756    514.959    620.308    514.959    516.510    514.959
 67.070    656.802    656.130      0.672    515.059    654.566    515.059    516.619    515.059
 67.170    701.691    710.571     -8.881    515.158    708.992    515.158    516.729    515.158
 67.270    741.000    793.853    -52.853    515.257    792.257    515.257    516.841    515.257
 67.370    873.000    914.934    -41.934    515.356    913.318    515.356    516.955    515.356
 67.470   1046.364   1080.617    -34.253    515.454   1078.984    515.454    517.071    515.454
 67.570   1396.000   1292.266    103.734    515.553   1290.620    515.553    517.188    515.553
 67.670   1535.000   1542.427     -7.427    515.650   1540.777    515.650    517.308    515.650
 67.770   1799.000   1812.335    -13.335    515.748   1810.693    515.748    517.430    515.748
 67.870   2111.000   2071.217     39.783    515.845   2069.594    515.845    517.554    515.845
 67.970   2378.000   2278.743     99.257    515.942   2277.153    515.942    517.681    515.942
 68.070   2347.000   2393.469    -46.469    516.039   2391.915    516.039    517.810    516.039
 68.170   2307.484   2388.359    -80.875    516.135   2386.830    516.135    517.942    516.135
 68.270   2273.000   2264.789      8.211    516.231   2263.258    516.231    518.077    516.231
 68.370   2028.350   2051.699    -23.349    516.326   2050.132    516.326    518.215    516.326
 68.470   1887.000   1790.898     96.102    516.421   1789.263    516.421    518.357    516.421
 68.570   1633.000   1522.083    110.917    516.516   1520.357    516.516    518.503    516.516
 68.670   1318.805   1275.042     43.762    516.610   1273.212    516.610    518.652    516.610
 68.770   1097.525   1067.528     29.996    516.704   1065.588    516.704    518.806    516.704
 68.870    868.000    906.140    -38.140    516.798    904.090    516.798    518.965    516.798
 68.970    789.000    788.925      0.075    516.891    786.766    516.891    519.130    516.891
 69.070    736.000    708.785     27.215    516.983    706.521    516.983    519.300    516.983
 69.170    610.953    656.711    -45.758    517.075    654.344    517.075    519.477    517.075
 69.270    622.000    624.134     -2.134    517.167    621.663    517.167    519.661    517.167
 69.370    620.000    604.165     15.835    517.258    601.584    517.258    519.854    517.258
 69.470    621.000    591.906     29.094    517.349    589.210    517.349    520.055    517.349
 69.570    623.000    584.209     38.791    517.439    581.389    517.439    520.266    517.439
 69.670    565.000    579.208    -14.208    517.529    576.253    517.529    520.489    517.529
 69.770    579.000    575.873      3.127    517.618    572.771    517.618    520.724    517.618
 69.870    545.000    573.664    -28.664    517.707    570.400    517.707    520.974    517.707
 69.970    602.000    572.310     29.690    517.795    568.867    517.795    521.239    517.795
 70.070    582.765    571.686     11.078    517.882    568.046    517.882    521.523    517.882
 70.170    579.000    571.757      7.243    517.970    567.899    517.970    521.828    517.970
 70.270    616.543    572.560     43.983    518.056    568.458    518.056    522.157    518.056
 70.370    543.000    574.227    -31.227    518.142    569.853    518.142    522.514    518.142
 70.470    565.042    577.042    -11.999    518.228    572.363    518.228    522.903    518.228
 70.570    590.000    581.550      8.450    518.312    576.528    518.312    523.329    518.312
 70.670    608.451    588.720     19.731    518.397    583.307    518.397    523.801    518.397
 70.770    595.000    600.160     -5.160    518.480    594.299    518.480    524.329    518.480
 70.870    597.000    618.357    -21.357    518.563    611.976    518.563    524.925    518.563
 70.970    620.260    646.849    -26.589    518.646    639.854    518.646    525.612    518.646
 71.070    672.000    690.194    -18.194    518.728    682.457    518.728    526.421    518.728
 71.170    777.000    753.575     23.425    518.809    744.923    518.809    527.399    518.809
 71.270    841.000    841.914     -0.914    518.889    832.101    518.889    528.616    518.889
 71.370    934.000    958.491    -24.491    518.969    947.170    518.969    530.176    518.969
 71.470   1066.457   1103.263    -36.805    519.049   1089.942    519.049    532.225    519.049
 71.570   1323.000   1271.256     51.744    519.127   1255.250    519.127    534.960    519.127
 71.670   1411.826   1451.450    -39.624    519.205   1431.830    519.205    538.629    519.205
 71.770   1588.000   1626.512    -38.512    519.282   1602.056    519.282    543.531    519.282
 71.870   1797.000   1773.964     23.036    519.359   1743.133    519.359    549.987    519.359
 71.970   1895.356   1869.982     25.374    519.435   1830.924    519.435    558.311    519.435
 72.070   1912.000   1896.781     15.219    519.510   1847.396    519.510    568.747    519.510
 72.170   1826.330   1850.688    -24.357    519.585   1788.758    519.585    581.405    519.585
 72.270   1712.506   1744.158    -31.652    519.658   1667.560    519.658    596.184    519.658
 72.370   1573.000   1599.477    -26.477    519.731   1506.477    519.731    612.689    519.731
 72.470   1365.443   1440.040    -74.597    519.804   1329.676    519.804    630.147    519.804
 72.570   1221.000   1284.759    -63.759    519.875   1157.299    519.875    647.327    519.875
 72.670   1131.895   1145.932    -14.037    519.946   1003.366    519.946    662.510    519.946
 72.770    965.000   1029.181    -64.181    520.016    875.553    520.016    673.645    520.016
 72.870    908.000    934.751    -26.751    520.085    775.998    520.085    678.840    520.085
 72.970    818.000    859.696    -41.696    520.154    702.756    520.154    677.094    520.154
 73.070    770.587    800.073    -29.486    520.221    651.512    520.221    668.782    520.221
 73.170    761.285    752.297      8.988    520.288    617.129    520.288    655.455    520.288
 73.270    682.000    713.574    -31.574    520.354    594.769    520.354    639.158    520.354
 73.370    651.000    681.883    -30.883    520.420    580.500    520.420    621.801    520.420
 73.470    671.000    655.834     15.166    520.484    571.466    520.484    604.852    520.484
 73.570    637.631    634.532      3.099    520.548    565.781    520.548    589.300    520.548
 73.670    616.000    617.408     -1.408    520.610    562.311    520.610    575.712    520.610
 73.770    609.000    604.065      4.935    520.672    560.418    520.672    564.326    520.672
 73.870    623.000    594.139     28.861    520.733    559.757    520.733    555.125    520.733
 73.970    590.000    587.235      2.765    520.794    560.121    520.794    547.922    520.794
 74.070    545.784    582.884    -37.100    520.853    561.326    520.853    542.430    520.853
 74.170    593.396    580.537     12.859    520.912    563.148    520.912    538.325    520.912
 74.270    537.016    579.582    -42.565    520.969    565.285    520.969    535.296    520.969
 74.370    538.195    579.354    -41.159    521.026    567.348    521.026    533.068    521.026
 74.470    533.375    579.181    -45.806    521.082    568.885    521.082    531.418    521.082
 74.570    627.000    578.466     48.534    521.137    569.469    521.137    530.176    521.137
 74.670    642.000    576.818     65.182    521.191    568.831    521.191    529.221    521.191
 74.770    661.000    574.165     86.835    521.244    566.985    521.244    528.465    521.244
 74.870    561.007    570.744     -9.738    521.296    564.226    521.296    527.852    521.296
 74.970    603.000    566.983     36.017    521.347    561.020    521.347    527.343    521.347
 75.070    615.000    563.371     51.629    521.398    557.882    521.398    526.912    521.398
 75.170    511.460    560.391    -48.931    521.447    555.315    521.447    526.543    521.447
 75.270    551.000    558.511     -7.511    521.496    553.798    521.496    526.222    521.496
 75.370    572.000    558.199     13.801    521.543    553.807    521.543    525.943    521.543
 75.470    557.000    559.935     -2.935    521.590    555.828    521.590    525.698    521.590
 75.570    532.000    564.214    -32.214    521.635    560.363    521.635    525.482    521.635
 75.670    529.000    571.514    -42.514    521.680    567.892    521.680    525.291    521.680
 75.770    575.000    582.214     -7.214    521.723    578.798    521.723    525.123    521.723
 75.870    621.102    596.470     24.632    521.766    593.239    521.766    524.973    521.766
 75.970    595.502    614.074    -18.572    521.808    611.009    521.808    524.840    521.808
 76.070    669.173    634.314     34.859    521.848    631.400    521.848    524.721    521.848
 76.170    624.320    655.886    -31.567    521.888    653.109    521.888    524.615    521.888
 76.270    665.000    676.877    -11.877    521.926    674.226    521.926    524.521    521.926
 76.370    732.000    694.847     37.153    521.964    692.314    521.964    524.436    521.964
 76.470    704.000    707.144     -3.144    522.000    704.721    522.000    524.360    522.000
 76.570    725.932    711.551     14.381    522.036    709.234    522.036    524.292    522.036
 76.670    739.923    707.144     32.780    522.070    704.928    522.070    524.231    522.070
 76.770    691.365    694.735     -3.369    522.104    692.615    522.104    524.175    522.104
 76.870    673.714    676.469     -2.755    522.136    674.441    522.136    524.126    522.136
 76.970    604.648    654.979    -50.332    522.167    653.035    522.167    524.081    522.167
 77.070    637.000    632.705      4.295    522.197    630.840    522.197    524.040    522.197
 77.170    592.000    611.569    -19.569    522.227    609.776    522.227    524.004    522.227
 77.270    572.000    592.869    -20.869    522.255    591.142    522.255    523.970    522.255
 77.370    553.000    577.291    -24.291    522.281    575.624    522.281    523.940    522.281
 77.470    562.870    564.993     -2.123    522.307    563.383    522.307    523.913    522.307
 77.570    547.000    555.744     -8.744    522.332    554.186    522.332    523.888    522.332
 77.670    510.380    549.082    -38.702    522.356    547.571    522.356    523.864    522.356
 77.770    540.303    544.451     -4.148    522.378    542.984    522.378    523.843    522.378
 77.870    579.307    541.302     38.005    522.400    539.877    522.400    523.824    522.400
 77.970    528.223    539.195    -10.972    522.420    537.808    522.420    523.806    522.420
 78.070    553.833    537.812     16.020    522.439    536.461    522.439    523.789    522.439
 78.170    519.000    536.887    -17.887    522.457    535.570    522.457    523.773    522.457
 78.270    531.650    536.257     -4.607    522.474    534.971    522.474    523.759    522.474
 78.370    492.859    535.823    -42.964    522.490    534.566    522.490    523.745    522.490
 78.470    519.000    535.531    -16.531    522.504    534.302    522.504    523.732    522.504
 78.570    546.000    535.355     10.645    522.518    534.151    522.518    523.720    522.518
 78.670    533.999    535.288     -1.290    522.530    534.109    522.530    523.709    522.530
 78.770    479.000    535.338    -56.338    522.541    534.179    522.541    523.699    522.541
 78.870    571.634    535.518     36.115    522.551    534.379    522.551    523.690    522.551
 78.970    579.000    535.851     43.149    522.560    534.729    522.560    523.681    522.560
 79.070    536.696    536.363      0.333    522.568    535.254    522.568    523.674    522.568
 79.170    490.000    537.079    -47.079    522.574    535.982    522.574    523.669    522.574
 79.270    540.000    538.026      1.974    522.579    536.936    522.579    523.666    522.579
 79.370    520.000    539.228    -19.228    522.583    538.143    522.583    523.666    522.583
 79.470    532.936    540.715     -7.779    522.586    539.630    522.586    523.668    522.586
 79.570    556.147    542.524     13.624    522.588    541.434    522.588    523.674    522.588
 79.670    534.000    544.713    -10.713    522.588    543.613    522.588    523.683    522.588
 79.770    568.113    547.378     20.735    522.587    546.263    522.587    523.697    522.587
 79.870    545.221    550.672     -5.450    522.585    549.537    522.585    523.714    522.585
 79.970    577.000    554.823     22.177    522.582    553.664    522.582    523.736    522.582
 80.070    581.457    560.155     21.302    522.578    558.969    522.578    523.760    522.578
 80.170    594.561    567.087     27.475    522.572    565.871    522.572    523.785    522.572
 80.270    575.726    576.078     -0.351    522.565    574.831    522.565    523.811    522.565
 80.370    561.000    587.539    -26.539    522.557    586.264    522.557    523.833    522.557
 80.470    614.000    601.719     12.281    522.547    600.422    522.547    523.850    522.547
 80.570    636.000    618.604     17.396    522.537    617.294    522.537    523.856    522.537
 80.670    679.259    637.839     41.420    522.525    636.528    522.525    523.850    522.525
 80.770    686.000    658.696     27.304    522.512    657.400    522.512    523.828    522.512
 80.870    649.000    680.100    -31.100    522.497    678.832    522.497    523.791    522.497
 80.970    661.172    700.742    -39.570    522.481    699.515    522.481    523.740    522.481
 81.070    694.466    719.268    -24.803    522.464    718.092    522.464    523.680    522.464
 81.170    714.000    734.456    -20.456    522.446    733.335    522.446    523.613    522.446
 81.270    728.866    745.327    -16.461    522.427    744.263    522.427    523.543    522.427
 81.370    777.000    751.219     25.781    522.406    750.210    522.406    523.472    522.406
 81.470    770.949    751.857     19.092    522.384    750.900    522.384    523.403    522.384
 81.570    749.239    747.357      1.883    522.361    746.446    522.361    523.336    522.361
 81.670    736.942    738.186     -1.244    522.336    737.316    522.336    523.272    522.336
 81.770    756.000    725.144     30.856    522.310    724.309    522.310    523.212    522.310
 81.870    669.000    709.331    -40.331    522.283    708.525    522.283    523.156    522.283
 81.970    701.000    691.998      9.002    522.254    691.215    522.254    523.102    522.254
 82.070    637.000    674.284    -37.284    522.224    673.519    522.224    523.051    522.224
 82.170    690.000    657.019     32.981    522.193    656.267    522.193    523.003    522.193
 82.270    662.000    640.671     21.329    522.161    639.930    522.161    522.956    522.161
 82.370    631.304    625.450      5.854    522.127    624.716    522.127    522.910    522.127
 82.470    567.693    611.462    -43.769    522.092    610.733    522.092    522.866    522.092
 82.570    604.000    598.830      5.170    522.056    598.103    522.056    522.821    522.056
 82.670    549.265    587.714    -38.449    522.018    586.987    522.018    522.777    522.018
 82.770    566.000    578.285    -12.285    521.979    577.558    521.979    522.732    521.979
 82.870    605.396    570.691     34.705    521.939    569.961    521.939    522.687    521.939
 82.970    579.000    565.037     13.963    521.897    564.304    521.897    522.641    521.897
 83.070    554.868    561.375     -6.508    521.854    560.639    521.854    522.595    521.854
 83.170    590.000    559.691     30.309    521.810    558.950    521.810    522.547    521.810
 83.270    543.000    559.877    -16.877    521.764    559.132    521.764    522.499    521.764
 83.370    525.000    561.726    -36.726    521.717    560.976    521.717    522.450    521.717
 83.470    528.505    564.917    -36.411    521.669    564.162    521.669    522.400    521.669
 83.570    523.000    569.018    -46.018    521.620    568.258    521.620    522.349    521.620
 83.670    577.000    573.501      3.499    521.569    572.737    521.569    522.297    521.569
 83.770    595.000    577.768     17.232    521.516    577.000    521.516    522.244    521.516
 83.870    570.000    581.198    -11.198    521.463    580.427    521.463    522.190    521.463
 83.970    564.000    583.225    -19.225    521.408    582.454    521.408    522.135    521.408
 84.070    547.000    583.456    -36.456    521.351    582.685    521.351    522.079    521.351
 84.170    594.000    581.768     12.232    521.294    580.999    521.294    522.022    521.294
 84.270    615.242    578.341     36.901    521.235    577.575    521.235    521.963    521.235
 84.370    554.000    573.582    -19.582    521.174    572.820    521.174    521.904    521.174
 84.470    580.000    568.000     12.000    521.113    567.241    521.113    521.843    521.113
 84.570    591.850    562.101     29.749    521.050    561.346    521.050    521.782    521.050
 84.670    567.000    556.323     10.677    520.985    555.570    520.985    521.719    520.985
 84.770    564.000    550.999     13.001    520.920    550.249    520.920    521.656    520.920
 84.870    538.000    546.352     -8.352    520.852    545.603    520.852    521.591    520.852
 84.970    534.000    542.492     -8.492    520.784    541.743    520.784    521.525    520.784
 85.070    541.000    539.438      1.562    520.714    538.687    520.714    521.458    520.714
 85.170    564.000    537.139     26.861    520.643    536.386    520.643    521.390    520.643
 85.270    515.000    535.506    -20.506    520.571    534.751    520.571    521.321    520.571
 85.370    562.000    534.436     27.564    520.497    533.677    520.497    521.250    520.497
 85.470    505.079    533.833    -28.754    520.422    533.070    520.422    521.179    520.422
 85.570    570.000    533.626     36.374    520.345    532.859    520.345    521.107    520.345
 85.670    555.000    533.776     21.224    520.267    533.005    520.267    521.033    520.267
 85.770    573.827    534.286     39.542    520.188    533.508    520.188    520.959    520.188
 85.870    551.000    535.195     15.805    520.107    534.411    520.107    520.883    520.107
 85.970    575.753    536.591     39.162    520.025    535.799    520.025    520.807    520.025
 86.070    520.000    538.596    -18.596    519.942    537.796    519.942    520.729    519.942
 86.170    573.000    541.364     31.636    519.857    540.555    519.857    520.650    519.857
 86.270    529.000    545.069    -16.069    519.771    544.248    519.771    520.571    519.771
 86.370    543.000    549.880     -6.880    519.684    549.046    519.684    520.490    519.684
 86.470    547.000    555.940     -8.940    519.595    555.092    519.595    520.408    519.595
 86.570    566.325    563.329      2.996    519.505    562.465    519.505    520.326    519.505
 86.670    559.221    572.027    -12.807    519.414    571.145    519.414    520.242    519.414
 86.770    574.000    581.882     -7.882    519.321    580.981    519.321    520.158    519.321
 86.870    634.829    592.582     42.247    519.227    591.660    519.227    520.072    519.227
 86.970    561.987    603.640    -41.654    519.131    602.698    519.131    519.986    519.131
 87.070    642.349    614.402     27.946    519.034    613.440    519.034    519.898    519.034
 87.170    623.000    624.072     -1.072    518.936    623.091    518.936    519.810    518.936
 87.270    611.000    631.782    -20.782    518.837    630.785    518.837    519.721    518.837
 87.370    621.333    636.732    -15.399    518.736    635.723    518.736    519.631    518.736
 87.470    646.000    638.375      7.625    518.634    637.357    518.634    519.541    518.634
 87.570    665.000    636.574     28.426    518.530    635.551    518.530    519.449    518.530
 87.670    588.288    631.654    -43.366    518.425    630.627    518.425    519.357    518.425
 87.770    615.470    624.294     -8.824    518.319    623.265    518.319    519.264    518.319
 87.870    643.000    615.364     27.636    518.212    614.335    518.212    519.171    518.212
 87.970    609.000    605.782      3.218    518.103    604.751    518.103    519.076    518.103
 88.070    553.048    596.410    -43.362    517.993    595.376    517.993    518.982    517.993
 88.170    612.917    587.995     24.922    517.881    586.957    517.881    518.887    517.881
 88.270    560.000    581.126    -21.126    517.768    580.081    517.768    518.791    517.768
 88.370    581.000    576.212      4.788    517.654    575.160    517.654    518.695    517.654
 88.470    606.000    573.475     32.525    517.539    572.412    517.539    518.598    517.539
 88.570    571.000    572.947     -1.947    517.422    571.872    517.422    518.501    517.422
 88.670    526.464    574.476    -48.012    517.304    573.388    517.304    518.405    517.304
 88.770    565.098    577.781    -12.683    517.184    576.678    517.184    518.307    517.184
 88.870    616.000    582.430     33.570    517.064    581.312    517.064    518.210    517.064
 88.970    558.107    587.866    -29.759    516.942    586.730    516.942    518.113    516.942
 89.070    632.000    593.453     38.547    516.818    592.298    516.818    518.016    516.818
 89.170    624.000    598.511     25.489    516.694    597.334    516.694    517.920    516.694
 89.270    594.000    602.368     -8.368    516.568    601.168    516.568    517.824    516.568
 89.370    588.000    604.453    -16.453    516.441    603.225    516.441    517.728    516.441
 89.470    625.000    604.397     20.603    516.312    603.137    516.312    517.633    516.312
 89.570    589.000    602.118    -13.118    516.182    600.822    516.182    517.539    516.182
 89.670    618.238    597.827     20.411    516.051    596.491    516.051    517.447    516.051
 89.770    581.495    591.955    -10.460    515.919    590.574    515.919    517.355    515.919
 89.870    537.000    585.036    -48.036    515.785    583.606    515.785    517.266    515.785
 89.970    612.501    577.615     34.886    515.651    576.132    515.651    517.178    515.651
 90.070    537.701    570.177    -32.476    515.514    568.637    515.514    517.093    515.514
 90.170    605.071    563.120     41.951    515.377    561.518    515.377    517.011    515.377
 90.270    583.508    556.732     26.776    515.238    555.064    515.238    516.932    515.238
 90.370    518.000    551.196    -33.196    515.099    549.458    515.099    516.857    515.099
 90.470    495.000    546.596    -51.596    514.957    544.781    514.957    516.787    514.957
 90.570    520.000    542.933    -22.933    514.815    541.035    514.815    516.724    514.815
 90.670    515.000    540.148    -25.148    514.671    538.158    514.671    516.669    514.671
 90.770    508.000    538.148    -30.148    514.527    536.056    514.527    516.624    514.527
 90.870    507.705    536.827    -29.122    514.380    534.619    514.380    516.591    514.380
 90.970    533.000    536.085     -3.085    514.233    533.745    514.233    516.575    514.233
 91.070    555.063    535.846     19.217    514.085    533.350    514.085    516.581    514.085
 91.170    521.000    536.061    -15.061    513.935    533.382    513.935    516.613    513.935
 91.270    532.000    536.721     -4.721    513.784    533.823    513.784    516.680    513.784
 91.370    512.000    537.861    -25.861    513.632    534.698    513.632    516.791    513.632
 91.470    535.000    539.561     -4.561    513.479    536.078    513.479    516.957    513.479
 91.570    496.000    541.940    -45.940    513.324    538.067    513.324    517.191    513.324
 91.670    566.202    545.154     21.047    513.168    540.808    513.168    517.507    513.168
 91.770    534.000    549.362    -15.362    513.012    544.442    513.012    517.921    513.012
 91.870    523.000    554.848    -31.848    512.853    549.238    512.853    518.449    512.853
 91.970    572.541    561.827     10.714    512.694    555.396    512.694    519.108    512.694
 92.070    566.000    570.496     -4.496    512.534    563.097    512.534    519.912    512.534
 92.170    545.000    581.028    -36.028    512.372    572.501    512.372    520.873    512.372
 92.270    594.000    593.532      0.468    512.210    583.710    512.210    522.000    512.210
 92.370    657.000    608.028     48.972    512.046    596.741    512.046    523.293    512.046
 92.470    655.481    624.418     31.063    511.881    611.505    511.881    524.748    511.881
 92.570    669.737    642.475     27.262    511.715    627.788    511.715    526.349    511.715
 92.670    649.000    661.825    -12.825    511.548    645.242    511.548    528.071    511.548
 92.770    671.170    681.946    -10.776    511.380    663.388    511.380    529.873    511.380
 92.870    701.000    702.190     -1.190    511.210    681.629    511.210    531.701    511.210
 92.970    728.000    721.838      6.162    511.040    699.321    511.040    533.482    511.040
 93.070    777.110    740.194     36.916    510.868    715.858    510.868    535.127    510.868
 93.170    749.000    756.694     -7.694    510.696    730.780    510.696    536.531    510.696
 93.270    821.012    771.024     49.988    510.522    743.884    510.522    537.584    510.522
 93.370    787.806    783.142      4.664    510.347    755.227    510.347    538.185    510.347
 93.470    742.438    793.230    -50.792    510.171    765.062    510.171    538.264    510.171
 93.570    780.487    801.607    -21.120    509.994    773.731    509.994    537.797    509.994
 93.670    796.000    808.665    -12.665    509.816    781.594    509.816    536.816    509.816
 93.770    847.000    814.852     32.148    509.638    789.025    509.638    535.396    509.638
 93.870    912.000    820.694     91.306    509.458    796.446    509.458    533.641    509.458
 93.970    787.498    826.782    -39.284    509.277    804.335    509.277    531.660    509.277
 94.070    847.000    833.685     13.315    509.095    813.162    509.095    529.557    509.095
 94.170    815.000    841.804    -26.804    508.912    823.236    508.912    527.420    508.912
 94.270    851.000    851.205     -0.205    508.728    834.558    508.728    525.318    508.728
 94.370    883.000    861.525     21.475    508.543    846.709    508.543    523.304    508.543
 94.470    917.000    871.949     45.051    508.357    858.839    508.357    521.416    508.357
 94.570    902.000    881.277     20.723    508.170    869.723    508.170    519.678    508.170
 94.670    913.435    888.061     25.375    507.982    877.899    507.982    518.104    507.982
 94.770    962.000    890.815     71.185    507.793    881.878    507.793    516.698    507.793
 94.870    913.000    888.294     24.706    507.604    880.415    507.604    515.458    507.604
 94.970    905.000    879.778     25.222    507.413    872.800    507.413    514.375    507.413
 95.070    894.939    865.270     29.670    507.221    859.047    507.221    513.436    507.221
 95.170    805.380    845.514    -40.134    507.029    839.915    507.029    512.627    507.029
 95.270    878.000    821.845     56.155    506.836    816.752    506.836    511.933    506.836
 95.370    813.000    795.958     17.042    506.641    791.271    506.641    511.336    506.641
 95.470    756.152    769.704    -13.552    506.446    765.339    506.446    510.821    506.446
 95.570    834.000    744.932     89.068    506.250    740.817    506.250    510.375    506.250
 95.670    682.818    723.377    -40.560    506.054    719.454    506.054    509.984    506.054
 95.770    723.000    706.661     16.339    505.856    702.882    505.856    509.639    505.856
 95.870    676.305    696.174    -19.868    505.658    692.500    505.658    509.330    505.658
 95.970    726.000    693.103     32.897    505.458    689.503    505.458    509.050    505.458
 96.070    733.000    698.429     34.571    505.258    694.877    505.258    508.794    505.258
 96.170    719.638    712.919      6.720    505.057    709.392    505.057    508.558    505.057
 96.270    738.000    737.106      0.894    504.856    733.587    504.856    508.338    504.856
 96.370    739.886    771.252    -31.366    504.653    767.726    504.653    508.133    504.653
 96.470    795.000    815.283    -20.283    504.450    811.736    504.450    507.939    504.450
 96.570    917.000    868.709     48.291    504.246    865.130    504.246    507.757    504.246
 96.670    933.000    930.537      2.463    504.042    926.914    504.042    507.585    504.042
 96.770    971.000    999.195    -28.195    503.836    995.521    503.836    507.423    503.836
 96.870   1062.592   1072.490     -9.898    503.630   1068.755    503.630    507.270    503.630
 96.970   1140.000   1147.590     -7.590    503.423   1143.786    503.423    507.128    503.423
 97.070   1227.000   1221.068      5.932    503.216   1217.189    503.216    506.995    503.216
 97.170   1265.000   1289.015    -24.015    503.008   1285.054    503.008    506.873    503.008
 97.270   1372.000   1347.268     24.732    502.799   1343.219    502.799    506.762    502.799
 97.370   1444.025   1391.805     52.220    502.589   1387.660    502.589    506.662    502.589
 97.470   1424.000   1419.300      4.700    502.379   1415.049    502.379    506.574    502.379
 97.570   1451.000   1427.722     23.278    502.168   1423.355    502.168    506.501    502.168
 97.670   1411.449   1416.743     -5.294    501.957   1412.243    501.957    506.443    501.957
 97.770   1320.000   1387.751    -67.751    501.745   1383.099    501.745    506.402    501.745
 97.870   1321.000   1343.499    -22.499    501.533   1338.672    501.533    506.381    501.533
 97.970   1299.072   1287.568     11.504    501.320   1282.539    501.320    506.385    501.320
 98.070   1216.000   1223.879     -7.879    501.106   1218.615    501.106    506.416    501.106
 98.170   1133.838   1156.334    -22.496    500.892   1150.796    500.892    506.483    500.892
 98.270   1051.000   1088.595    -37.595    500.677   1082.735    500.677    506.591    500.677
 98.370    965.000   1023.941    -58.941    500.462   1017.703    500.462    506.753    500.462
 98.470    942.000    965.200    -23.200    500.246    958.516    500.246    506.980    500.246
 98.570    961.000    914.725     46.275    500.030    907.508    500.030    507.290    500.030
 98.670    835.271    874.404    -39.133    499.813    866.549    499.813    507.703    499.813
 98.770    805.864    845.690    -39.826    499.596    837.068    499.596    508.244    499.596
 98.870    824.000    829.659     -5.659    499.379    820.112    499.379    508.942    499.379
 98.970    830.000    827.076      2.924    499.161    816.411    499.161    509.833    499.161
 99.070    825.000    838.439    -13.439    498.942    826.422    498.942    510.958    498.942
 99.170    855.000    864.007     -9.007    498.724    850.362    498.724    512.359    498.724
 99.270    891.000    903.800    -12.800    498.504    888.203    498.504    514.086    498.504
 99.370    968.000    957.563     10.437    498.285    939.639    498.285    516.189    498.285
 99.470   1032.000   1024.702      7.298    498.065   1004.029    498.065    518.716    498.065
 99.570   1068.554   1104.198    -35.644    497.845   1080.307    497.845    521.714    497.845
 99.670   1207.000   1194.576     12.424    497.624   1166.959    497.624    525.223    497.624
 99.770   1326.000   1293.773     32.227    497.404   1261.895    497.404    529.271    497.404
 99.870   1447.000   1399.115     47.885    497.182   1362.424    497.182    533.874    497.182
 99.970   1531.044   1507.324     23.720    496.961   1465.275    496.961    539.026    496.961
100.070   1654.000   1614.601     39.399    496.740   1566.674    496.740    544.701    496.740
100.170   1734.000   1716.811     17.189    496.518   1662.542    496.518    550.844    496.518
100.270   1798.000   1809.793    -11.793    496.296   1748.801    496.296    557.369    496.296
100.370   1936.000   1889.721     46.279    496.073   1821.746    496.073    564.155    496.073
100.470   2037.000   1953.408     83.592    495.851   1878.350    495.851    571.041    495.851
100.570   1922.718   1998.451    -75.733    495.628   1916.410    495.628    577.824    495.628
100.670   2093.202   2023.211     69.990    495.406   1934.534    495.406    584.258    495.406
100.770   2081.000   2026.782     54.218    495.183   1932.100    495.183    590.057    495.183
100.870   1940.000   2009.076    -69.076    494.960   1909.330    494.960    594.912    494.960
100.970   2033.030   1971.047     61.983    494.737   1867.483    494.737    598.514    494.737
101.070   1912.000   1914.896     -2.896    494.514   1809.023    494.514    600.603    494.514
101.170   1823.000   1844.056    -21.056    494.291   1737.554    494.291    601.006    494.291
101.270   1757.000   1762.877     -5.877    494.067   1657.478    494.067    599.674    494.067
101.370   1661.000   1676.108    -15.108    493.844   1573.456    493.844    596.692    493.844
101.470   1581.498   1588.352     -6.854    493.621   1489.890    493.621    592.265    493.621
101.570   1454.000   1503.642    -49.642    493.398   1410.535    493.398    586.673    493.398
101.670   1415.000   1425.177    -10.177    493.175   1338.276    493.175    580.226    493.175
101.770   1295.123   1355.192    -60.069    492.952   1275.048    492.952    573.232    492.952
101.870   1230.000   1294.938    -64.938    492.729   1221.824    492.729    565.964    492.729
101.970   1250.000   1244.719      5.281    492.506   1178.675    492.506    558.658    492.506
102.070   1260.478   1203.977     56.501    492.283   1144.854    492.283    551.504    492.283
102.170   1196.929   1171.419     25.510    492.060   1118.920    492.060    544.650    492.060
102.270   1118.000   1145.175    -27.175    491.838   1098.890    491.838    538.208    491.838
102.370   1144.947   1122.997     21.950    491.615   1082.442    491.615    532.253    491.615
102.470   1158.966   1102.510     56.457    491.393   1067.153    491.393    526.831    491.393
102.570   1067.000   1081.495    -14.495    491.171   1050.785    491.171    521.964    491.171
102.670   1082.215   1058.178     24.037    490.950   1031.562    490.950    517.648    490.950
102.770    975.449   1031.439    -55.990    490.728   1008.384    490.728    513.866    490.728
102.870    975.458   1000.883    -25.425    490.507    980.888    490.507    510.585    490.507
102.970   1010.000    966.766     43.234    490.286    949.372    490.286    507.762    490.286
103.070    961.779    929.815     31.963    490.066    914.610    490.066    505.350    490.066
103.170    855.744    891.026    -35.282    489.845    877.647    489.845    503.300    489.845
103.270    846.000    851.492     -5.492    489.626    839.627    489.626    501.562    489.626
103.370    789.000    812.288    -23.288    489.406    801.672    489.406    500.088    489.406
103.470    745.722    774.387    -28.665    489.187    764.798    489.187    498.836    489.187
103.570    777.197    738.610     38.587    488.969    729.865    488.969    497.766    488.969
103.670    720.908    705.597     15.311    488.751    697.547    488.751    496.846    488.751
103.770    656.000    675.789    -19.789    488.533    668.314    488.533    496.047    488.533
103.870    678.656    649.435     29.220    488.316    642.439    488.316    495.345    488.316
103.970    662.000    626.602     35.398    488.099    620.009    488.099    494.720    488.099
104.070    607.000    607.204     -0.204    487.883    600.951    487.883    494.158    487.883
104.170    620.130    591.035     29.095    487.667    585.073    487.667    493.647    487.667
104.270    581.000    577.804      3.196    487.452    572.095    487.452    493.175    487.452
104.370    538.577    567.175    -28.598    487.238    561.686    487.238    492.738    487.238
104.470    646.000    558.793     87.207    487.024    553.497    487.024    492.327    487.024
104.570    574.000    552.317     21.683    486.811    547.194    486.811    491.940    486.811
104.670    606.000    547.437     58.563    486.599    542.467    486.599    491.573    486.599
104.770    566.000    543.881     22.119    486.387    539.047    486.387    491.223    486.387
104.870    532.000    541.426     -9.426    486.176    536.714    486.176    490.888    486.176
104.970    562.000    539.902     22.098    485.966    535.300    485.966    490.567    485.966
105.070    570.000    539.190     30.810    485.757    534.686    485.757    490.258    485.757
105.170    529.506    539.212     -9.707    485.548    534.796    485.548    489.961    485.548
105.270    557.000    539.954     17.046    485.341    535.615    485.341    489.674    485.341
105.370    519.000    541.421    -22.421    485.134    537.151    485.134    489.396    485.134
105.470    577.000    543.654     33.346    484.928    539.445    484.928    489.128    484.928
105.570    568.000    546.721     21.279    484.723    542.564    484.723    488.868    484.723
105.670    580.196    550.704     29.492    484.518    546.592    484.518    488.617    484.518
105.770    618.000    555.688     62.312    484.315    551.614    484.315    488.373    484.315
105.870    563.000    561.749      1.251    484.113    557.707    484.113    488.136    484.113
105.970    548.413    568.940    -20.528    483.912    564.923    483.912    487.907    483.912
106.070    660.000    577.276     82.724    483.711    573.278    483.711    487.685    483.711
106.170    608.758    586.726     22.032    483.512    582.741    483.512    487.469    483.512
106.270    554.872    597.201    -42.329    483.314    593.224    483.314    487.260    483.314
106.370    634.000    608.555     25.445    483.117    604.581    483.117    487.057    483.117
106.470    588.524    620.577    -32.052    482.921    616.600    482.921    486.860    482.921
106.570    603.000    632.997    -29.997    482.727    629.014    482.727    486.670    482.727
106.670    608.307    645.491    -37.184    482.533    641.497    482.533    486.485    482.533
106.770    608.434    657.691    -49.258    482.341    653.682    482.341    486.307    482.341
106.870    721.000    669.204     51.796    482.150    665.176    482.150    486.135    482.150
106.970    683.086    679.631      3.455    481.960    675.579    481.960    485.968    481.960
107.070    667.000    688.606    -21.606    481.772    684.527    481.772    485.808    481.772
107.170    717.000    695.838     21.162    481.585    691.728    481.585    485.653    481.585
107.270    632.000    701.161    -69.161    481.399    697.017    481.399    485.505    481.399
107.370    746.824    704.566     42.258    481.215    700.383    481.215    485.362    481.215
107.470    672.000    706.211    -34.211    481.032    701.985    481.032    485.226    481.032
107.570    656.000    706.395    -50.395    480.850    702.121    480.850    485.097    480.850
107.670    702.000    705.507     -3.507    480.670    701.181    480.670    484.973    480.670
107.770    691.000    703.968    -12.968    480.492    699.584    480.492    484.857    480.492
107.870    676.000    702.178    -26.178    480.315    697.730    480.315    484.747    480.315
107.970    690.571    700.471     -9.899    480.139    695.955    480.139    484.644    480.139
108.070    692.000    699.093     -7.093    479.966    694.503    479.966    484.548    479.966
108.170    684.000    698.181    -14.181    479.793    693.511    479.793    484.460    479.793
108.270    678.000    697.760    -19.760    479.623    693.004    479.623    484.379    479.623
108.370    715.530    697.735     17.795    479.454    692.886    479.454    484.307    479.454
108.470    724.886    697.906     26.980    479.287    692.958    479.287    484.242    479.287
108.570    683.892    697.979    -14.087    479.121    692.924    479.121    484.186    479.121
108.670    693.000    697.598     -4.598    478.958    692.430    478.958    484.139    478.958
108.770    742.000    696.385     45.615    478.796    691.095    478.796    484.102    478.796
108.870    708.908    693.989     14.918    478.636    688.569    478.636    484.074    478.636
108.970    725.000    690.144     34.856    478.478    684.585    478.478    484.056    478.478
109.070    691.000    684.710      6.290    478.321    679.003    478.321    484.050    478.321
109.170    666.775    677.688    -10.913    478.167    671.823    478.167    484.054    478.167
109.270    669.000    669.216     -0.216    478.015    663.182    478.015    484.071    478.015
109.370    635.000    659.533    -24.533    477.864    653.319    477.864    484.101    477.864
109.470    647.000    648.944     -1.944    477.716    642.538    477.716    484.144    477.716
109.570    623.000    637.779    -14.779    477.569    631.168    477.569    484.202    477.569
109.670    656.000    626.367     29.633    477.425    619.537    477.425    484.275    477.425
109.770    617.000    615.018      1.982    477.283    607.954    477.283    484.365    477.283
109.870    611.000    604.007      6.993    477.143    596.693    477.143    484.473    477.143
109.970    573.000    593.570    -20.570    477.005    585.988    477.005    484.602    477.005
110.070    604.000    583.897     20.103    476.870    576.027    476.870    484.752    476.870
110.170    615.000    575.131     39.869    476.736    566.950    476.736    484.927    476.736
110.270    545.000    567.368    -22.368    476.605    558.852    476.605    485.130    476.605
110.370    550.224    560.660    -10.436    476.477    551.780    476.477    485.363    476.477
110.470    554.000    555.017     -1.017    476.350    545.740    476.350    485.632    476.350
110.570    544.640    550.396     -5.756    476.226    540.684    476.226    485.942    476.226
110.670    559.000    546.779     12.221    476.105    536.585    476.105    486.300    476.105
110.770    543.000    544.117     -1.117    475.986    533.390    475.986    486.713    475.986
110.870    570.000    542.315     27.685    475.869    530.991    475.869    487.192    475.869
110.970    520.000    541.288    -21.288    475.755    529.292    475.755    487.749    475.755
111.070    546.000    540.958      5.042    475.643    528.199    475.643    488.399    475.643
111.170    539.957    541.249     -1.292    475.534    527.620    475.534    489.160    475.534
111.270    576.386    542.097     34.289    475.428    527.469    475.428    490.051    475.428
111.370    547.250    543.449      3.801    475.325    527.669    475.325    491.099    475.325
111.470    553.000    545.265      7.735    475.224    528.152    475.224    492.331    475.224
111.570    590.377    547.521     42.856    475.125    528.859    475.125    493.780    475.125
111.670    538.000    550.205    -12.205    475.030    529.743    475.030    495.484    475.030
111.770    596.088    553.322     42.765    474.937    530.766    474.937    497.485    474.937
111.870    575.000    556.893     18.107    474.848    531.903    474.848    499.829    474.848
111.970    563.782    560.950      2.831    474.761    533.137    474.761    502.565    474.761
112.070    558.000    565.543     -7.543    474.677    534.463    474.677    505.747    474.677
112.170    562.000    570.731     -8.731    474.596    535.888    474.596    509.430    474.596
112.270    633.000    576.585     56.415    474.518    537.425    474.518    513.669    474.518
112.370    594.000    583.183     10.817    474.443    539.098    474.443    518.518    474.443
112.470    608.786    590.609     18.178    474.371    540.940    474.371    524.030    474.371
112.570    632.439    598.950     33.489    474.302    542.992    474.302    530.250    474.302
112.670    606.000    608.298     -2.298    474.236    545.307    474.236    537.217    474.236
112.770    658.398    618.750     39.649    474.174    547.955    474.174    544.958    474.174
112.870    607.000    630.405    -23.405    474.114    551.022    474.114    553.486    474.114
112.970    608.000    643.377    -35.377    474.058    554.624    474.058    562.799    474.058
113.070    605.000    657.792    -52.792    474.006    558.910    474.006    572.875    474.006
113.170    705.111    673.803     31.309    473.956    564.077    473.956    583.668    473.956
113.270    631.000    691.593    -60.593    473.910    570.382    473.910    595.106    473.910
113.370    728.768    711.408     17.361    473.868    578.159    473.868    607.099    473.868
113.470    716.000    733.550    -17.550    473.828    587.840    473.828    619.518    473.828
113.570    728.000    758.411    -30.411    473.793    599.978    473.793    632.203    473.793
113.670    835.316    786.495     48.821    473.761    615.268    473.761    644.960    473.761
113.770    800.936    818.438    -17.502    473.732    634.578    473.732    657.558    473.732
113.870    860.591    855.037      5.554    473.707    658.970    473.707    669.733    473.707
113.970    884.000    897.271    -13.271    473.686    689.724    473.686    681.182    473.686
114.070    952.707    946.328      6.379    473.668    728.353    473.668    691.581    473.668
114.170    995.000   1003.626     -8.626    473.655    776.615    473.655    700.589    473.655
114.270   1084.000   1070.828     13.172    473.645    836.505    473.645    707.873    473.645
114.370   1162.000   1149.851     12.149    473.638    910.237    473.638    713.137    473.638
114.470   1303.000   1242.849     60.151    473.636   1000.198    473.636    716.147    473.636
114.570   1432.000   1352.184     79.816    473.638   1108.890    473.638    716.761    473.638
114.670   1518.763   1480.341     38.422    473.643   1238.835    473.643    714.946    473.643
114.770   1683.000   1629.845     53.155    473.653   1392.457    473.653    710.799    473.653
114.870   1951.000   1803.068    147.932    473.666   1571.948    473.666    704.503    473.666
114.970   2105.000   2002.068    102.932    473.684   1779.096    473.684    696.327    473.684
115.070   2325.000   2228.379     96.621    473.705   2015.118    473.705    686.589    473.705
115.170   2567.393   2482.798     84.595    473.731   2280.474    473.731    675.629    473.731
115.270   2777.000   2765.190     11.810    473.761   2574.693    473.761    663.782    473.761
115.370   3182.000   3074.313    107.687    473.796   2896.219    473.796    651.363    473.796
115.470   3510.000   3407.680    102.320    473.834   3242.286    473.834    638.657    473.834
115.570   3903.000   3761.482    141.518    473.877   3608.835    473.877    625.912    473.877
115.670   4144.530   4130.545     13.986    473.924   3990.485    473.924    613.340    473.924
115.770   4490.000   4508.367    -18.367    473.976   4380.557    473.976    601.118    473.976
115.870   4826.000   4887.205    -61.205    474.032   4771.169    474.032    589.389    474.032
115.970   5257.071   5258.234     -1.163    474.093   5153.385    474.093    578.264    474.093
116.070   5693.000   5611.769     81.231    474.158   5517.438    474.158    567.827    474.158
116.170   6051.000   5937.570    113.430    474.228   5853.035    474.228    558.134    474.228
116.270   6117.515   6225.248   -107.733    474.303   6149.751    474.303    549.219    474.303
116.370   6584.000   6464.769    119.231    474.382   6397.542    474.382    541.093    474.382
116.470   6641.000   6647.092     -6.092    474.466   6587.370    474.466    533.752    474.466
116.570   6887.000   6764.860    122.140    474.555   6711.896    474.555    527.174    474.555
116.670   6701.741   6813.089   -111.348    474.648   6766.166    474.648    521.327    474.648
116.770   6763.548   6789.686    -26.138    474.747   6748.125    474.747    516.168    474.747
116.870   6608.000   6695.678    -87.678    474.850   6658.845    474.850    511.649    474.850
116.970   6484.654   6535.080    -50.426    474.958   6502.388    474.958    507.715    474.958
117.070   6201.878   6314.444   -112.566    475.072   6285.359    475.072    504.312    475.072
117.170   5946.000   6042.213    -96.213    475.190   6016.252    475.190    501.385    475.190
117.270   5693.159   5728.012    -34.854    475.313   5704.746    475.313    498.879    475.313
117.370   5182.000   5382.008   -200.008    475.442   5361.057    475.442    496.743    475.442
117.470   4915.000   5014.360    -99.360    475.576   4995.393    475.576    494.928    475.576
117.570   4469.000   4634.803   -165.803    475.715   4617.533    475.715    493.392    475.715
117.670   4208.000   4252.315    -44.315    475.860   4236.496    475.860    492.094    475.860
117.770   3990.124   3874.879    115.246    476.009   3860.300    476.009    490.999    476.009
117.870   3541.812   3509.328     32.484    476.165   3495.813    476.165    490.076    476.165
117.970   3245.304   3161.285     84.019    476.325   3148.685    476.325    489.300    476.325
118.070   2851.438   2835.038     16.401    476.491   2823.228    476.491    488.647    476.491
118.170   2541.848   2533.641      8.208    476.663   2522.519    476.663    488.098    476.663
118.270   2289.000   2258.980     30.020    476.840   2248.461    476.840    487.638    476.840
118.370   2053.275   2011.885     41.390    477.023   2001.899    477.023    487.252    477.023
118.470   1744.000   1792.277    -48.277    477.212   1782.766    477.212    486.931    477.212
118.570   1553.000   1599.320    -46.320    477.406   1590.236    477.406    486.665    477.406
118.670   1376.769   1431.590    -54.821    477.606   1422.894    477.606    486.446    477.606
118.770   1243.735   1287.237    -43.502    477.812   1278.895    477.812    486.270    477.812
118.870   1211.733   1164.131     47.602    478.024   1156.116    478.024    486.131    478.024
118.970   1013.000   1060.007    -47.007    478.242   1052.295    478.242    486.025    478.242
119.070    973.369    972.572      0.797    478.466    965.142    478.466    485.950    478.466
119.170    885.396    899.606    -14.210    478.696    892.439    478.696    485.902    478.696
119.270    786.000    839.023    -53.023    478.932    832.102    478.932    485.881    478.932
119.370    827.000    788.920     38.080    479.174    782.229    479.174    485.884    479.174
119.470    771.000    747.604     23.396    479.422    741.129    479.422    485.911    479.422
119.570    688.000    713.596    -25.596    479.677    707.322    479.677    485.959    479.677
119.670    696.244    685.631     10.612    479.938    679.545    479.938    486.030    479.938
119.770    651.802    662.645    -10.844    480.205    656.733    480.205    486.121    480.205
119.870    665.000    643.755     21.245    480.479    638.003    480.479    486.233    480.479
119.970    628.000    628.235     -0.235    480.759    622.630    480.759    486.366    480.759
120.070    621.112    615.501      5.612    481.046    610.029    481.046    486.519    481.046
120.170    595.000    605.081    -10.081    481.339    599.729    481.339    486.692    481.339
120.270    613.000    596.602     16.398    481.639    591.357    481.639    486.886    481.639
120.370    631.000    589.768     41.232    481.946    584.615    481.946    487.101    481.946
120.470    600.000    584.345     15.655    482.259    579.271    482.259    487.337    482.259
120.570    578.000    580.152     -2.152    482.579    575.141    482.579    487.593    482.579
120.670    582.000    577.045      4.955    482.906    572.084    482.906    487.872    482.906
120.770    576.562    574.911      1.652    483.240    569.984    483.240    488.172    483.240
120.870    559.810    573.660    -13.850    483.581    568.754    483.581    488.494    483.581
120.970    576.413    573.221      3.192    483.929    568.318    483.929    488.838    483.929
121.070    562.000    573.530    -11.530    484.284    568.617    484.284    489.205    484.284
121.170    565.000    574.535     -9.535    484.646    569.596    484.646    489.594    484.646
121.270    550.000    576.184    -26.184    485.015    571.205    485.015    490.005    485.015
121.370    552.000    578.427    -26.427    485.392    573.393    485.392    490.439    485.392
121.470    553.371    581.211    -27.840    485.776    576.108    485.776    490.894    485.776
121.570    606.000    584.481     21.519    486.167    579.294    486.167    491.370    486.167
121.670    624.969    588.172     36.798    486.566    582.889    486.566    491.866    486.566
121.770    566.706    592.214    -25.508    486.972    586.824    486.972    492.382    486.972
121.870    625.250    596.531     28.719    487.385    591.024    487.385    492.916    487.385
121.970    594.000    601.037     -7.037    487.806    595.403    487.806    493.466    487.806
122.070    624.000    605.640     18.360    488.235    599.873    488.235    494.031    488.235
122.170    662.000    610.240     51.760    488.672    604.335    488.672    494.608    488.672
122.270    567.990    614.734    -46.744    489.116    608.689    489.116    495.194    489.116
122.370    600.000    619.014    -19.014    489.568    612.830    489.568    495.788    489.568
122.470    611.000    622.973    -11.973    490.028    616.655    490.028    496.385    490.028
122.570    643.000    626.508     16.492    490.496    620.063    490.496    496.982    490.496
122.670    665.000    629.526     35.474    490.972    622.964    490.972    497.576    490.972
122.770    620.000    631.945    -11.945    491.456    625.283    491.456    498.162    491.456
122.870    616.000    633.705    -17.705    491.948    626.962    491.948    498.737    491.948
122.970    682.000    634.768     47.232    492.448    627.966    492.448    499.296    492.448
123.070    667.000    635.120     31.880    492.957    628.285    492.957    499.837    492.957
123.170    629.400    634.772     -5.372    493.474    627.934    493.474    500.358    493.474
123.270    584.572    633.759    -49.188    493.999    626.949    493.999    500.855    493.999
123.370    662.943    632.133     30.809    494.532    625.381    494.532    501.329    494.532
123.470    650.315    629.959     20.355    495.075    623.297    495.075    501.780    495.075
123.570    599.000    627.311    -28.311    495.625    620.768    495.625    502.210    495.625
123.670    648.000    624.269     23.731    496.184    617.871    496.184    502.620    496.184
123.770    668.979    620.912     48.067    496.752    614.685    496.752    503.015    496.752
123.870    650.000    617.319     32.681    497.329    611.283    497.329    503.399    497.329
123.970    621.000    613.565      7.435    497.914    607.736    497.914    503.773    497.914
124.070    640.000    609.717     30.283    498.508    604.109    498.508    504.144    498.508
124.170    595.000    605.834    -10.834    499.112    600.456    499.112    504.514    499.112
124.270    584.000    601.967    -17.967    499.724    596.825    499.724    504.887    499.724
124.370    642.082    598.156     43.925    500.345    593.253    500.345    505.267    500.345
124.470    582.000    594.431    -12.431    500.975    589.767    500.975    505.655    500.975
124.570    604.975    590.813     14.162    501.615    586.386    501.615    506.056    501.615
124.670    600.000    587.315     12.685    502.263    583.121    502.263    506.470    502.263
124.770    537.301    583.944    -46.642    502.921    579.976    502.921    506.899    502.921
124.870    532.748    580.699    -47.950    503.589    576.949    503.589    507.346    503.589
124.970    563.000    577.579    -14.579    504.266    574.039    504.266    507.812    504.266
