neutron_powder_diffraction_0095
R_wp: 4.088
Temperature (K): 864.214
Counts: 83721.00
Wavelength (Ã…): 2.52098
COMMENTS
Test file for demonstrating the .xyy file format in Reel1.0
END OF HEADER
   tth       Y_obs     Y_calc      Y_res    Background    Phase_1_Nuc    Phase_1_Mag    Phase_2_Nuc    Phase_2_Mag
  9.970    589.000    549.647     39.353    548.359    549.439    548.359    548.567    548.359
 10.070    506.730    550.286    -43.556    548.906    550.077    548.906    549.114    548.906
 10.170    564.000    550.926     13.074    549.441    550.716    549.441    549.651    549.441
 10.270    595.894    551.571     44.323    549.965    551.360    549.965    550.176    549.965
 10.370    571.000    552.223     18.777    550.478    552.011    550.478    550.690    550.478
 10.470    543.000    552.887     -9.887    550.980    552.674    550.980    551.192    550.980
 10.570    592.000    553.568     38.432    551.471    553.354    551.471    551.684    551.471
 10.670    589.000    554.274     34.726    551.951    554.058    551.951    552.165    551.951
 10.770    511.404    555.013    -43.609    552.420    554.797    552.420    552.634    552.420
 10.870    514.235    555.799    -41.564    552.878    555.582    552.878    553.094    552.878
 10.970    559.829    556.649      3.179    553.325    556.431    553.325    553.542    553.325
 11.070    609.000    557.588     51.412    553.762    557.368    553.762    553.980    553.762
 11.170    597.000    558.650     38.350    554.188    558.430    554.188    554.407    554.188
 11.270    549.759    559.891    -10.132    554.604    559.669    554.604    554.824    554.604
 11.370    622.000    561.406     60.594    555.010    561.183    555.010    555.230    555.010
 11.470    574.000    563.396     10.604    555.405    563.170    555.405    555.627    555.405
 11.570    570.000    566.313      3.687    555.790    566.085    555.790    556.013    555.790
 11.670    596.205    571.136     25.068    556.165    570.905    556.165    556.389    556.165
 11.770    650.000    579.647     70.353    556.530    579.410    556.530    556.755    556.530
 11.870    601.000    594.259      6.741    556.886    594.013    556.886    557.111    556.886
 11.970    634.000    616.795     17.205    557.231    616.536    557.231    557.457    557.231
 12.070    681.000    645.912     35.088    557.566    645.636    557.566    557.793    557.566
 12.170    692.000    673.579     18.421    557.892    673.286    557.892    558.120    557.892
 12.270    646.520    684.742    -38.222    558.208    684.443    558.208    558.438    558.208
 12.370    696.272    670.793     25.480    558.515    670.500    558.515    558.745    558.515
 12.470    635.609    642.457     -6.848    558.812    642.179    558.812    559.044    558.812
 12.570    596.000    614.545    -18.545    559.100    614.282    559.100    559.333    559.100
 12.670    572.000    593.885    -21.885    559.379    593.633    559.379    559.613    559.379
 12.770    563.000    581.048    -18.048    559.649    580.802    559.649    559.883    559.649
 12.870    556.000    573.943    -17.943    559.909    573.700    559.909    560.145    559.909
 12.970    548.000    570.183    -22.183    560.161    569.941    560.161    560.397    560.161
 13.070    577.000    568.116      8.884    560.403    567.874    560.403    560.641    560.403
 13.170    531.000    566.868    -35.868    560.637    566.626    560.637    560.876    560.637
 13.270    499.000    566.047    -67.047    560.862    565.805    560.862    561.102    560.862
 13.370    534.097    565.481    -31.384    561.078    565.238    561.078    561.319    561.078
 13.470    518.000    565.083    -47.083    561.285    564.839    561.285    561.528    561.285
 13.570    555.000    564.804     -9.804    561.484    564.559    561.484    561.728    561.484
 13.670    588.626    564.611     24.014    561.675    564.365    561.675    561.919    561.675
 13.770    583.000    564.481     18.519    561.857    564.234    561.857    562.103    561.857
 13.870    566.000    564.398      1.602    562.031    564.150    562.031    562.278    562.031
 13.970    522.000    564.349    -42.349    562.196    564.100    562.196    562.445    562.196
 14.070    531.000    564.326    -33.326    562.354    564.076    562.354    562.603    562.354
 14.170    578.000    564.325     13.675    562.503    564.073    562.503    562.754    562.503
 14.270    549.000    564.336    -15.336    562.645    564.084    562.645    562.897    562.645
 14.370    571.197    564.357      6.840    562.778    564.104    562.778    563.031    562.778
 14.470    537.000    564.386    -27.386    562.904    564.131    562.904    563.158    562.904
 14.570    548.000    564.419    -16.419    563.021    564.163    563.021    563.277    563.021
 14.670    591.354    564.455     26.899    563.132    564.198    563.132    563.389    563.132
 14.770    521.000    564.493    -43.493    563.234    564.234    563.234    563.492    563.234
 14.870    539.000    564.533    -25.533    563.329    564.273    563.329    563.589    563.329
 14.970    598.000    564.594     33.406    563.416    564.333    563.416    563.677    563.416
 15.070    598.387    564.634     33.753    563.496    564.371    563.496    563.759    563.496
 15.170    532.566    564.670    -32.104    563.569    564.406    563.569    563.833    563.569
 15.270    556.000    564.702     -8.702    563.635    564.436    563.635    563.900    563.635
 15.370    588.293    564.729     23.564    563.693    564.462    563.693    563.959    563.693
 15.470    596.000    564.766     31.234    563.744    564.497    563.744    564.012    563.744
 15.570    562.000    564.894     -2.894    563.788    564.625    563.788    564.058    563.788
 15.670    517.866    564.920    -47.054    563.825    564.649    563.825    564.096    563.825
 15.770    537.000    564.930    -27.930    563.855    564.658    563.855    564.128    563.855
 15.870    559.000    564.936     -5.936    563.879    564.661    563.879    564.153    563.879
 15.970    583.000    564.936     18.064    563.895    564.660    563.895    564.171    563.895
 16.070    573.000    564.932      8.068    563.905    564.655    563.905    564.182    563.905
 16.170    559.000    564.922     -5.922    563.908    564.643    563.908    564.187    563.908
 16.270    533.256    564.908    -31.652    563.905    564.627    563.905    564.185    563.905
 16.370    516.000    564.888    -48.888    563.895    564.606    563.895    564.177    563.895
 16.470    523.000    564.863    -41.863    563.879    564.579    563.879    564.163    563.879
 16.570    546.000    564.833    -18.833    563.856    564.547    563.856    564.142    563.856
 16.670    543.000    564.797    -21.797    563.827    564.510    563.827    564.114    563.827
 16.770    505.000    564.756    -59.756    563.792    564.467    563.792    564.081    563.792
 16.870    520.000    564.710    -44.710    563.751    564.420    563.751    564.042    563.751
 16.970    561.000    564.659     -3.659    563.704    564.366    563.704    563.996    563.704
 17.070    546.000    564.602    -18.602    563.650    564.308    563.650    563.944    563.650
 17.170    614.000    564.540     49.460    563.591    564.244    563.591    563.887    563.591
 17.270    586.660    564.473     22.186    563.526    564.176    563.526    563.824    563.526
 17.370    514.000    564.404    -50.404    563.455    564.105    563.455    563.755    563.455
 17.470    553.000    564.331    -11.331    563.378    564.030    563.378    563.680    563.378
 17.570    540.000    564.252    -24.252    563.296    563.948    563.296    563.599    563.296
 17.670    549.059    564.167    -15.107    563.207    563.861    563.207    563.513    563.207
 17.770    532.000    564.074    -32.074    563.114    563.767    563.114    563.421    563.114
 17.870    540.000    563.977    -23.977    563.015    563.667    563.015    563.324    563.015
 17.970    608.983    563.874     45.109    562.910    563.563    562.910    563.222    562.910
 18.070    574.000    563.767     10.233    562.800    563.453    562.800    563.114    562.800
 18.170    589.000    563.655     25.345    562.685    563.339    562.685    563.001    562.685
 18.270    538.000    563.540    -25.540    562.564    563.222    562.564    562.882    562.564
 18.370    551.000    563.446    -12.446    562.438    563.125    562.438    562.759    562.438
 18.470    517.000    563.365    -46.365    562.308    563.043    562.308    562.630    562.308
 18.570    591.000    563.239     27.761    562.172    562.914    562.172    562.497    562.172
 18.670    578.000    563.104     14.896    562.031    562.777    562.031    562.358    562.031
 18.770    582.774    562.965     19.809    561.885    562.635    561.885    562.215    561.885
 18.870    585.429    562.821     22.608    561.734    562.489    561.734    562.066    561.734
 18.970    517.952    562.673    -44.721    561.579    562.338    561.579    561.913    561.579
 19.070    581.318    562.520     18.798    561.418    562.183    561.418    561.755    561.418
 19.170    548.000    562.365    -14.365    561.253    562.025    561.253    561.593    561.253
 19.270    564.000    562.214      1.786    561.084    561.872    561.084    561.426    561.084
 19.370    571.222    562.053      9.168    560.909    561.708    560.909    561.254    560.909
 19.470    542.000    561.898    -19.898    560.730    561.550    560.730    561.078    560.730
 19.570    517.000    561.739    -44.739    560.547    561.389    560.547    560.898    560.547
 19.670    559.000    561.564     -2.564    560.359    561.211    560.359    560.713    560.359
 19.770    523.000    561.384    -38.384    560.167    561.028    560.167    560.524    560.167
 19.870    577.000    561.202     15.798    559.971    560.843    559.971    560.331    559.971
 19.970    575.000    561.027     13.973    559.771    560.665    559.771    560.133    559.771
 20.070    522.668    560.838    -38.170    559.566    560.472    559.566    559.931    559.566
 20.170    562.000    560.643      1.357    559.357    560.275    559.357    559.726    559.357
 20.270    542.552    560.446    -17.894    559.144    560.074    559.144    559.516    559.144
 20.370    534.348    560.247    -25.898    558.927    559.872    558.927    559.302    558.927
 20.470    577.762    560.060     17.702    558.706    559.682    558.706    559.085    558.706
 20.570    575.000    559.886     15.114    558.481    559.504    558.481    558.864    558.481
 20.670    580.000    559.680     20.320    558.253    559.294    558.253    558.638    558.253
 20.770    565.000    559.468      5.532    558.020    559.079    558.020    558.410    558.020
 20.870    562.000    559.253      2.747    557.784    558.860    557.784    558.177    557.784
 20.970    547.000    559.036    -12.036    557.544    558.639    557.544    557.941    557.544
 21.070    520.465    558.817    -38.352    557.301    558.416    557.301    557.702    557.301
 21.170    590.000    558.595     31.405    557.053    558.191    557.053    557.459    557.053
 21.270    590.756    558.373     32.383    556.803    557.964    556.803    557.212    556.803
 21.370    555.000    558.159     -3.159    556.549    557.746    556.549    556.962    556.549
 21.470    515.770    557.965    -42.195    556.291    557.547    556.291    556.709    556.291
 21.570    545.000    557.756    -12.756    556.030    557.333    556.030    556.453    556.030
 21.670    531.000    557.574    -26.574    555.766    557.147    555.766    556.193    555.766
 21.770    593.272    557.379     35.893    555.499    556.947    555.499    555.931    555.499
 21.870    599.577    557.168     42.408    555.228    556.732    555.228    555.665    555.228
 21.970    571.031    556.955     14.076    554.954    556.513    554.954    555.396    554.954
 22.070    572.000    556.756     15.244    554.677    556.309    554.677    555.124    554.677
 22.170    540.600    556.531    -15.931    554.397    556.079    554.397    554.850    554.397
 22.270    543.178    556.306    -13.128    554.114    555.848    554.114    554.572    554.114
 22.370    555.000    556.089     -1.089    553.828    555.625    553.828    554.292    553.828
 22.470    542.768    555.883    -13.114    553.539    555.413    553.539    554.009    553.539
 22.570    541.007    555.673    -14.666    553.247    555.197    553.247    553.723    553.247
 22.670    545.000    555.474    -10.474    552.953    554.992    552.953    553.435    552.953
 22.770    564.000    555.273      8.727    552.655    554.785    552.655    553.144    552.655
 22.870    586.000    555.078     30.922    552.355    554.583    552.355    552.851    552.355
 22.970    562.000    554.894      7.106    552.053    554.392    552.053    552.555    552.053
 23.070    553.000    554.725     -1.725    551.747    554.216    551.747    552.257    551.747
 23.170    560.000    554.572      5.428    551.439    554.056    551.439    551.957    551.439
 23.270    517.332    554.441    -37.109    551.129    553.917    551.129    551.654    551.129
 23.370    591.000    554.338     36.662    550.816    553.806    550.816    551.349    550.816
 23.470    515.259    554.271    -39.013    550.500    553.731    550.500    551.042    550.500
 23.570    557.000    554.253      2.747    550.183    553.704    550.183    550.733    550.183
 23.670    554.000    554.298     -0.298    549.862    553.740    549.862    550.422    549.862
 23.770    559.584    554.429      5.155    549.540    553.862    549.540    550.109    549.540
 23.870    525.098    554.682    -29.584    549.215    554.106    549.215    549.795    549.215
 23.970    552.000    555.122     -3.122    548.888    554.535    548.888    549.478    548.888
 24.070    583.000    555.864     27.136    548.559    555.267    548.559    549.160    548.559
 24.170    582.000    557.184     24.816    548.228    556.577    548.228    548.840    548.228
 24.270    533.413    559.681    -26.268    547.895    559.064    547.895    548.519    547.895
 24.370    583.000    564.445     18.555    547.560    563.819    547.560    548.196    547.560
 24.470    561.588    572.991    -11.403    547.222    572.358    547.222    547.871    547.222
 24.570    629.240    586.586     42.654    546.883    585.950    546.883    547.546    546.883
 24.670    656.000    604.792     51.208    546.542    604.155    546.542    547.219    546.542
 24.770    634.000    623.286     10.714    546.199    622.648    546.199    546.891    546.199
 24.870    599.000    632.867    -33.867    545.854    632.219    545.854    546.562    545.854
 24.970    680.000    626.580     53.420    545.508    625.911    545.508    546.232    545.508
 25.070    632.000    609.056     22.944    545.159    608.358    545.159    545.902    545.159
 25.170    633.723    589.720     44.003    544.809    588.989    544.809    545.570    544.809
 25.270    531.170    574.198    -43.028    544.458    573.437    544.458    545.238    544.458
 25.370    519.000    563.801    -44.801    544.105    563.012    544.105    544.906    544.105
 25.470    527.585    557.587    -30.002    543.750    556.771    543.750    544.573    543.750
 25.570    522.000    554.035    -32.035    543.393    553.193    543.393    544.240    543.393
 25.670    596.000    551.924     44.076    543.036    551.057    543.036    543.907    543.036
 25.770    533.505    550.540    -17.035    542.676    549.645    542.676    543.574    542.676
 25.870    535.119    549.532    -14.413    542.316    548.608    542.316    543.242    542.316
 25.970    570.000    548.746     21.254    541.954    547.792    541.954    542.910    541.954
 26.070    563.214    548.112     15.102    541.590    547.125    541.590    542.579    541.590
 26.170    561.000    547.591     13.409    541.226    546.570    541.226    542.248    541.226
 26.270    503.845    547.162    -43.317    540.860    546.104    540.860    541.919    540.860
 26.370    564.000    546.812     17.188    540.493    545.713    540.493    541.592    540.493
 26.470    522.220    546.533    -24.312    540.125    545.392    540.125    541.266    540.125
 26.570    581.000    546.323     34.677    539.755    545.136    539.755    540.943    539.755
 26.670    586.861    546.184     40.677    539.385    544.947    539.385    540.622    539.385
 26.770    562.182    546.120     16.062    539.013    544.829    539.013    540.304    539.013
 26.870    510.338    546.142    -35.804    538.640    544.793    538.640    539.990    538.640
 26.970    564.654    546.266     18.389    538.267    544.853    538.267    539.680    538.267
 27.070    560.964    546.514     14.450    537.892    545.032    537.892    539.375    537.892
 27.170    503.620    546.919    -43.299    537.517    545.361    537.517    539.075    537.517
 27.270    532.733    547.532    -14.799    537.141    545.891    537.141    538.781    537.141
 27.370    563.000    548.426     14.574    536.764    546.694    536.764    538.494    536.764
 27.470    514.693    549.734    -35.042    536.386    547.903    536.386    538.215    536.386
 27.570    577.928    551.777     26.152    536.007    549.836    536.007    537.946    536.007
 27.670    559.000    555.553      3.447    535.627    553.492    535.627    537.686    535.627
 27.770    566.000    564.176      1.824    535.247    561.979    535.247    537.438    535.247
 27.870    563.267    585.355    -22.088    534.867    583.004    534.867    537.203    534.867
 27.970    607.667    632.160    -24.493    534.485    629.632    534.485    536.982    534.485
 28.070    756.156    715.400     40.756    534.103    712.671    534.103    536.778    534.103
 28.170    856.853    825.168     31.685    533.720    822.222    533.720    536.590    533.720
 28.270    922.000    916.470      5.530    533.337    913.306    533.337    536.422    533.337
 28.370    940.000    932.221      7.779    532.954    928.841    532.954    536.275    532.954
 28.470    849.000    865.379    -16.379    532.570    861.766    532.570    536.150    532.570
 28.570    809.292    774.106     35.185    532.185    770.227    532.185    536.048    532.185
 28.670    745.349    719.187     26.162    531.800    715.004    531.800    535.969    531.800
 28.770    696.000    722.546    -26.546    531.415    718.032    531.415    535.912    531.415
 28.870    822.282    767.637     54.645    531.029    762.774    531.029    535.875    531.029
 28.970    809.066    813.013     -3.947    530.643    807.793    530.643    535.854    530.643
 29.070    797.000    815.755    -18.755    530.257    810.176    530.257    535.841    530.257
 29.170    766.000    766.531     -0.531    529.871    760.588    529.871    535.828    529.871
 29.270    703.835    694.828      9.007    529.484    688.527    529.484    535.800    529.484
 29.370    644.561    632.015     12.546    529.097    625.382    529.097    535.741    529.097
 29.470    655.000    590.513     64.487    528.710    583.595    528.710    535.635    528.710
 29.570    612.000    568.021     43.979    528.323    560.884    528.323    535.463    528.323
 29.670    517.230    557.158    -39.928    527.936    549.884    527.936    535.211    527.936
 29.770    592.000    551.831     40.169    527.549    544.512    527.549    534.868    527.549
 29.870    614.000    548.787     65.213    527.162    541.518    527.162    534.431    527.162
 29.970    635.000    546.712     88.288    526.774    539.582    526.774    533.904    526.774
 30.070    534.000    545.159    -11.159    526.387    538.248    526.387    533.298    526.387
 30.170    524.939    544.013    -19.074    526.000    537.383    526.000    532.629    526.000
 30.270    527.194    543.329    -16.136    525.613    537.027    525.613    531.914    525.613
 30.370    584.000    543.400     40.600    525.226    537.452    525.226    531.171    525.226
 30.470    533.371    544.923    -11.553    524.839    539.342    524.839    530.416    524.839
 30.570    583.441    549.137     34.304    524.453    543.919    524.453    529.661    524.453
 30.670    579.000    557.533     21.467    524.066    552.666    524.066    528.917    524.066
 30.770    603.000    570.794     32.206    523.680    566.259    523.680    528.189    523.680
 30.870    638.000    587.055     50.945    523.294    582.831    523.294    527.482    523.294
 30.970    605.927    600.509      5.418    522.908    596.576    522.908    526.798    522.908
 31.070    586.681    603.293    -16.612    522.523    599.635    522.523    526.139    522.523
 31.170    622.000    592.807     29.193    522.138    589.409    522.138    525.503    522.138
 31.270    613.000    575.340     37.660    521.753    572.181    521.753    524.889    521.753
 31.370    620.000    558.575     61.425    521.369    555.632    521.369    524.297    521.369
 31.470    571.000    546.250     24.750    520.985    543.501    520.985    523.725    520.985
 31.570    565.000    538.656     26.344    520.601    536.081    520.601    523.172    520.601
 31.670    549.158    534.467     14.691    520.218    532.048    520.218    522.635    520.218
 31.770    532.824    532.209      0.615    519.836    529.929    519.836    522.114    519.836
 31.870    512.875    530.898    -18.023    519.454    528.744    519.454    521.607    519.454
 31.970    511.000    530.046    -19.046    519.073    528.005    519.073    521.112    519.073
 32.070    540.369    529.452     10.917    518.692    527.514    518.692    520.628    518.692
 32.170    535.000    529.043      5.957    518.311    527.198    518.311    520.155    518.311
 32.270    523.294    528.791     -5.496    517.932    527.030    517.932    519.691    517.932
 32.370    501.542    528.689    -27.147    517.553    527.005    517.553    519.236    517.553
 32.470    550.000    528.743     21.257    517.174    527.128    517.174    518.788    517.174
 32.570    548.914    528.968     19.946    516.796    527.416    516.796    518.348    516.796
 32.670    498.955    529.390    -30.435    516.419    527.896    516.419    517.913    516.419
 32.770    529.000    530.050     -1.050    516.043    528.608    516.043    517.485    516.043
 32.870    545.000    531.007     13.993    515.668    529.612    515.668    517.061    515.668
 32.970    519.000    532.346    -13.346    515.293    530.995    515.293    516.643    515.293
 33.070    522.000    534.199    -12.199    514.919    532.888    514.919    516.229    514.919
 33.170    526.059    536.796    -10.737    514.546    535.521    514.546    515.819    514.546
 33.270    551.000    540.604     10.396    514.173    539.362    514.173    515.413    514.173
 33.370    536.000    546.696    -10.696    513.802    545.484    513.802    515.010    513.802
 33.470    590.000    557.498     32.502    513.431    556.311    513.431    514.611    513.431
 33.570    563.161    577.832    -14.671    513.061    576.667    513.061    514.215    513.061
 33.670    608.000    615.383     -7.383    512.692    614.236    512.692    513.823    512.692
 33.770    672.000    678.795     -6.795    512.325    677.660    512.325    513.433    512.325
 33.870    758.173    771.930    -13.758    511.958    770.806    511.958    513.045    511.958
 33.970    845.000    884.987    -39.987    511.592    883.877    511.592    512.661    511.592
 34.070    998.000    985.850     12.150    511.227    984.763    511.227    512.278    511.227
 34.170    998.000   1024.439    -26.439    510.863   1023.383    510.863    511.899    510.863
 34.270    992.385    974.304     18.080    510.500    973.278    510.500    511.521    510.500
 34.370    846.000    867.766    -21.766    510.138    866.761    510.138    511.146    510.138
 34.470    802.000    754.889     47.111    509.777    753.899    509.777    510.773    509.777
 34.570    634.000    664.698    -30.698    509.418    663.718    509.418    510.402    509.418
 34.670    591.000    604.470    -13.470    509.059    603.499    509.059    510.033    509.059
 34.770    594.177    569.122     25.054    508.702    568.159    508.702    509.666    508.702
 34.870    548.000    549.810     -1.810    508.346    548.855    508.346    509.301    508.346
 34.970    501.000    539.157    -38.157    507.990    538.209    507.990    508.938    507.990
 35.070    501.663    532.718    -31.055    507.637    531.777    507.637    508.577    507.637
 35.170    511.000    528.325    -17.325    507.284    527.390    507.284    508.218    507.284
 35.270    533.000    525.033      7.967    506.932    524.105    506.932    507.861    506.932
 35.370    511.000    522.430    -11.430    506.582    521.506    506.582    507.505    506.582
 35.470    520.165    520.304     -0.139    506.233    519.385    506.233    507.152    506.233
 35.570    538.863    518.531     20.332    505.885    517.616    505.885    506.800    505.885
 35.670    548.000    517.026     30.974    505.539    516.115    505.539    506.450    505.539
 35.770    513.000    515.729     -2.729    505.194    514.821    505.194    506.102    505.194
 35.870    535.000    514.597     20.403    504.850    513.692    504.850    505.756    504.850
 35.970    486.000    513.598    -27.598    504.508    512.694    504.508    505.411    504.508
 36.070    506.000    512.706     -6.706    504.167    511.804    504.167    505.068    504.167
 36.170    498.843    511.904    -13.062    503.827    511.004    503.827    504.728    503.827
 36.270    516.000    511.179      4.821    503.488    510.279    503.488    504.388    503.488
 36.370    497.833    510.519    -12.687    503.151    509.620    503.151    504.051    503.151
 36.470    545.000    509.919     35.081    502.816    509.020    502.816    503.715    502.816
 36.570    515.000    509.373      5.627    502.482    508.473    502.482    503.382    502.482
 36.670    518.000    508.880      9.120    502.149    507.980    502.149    503.050    502.149
 36.770    527.000    508.442     18.558    501.818    507.541    501.818    502.719    501.818
 36.870    552.275    508.069     44.206    501.488    507.167    501.488    502.391    501.488
 36.970    446.000    507.789    -61.789    501.160    506.885    501.160    502.064    501.160
 37.070    498.000    507.659     -9.659    500.833    506.753    500.833    501.739    500.833
 37.170    490.000    507.787    -17.787    500.508    506.879    500.508    501.416    500.508
 37.270    509.000    508.342      0.658    500.184    507.431    500.184    501.095    500.184
 37.370    482.000    509.522    -27.522    499.862    508.609    499.862    500.776    499.862
 37.470    530.596    511.467     19.129    499.541    510.552    499.541    500.458    499.541
 37.570    484.000    514.102    -30.102    499.222    513.184    499.222    500.143    499.222
 37.670    475.000    516.938    -41.938    498.904    516.017    498.904    499.829    498.904
 37.770    509.000    518.982     -9.982    498.588    518.059    498.588    499.517    498.588
 37.870    508.693    519.196    -10.503    498.274    518.270    498.274    499.207    498.274
 37.970    505.000    517.436    -12.436    497.961    516.509    497.961    498.899    497.961
 38.070    509.000    514.532     -5.532    497.650    513.601    497.650    498.592    497.650
 38.170    537.000    511.364     25.636    497.341    510.428    497.341    498.288    497.341
 38.270    495.000    508.432    -13.432    497.033    507.489    497.033    497.986    497.033
 38.370    495.000    506.002    -11.002    496.727    505.052    496.727    497.685    496.727
 38.470    487.000    504.159    -17.159    496.422    503.201    496.422    497.387    496.422
 38.570    494.671    502.831     -8.160    496.120    501.864    496.120    497.090    496.120
 38.670    487.000    501.882    -14.882    495.818    500.907    495.818    496.795    495.818
 38.770    493.179    501.184     -8.005    495.519    500.203    495.519    496.502    495.519
 38.870    517.000    500.642     16.358    495.221    499.653    495.221    496.212    495.221
 38.970    507.000    500.192      6.808    494.925    499.195    494.925    495.923    494.925
 39.070    453.000    499.797    -46.797    494.631    498.793    494.631    495.636    494.631
 39.170    466.530    499.438    -32.908    494.339    498.425    494.339    495.352    494.339
 39.270    497.512    499.103     -1.592    494.048    498.083    494.048    495.069    494.048
 39.370    475.000    498.789    -23.789    493.759    497.760    493.759    494.788    493.759
 39.470    466.000    498.490    -32.490    493.472    497.452    493.472    494.510    493.472
 39.570    495.580    498.201     -2.620    493.186    497.154    493.186    494.233    493.186
 39.670    485.000    497.930    -12.930    492.902    496.874    492.902    493.959    492.902
 39.770    461.000    497.672    -36.672    492.621    496.606    492.621    493.687    492.621
 39.870    502.538    497.426      5.113    492.341    496.350    492.341    493.417    492.341
 39.970    531.737    497.191     34.546    492.062    496.106    492.062    493.149    492.062
 40.070    490.574    496.969     -6.395    491.786    495.873    491.786    492.883    491.786
 40.170    467.562    496.759    -29.196    491.511    495.652    491.511    492.619    491.511
 40.270    510.810    496.561     14.249    491.238    495.443    491.238    492.358    491.238
 40.370    488.058    496.378     -8.319    490.968    495.247    490.968    492.098    490.968
 40.470    440.000    496.209    -56.209    490.698    495.067    490.698    491.841    490.698
 40.570    468.000    496.056    -28.056    490.431    494.902    490.431    491.587    490.431
 40.670    467.000    495.922    -28.922    490.166    494.755    490.166    491.334    490.166
 40.770    513.000    495.809     17.191    489.902    494.629    489.902    491.084    489.902
 40.870    486.000    495.720     -9.720    489.641    494.526    489.641    490.836    489.641
 40.970    496.000    495.659      0.341    489.381    494.452    489.381    490.590    489.381
 41.070    464.000    495.632    -31.632    489.123    494.410    489.123    490.347    489.123
 41.170    475.000    495.645    -20.645    488.867    494.408    488.867    490.106    488.867
 41.270    498.000    495.707      2.293    488.613    494.454    488.613    489.867    488.613
 41.370    510.040    495.830     14.210    488.361    494.562    488.361    489.631    488.361
 41.470    480.000    496.031    -16.031    488.111    494.746    488.111    489.398    488.111
 41.570    473.618    496.334    -22.716    487.863    495.033    487.863    489.166    487.863
 41.670    498.089    496.780      1.309    487.616    495.461    487.616    488.938    487.616
 41.770    468.000    497.446    -29.446    487.372    496.109    487.372    488.711    487.372
 41.870    476.000    498.488    -22.488    487.130    497.134    487.130    488.488    487.130
 41.970    456.990    500.225    -43.235    486.889    498.852    486.889    488.266    486.889
 42.070    483.000    503.251    -20.251    486.651    501.860    486.651    488.048    486.651
 42.170    536.270    508.525     27.745    486.414    507.115    486.414    487.832    486.414
 42.270    542.966    517.306     25.659    486.179    515.880    486.179    487.619    486.179
 42.370    534.000    530.787      3.213    485.947    529.344    485.947    487.408    485.947
 42.470    522.000    549.350    -27.350    485.716    547.894    485.716    487.200    485.716
 42.570    566.000    571.572     -5.572    485.487    570.105    485.487    486.995    485.487
 42.670    591.000    593.186     -2.186    485.260    591.706    485.260    486.793    485.260
 42.770    579.000    607.107    -28.107    485.035    605.612    485.035    486.594    485.035
 42.870    569.000    606.991    -37.991    484.813    605.471    484.813    486.397    484.813
 42.970    561.000    592.819    -31.819    484.592    591.266    484.592    486.204    484.592
 43.070    538.000    570.920    -32.920    484.373    569.329    484.373    486.013    484.373
 43.170    513.000    548.391    -35.391    484.156    546.757    484.156    485.826    484.156
 43.270    504.000    529.510    -25.510    483.941    527.835    483.941    485.641    483.941
 43.370    520.278    515.713      4.565    483.728    513.998    483.728    485.460    483.728
 43.470    511.000    506.620      4.380    483.518    504.866    483.518    485.283    483.518
 43.570    473.884    501.043    -27.159    483.309    499.250    483.309    485.108    483.309
 43.670    440.000    497.719    -57.719    483.102    495.889    483.102    484.937    483.102
 43.770    509.000    495.690     13.310    482.897    493.821    482.897    484.770    482.897
 43.870    478.744    494.360    -15.616    482.694    492.451    482.694    484.606    482.694
 43.970    478.000    493.410    -15.410    482.493    491.461    482.493    484.445    482.493
 44.070    509.000    492.683     16.317    482.294    490.691    482.294    484.289    482.294
 44.170    485.000    492.104     -7.104    482.098    490.067    482.098    484.136    482.098
 44.270    511.000    491.631     19.369    481.903    489.548    481.903    483.988    481.903
 44.370    472.691    491.240    -18.549    481.710    489.108    481.710    483.843    481.710
 44.470    477.000    490.915    -13.915    481.519    488.733    481.519    483.703    481.519
 44.570    449.164    490.645    -41.481    481.330    488.409    481.330    483.567    481.330
 44.670    485.000    490.421     -5.421    481.144    488.129    481.144    483.436    481.144
 44.770    511.183    490.237     20.946    480.959    487.887    480.959    483.310    480.959
 44.870    450.000    490.088    -40.088    480.776    487.677    480.776    483.189    480.776
 44.970    527.876    489.971     37.905    480.596    487.495    480.596    483.073    480.596
 45.070    483.000    489.884     -6.884    480.417    487.340    480.417    482.962    480.417
 45.170    511.000    489.825     21.175    480.240    487.209    480.240    482.857    480.240
 45.270    542.000    489.793     52.207    480.066    487.101    480.066    482.758    480.066
 45.370    498.000    489.787      8.213    479.893    487.015    479.893    482.666    479.893
 45.470    511.000    489.808     21.192    479.723    486.952    479.723    482.580    479.723
 45.570    494.000    489.856      4.144    479.554    486.910    479.554    482.501    479.554
 45.670    496.000    489.932      6.068    479.388    486.890    479.388    482.430    479.388
 45.770    515.000    490.037     24.963    479.223    486.894    479.223    482.366    479.223
 45.870    472.000    490.173    -18.173    479.061    486.923    479.061    482.311    479.061
 45.970    471.200    490.343    -19.143    478.900    486.979    478.900    482.265    478.900
 46.070    505.000    490.551     14.449    478.742    487.064    478.742    482.229    478.742
 46.170    515.234    490.800     24.435    478.585    487.182    478.585    482.203    478.585
 46.270    462.014    491.095    -29.081    478.431    487.337    478.431    482.189    478.431
 46.370    501.000    491.443      9.557    478.278    487.535    478.278    482.187    478.278
 46.470    490.000    491.852     -1.852    478.128    487.783    478.128    482.198    478.128
 46.570    492.000    492.334     -0.334    477.980    488.090    477.980    482.223    477.980
 46.670    483.000    492.903     -9.903    477.833    488.471    477.833    482.265    477.833
 46.770    546.000    493.584     52.416    477.689    488.948    477.689    482.324    477.689
 46.870    479.000    494.417    -15.417    477.547    489.560    477.547    482.402    477.547
 46.970    465.000    495.480    -30.480    477.406    490.383    477.406    482.502    477.406
 47.070    527.000    496.919     30.081    477.268    491.561    477.268    482.624    477.268
 47.170    515.000    499.002     15.998    477.131    493.357    477.131    482.773    477.131
 47.270    512.427    502.161     10.267    476.997    496.202    476.997    482.950    476.997
 47.370    507.000    506.995      0.005    476.865    500.692    476.865    483.160    476.865
 47.470    511.000    514.177     -3.177    476.734    507.494    476.734    483.404    476.734
 47.570    532.000    524.198      7.802    476.606    517.096    476.606    483.688    476.606
 47.670    585.000    536.994     48.006    476.479    529.430    476.479    484.015    476.479
 47.770    523.758    551.497    -27.738    476.355    543.424    476.355    484.390    476.355
 47.870    576.000    565.240     10.760    476.233    556.609    476.233    484.818    476.233
 47.970    608.000    574.534     33.466    476.112    565.291    476.112    485.304    476.112
 48.070    582.000    576.209      5.791    475.993    566.299    475.993    485.854    475.993
 48.170    579.695    570.162      9.533    475.877    559.523    475.877    486.474    475.877
 48.270    585.765    559.484     26.280    475.762    548.046    475.762    487.168    475.762
 48.370    521.000    547.962    -26.962    475.650    535.646    475.650    487.942    475.650
 48.470    557.000    538.204     18.796    475.539    524.929    475.539    488.799    475.539
 48.570    486.188    531.408    -45.220    475.430    517.086    475.430    489.742    475.430
 48.670    533.000    527.745      5.255    475.323    512.291    475.323    490.771    475.323
 48.770    534.003    526.812      7.191    475.219    510.146    475.219    491.882    475.219
 48.870    513.538    528.032    -14.494    475.116    510.081    475.116    493.065    475.116
 48.970    488.000    530.922    -42.922    475.015    511.633    475.015    494.303    475.015
 49.070    522.179    535.225    -13.046    474.916    514.570    474.916    495.572    474.916
 49.170    528.000    541.049    -13.049    474.818    519.036    474.818    496.833    474.818
 49.270    584.624    549.145     35.479    474.723    525.829    474.723    498.039    474.723
 49.370    577.814    561.628     16.185    474.630    537.124    474.630    499.133    474.630
 49.470    588.452    583.440      5.012    474.538    557.923    474.538    500.049    474.538
 49.570    654.000    624.509     29.491    474.449    598.218    474.449    500.723    474.449
 49.670    673.000    701.590    -28.590    474.361    674.814    474.361    501.103    474.361
 49.770    793.690    837.231    -43.541    474.275    810.294    474.275    501.152    474.275
 49.870   1110.978   1052.672     58.306    474.192   1025.911    474.192    500.863    474.192
 49.970   1297.111   1353.770    -56.659    474.110   1327.514    474.110    500.256    474.110
 50.070   1657.184   1714.418    -57.235    474.030   1688.969    474.030    499.374    474.030
 50.170   2090.000   2066.796     23.204    473.951   2042.411    473.951    498.277    473.951
 50.270   2378.480   2310.474     68.006    473.875   2287.348    473.875    497.030    473.875
 50.370   2338.000   2354.216    -16.216    473.800   2332.452    473.800    495.697    473.800
 50.470   2184.000   2178.830      5.170    473.728   2158.431    473.728    494.330    473.728
 50.570   1956.000   1854.975    101.025    473.657   1835.882    473.657    492.974    473.657
 50.670   1470.000   1488.421    -18.421    473.588   1470.549    473.588    491.661    473.588
 50.770   1138.000   1163.026    -25.026    473.521   1146.293    473.521    490.412    473.521
 50.870    879.000    920.662    -41.662    473.455    904.990    473.455    489.240    473.455
 50.970    730.000    765.440    -35.440    473.392    750.757    473.392    488.154    473.392
 51.070    651.294    678.756    -27.462    473.330    664.988    473.330    487.155    473.330
 51.170    596.000    635.139    -39.139    473.270    622.214    473.270    486.242    473.270
 51.270    619.000    612.615      6.385    473.212    600.456    473.212    485.413    473.212
 51.370    644.000    597.133     46.867    473.156    585.664    473.156    484.663    473.156
 51.470    588.000    582.736      5.264    473.101    571.883    473.101    483.986    473.101
 51.570    563.708    568.642     -4.934    473.048    558.339    473.048    483.379    473.048
 51.670    573.343    555.849     17.494    472.997    546.034    472.997    482.834    472.997
 51.770    580.000    545.294     34.706    472.948    535.911    472.948    482.347    472.948
 51.870    526.000    537.379    -11.379    472.901    528.379    472.901    481.913    472.901
 51.970    577.447    532.030     45.417    472.855    523.368    472.855    481.527    472.855
 52.070    563.448    528.892     34.556    472.811    520.526    472.811    481.185    472.811
 52.170    549.000    527.540     21.460    472.768    519.432    472.768    480.883    472.768
 52.270    544.000    527.645     16.355    472.728    519.762    472.728    480.617    472.728
 52.370    521.000    529.082     -8.082    472.689    521.392    472.689    480.384    472.689
 52.470    503.026    531.989    -28.962    472.652    524.463    472.652    480.182    472.652
 52.570    591.000    536.918     54.082    472.616    529.531    472.616    480.008    472.616
 52.670    508.559    545.050    -36.491    472.582    537.777    472.582    479.860    472.582
 52.770    528.000    558.483    -30.483    472.550    551.302    472.550    479.736    472.550
 52.870    597.000    580.480     16.520    472.520    573.371    472.520    479.634    472.520
 52.970    567.028    615.368    -48.340    472.491    608.312    472.491    479.553    472.491
 53.070    641.117    667.809    -26.693    472.464    660.788    472.464    479.492    472.464
 53.170    711.000    741.233    -30.233    472.438    734.230    472.438    479.450    472.438
 53.270    840.736    835.584      5.151    472.414    828.585    472.414    479.426    472.414
 53.370    983.797    944.809     38.988    472.392    937.799    472.392    479.419    472.392
 53.470   1107.000   1054.445     52.555    472.372   1047.413    472.372    479.429    472.372
 53.570   1126.000   1140.641    -14.641    472.353   1133.573    472.353    479.456    472.353
 53.670   1166.000   1176.045    -10.045    472.335   1168.926    472.335    479.499    472.335
 53.770   1108.311   1146.882    -38.571    472.319   1139.697    472.319    479.559    472.319
 53.870   1062.000   1065.084     -3.084    472.305   1057.811    472.305    479.635    472.305
 53.970    929.000    957.499    -28.499    472.292    950.117    472.292    479.727    472.292
 54.070    866.700    848.561     18.138    472.281    841.052    472.281    479.835    472.281
 54.170    799.058    753.554     45.504    472.271    745.901    472.271    479.961    472.271
 54.270    629.000    679.205    -50.205    472.263    671.392    472.263    480.104    472.263
 54.370    630.000    626.017      3.983    472.257    618.029    472.257    480.264    472.257
 54.470    623.000    590.788     32.212    472.252    582.611    472.252    480.443    472.252
 54.570    553.554    568.909    -15.355    472.248    560.527    472.248    480.642    472.248
 54.670    556.366    555.996      0.371    472.246    547.390    472.246    480.860    472.246
 54.770    515.732    548.691    -32.959    472.246    539.844    472.246    481.100    472.246
 54.870    558.000    544.793     13.207    472.247    535.684    472.247    481.363    472.247
 54.970    603.000    543.023     59.977    472.249    533.630    472.249    481.649    472.249
 55.070    495.832    542.714    -46.883    472.253    533.013    472.253    481.960    472.253
 55.170    593.000    543.555     49.445    472.258    533.520    472.258    482.299    472.258
 55.270    553.338    545.432      7.906    472.265    535.035    472.265    482.668    472.265
 55.370    497.000    548.347    -51.347    472.273    537.559    472.273    483.068    472.273
 55.470    545.000    552.400     -7.400    472.283    541.187    472.283    483.502    472.283
 55.570    610.000    557.814     52.186    472.294    546.140    472.294    483.974    472.294
 55.670    569.919    565.038      4.881    472.307    552.864    472.307    484.487    472.307
 55.770    544.032    574.958    -30.926    472.320    562.240    472.320    485.044    472.320
 55.870    588.000    589.308     -1.308    472.336    575.997    472.336    485.652    472.336
 55.970    611.000    611.305     -0.305    472.352    597.348    472.352    486.313    472.352
 56.070    687.000    646.481     40.519    472.370    631.817    472.370    487.035    472.370
 56.170    671.000    703.389    -32.389    472.389    687.951    472.389    487.823    472.389
 56.270    782.666    793.593    -10.927    472.410    777.308    472.410    488.685    472.410
 56.370    886.000    930.124    -44.124    472.432    912.912    472.432    489.629    472.432
 56.470   1126.000   1123.810      2.190    472.455   1105.585    472.455    490.663    472.455
 56.570   1366.489   1377.694    -11.204    472.479   1358.365    472.479    491.799    472.479
 56.670   1627.000   1680.716    -53.716    472.505   1660.187    472.505    493.046    472.505
 56.770   1945.000   2002.314    -57.314    472.532   1980.484    472.532    494.417    472.532
 56.870   2365.654   2290.187     75.467    472.561   2266.942    472.561    495.925    472.561
 56.970   2433.343   2477.365    -44.022    472.590   2452.571    472.590    497.583    472.590
 57.070   2480.559   2507.852    -27.293    472.621   2481.339    472.621    499.408    472.621
 57.170   2424.000   2371.792     52.208    472.653   2343.347    472.653    501.414    472.653
 57.270   2140.205   2113.462     26.743    472.686   2082.846    472.686    503.619    472.686
 57.370   1729.562   1800.788    -71.226    472.721   1767.754    472.721    506.039    472.721
 57.470   1520.000   1492.719     27.281    472.756   1457.018    472.756    508.691    472.756
 57.570   1184.213   1226.916    -42.703    472.793   1188.297    472.793    511.592    472.793
 57.670   1016.000   1020.313     -4.313    472.831    978.519    472.831    514.754    472.831
 57.770    852.000    873.972    -21.972    472.870    828.741    472.870    518.191    472.870
 57.870    795.000    779.407     15.593    472.910    730.470    472.910    521.908    472.910
 57.970    721.770    724.749     -2.979    472.952    671.837    472.952    525.903    472.952
 58.070    727.000    699.293     27.707    472.994    642.147    472.994    530.165    472.994
 58.170    683.000    695.766    -12.766    473.038    634.150    473.038    534.667    473.038
 58.270    735.000    710.565     24.435    473.083    644.290    473.083    539.362    473.083
 58.370    742.000    742.667     -0.667    473.129    671.612    473.129    544.179    473.129
 58.470    825.000    791.925     33.075    473.176    716.071    473.176    549.019    473.176
 58.570    824.652    857.317    -32.664    473.223    776.775    473.223    553.749    473.223
 58.670    902.000    935.480    -33.480    473.272    850.528    473.272    558.209    473.272
 58.770    963.000   1019.910    -56.910    473.323    931.010    473.323    562.213    473.323
 58.870   1068.000   1101.731    -33.731    473.374   1009.541    473.374    565.567    473.374
 58.970   1183.000   1172.489     10.511    473.426   1077.848    473.426    568.084    473.426
 59.070   1178.238   1225.991    -47.753    473.479   1129.891    473.479    569.613    473.479
 59.170   1275.000   1256.914     18.086    473.533   1160.441    473.533    570.056    473.533
 59.270   1307.000   1260.934     46.066    473.588   1165.195    473.588    569.388    473.588
 59.370   1275.000   1239.496     35.504    473.644   1145.541    473.644    567.659    473.644
 59.470   1192.620   1202.688    -10.068    473.701   1111.447    473.701    564.987    473.701
 59.570   1103.087   1164.823    -61.737    473.758   1077.065    473.758    561.536    473.758
 59.670   1091.106   1138.627    -47.521    473.817   1054.928    473.817    557.500    473.817
 59.770   1187.977   1133.644     54.333    473.877   1054.392    473.877    553.071    473.877
 59.870   1225.000   1156.871     68.129    473.937   1082.277    473.937    548.429    473.937
 59.970   1222.000   1211.501     10.499    473.999   1141.627    473.999    543.727    473.999
 60.070   1288.000   1293.424     -5.424    474.061   1228.214    474.061    539.084    474.061
 60.170   1435.000   1388.620     46.380    474.124   1327.937    474.124    534.592    474.124
 60.270   1406.674   1473.605    -66.931    474.188   1417.256    474.188    530.314    474.188
 60.370   1566.211   1520.255     45.956    474.253   1468.012    474.253    526.288    474.253
 60.470   1538.885   1506.591     32.294    474.319   1458.202    474.319    522.537    474.319
 60.570   1364.249   1428.929    -64.680    474.385   1384.119    474.385    519.068    474.385
 60.670   1320.000   1303.667     16.333    474.452   1262.155    474.452    515.881    474.452
 60.770   1170.511   1156.660     13.851    474.520   1118.165    474.520    512.967    474.520
 60.870    995.000   1011.737    -16.737    474.589    975.988    474.589    510.313    474.589
 60.970    932.000    885.473     46.527    474.659    852.215    474.659    507.905    474.659
 61.070    767.000    786.511    -19.511    474.729    755.510    474.729    505.725    474.729
 61.170    757.000    717.034     39.966    474.800    688.074    474.800    503.755    474.800
 61.270    719.000    675.296     43.704    474.872    648.181    474.872    501.978    474.872
 61.370    673.000    658.372     14.628    474.944    632.924    474.944    500.376    474.944
 61.470    709.405    664.254     45.151    475.017    640.312    475.017    498.932    475.017
 61.570    717.000    692.724     24.276    475.091    670.145    475.091    497.629    475.091
 61.670    737.771    744.885     -7.114    475.165    723.540    475.165    496.451    475.165
 61.770    774.000    821.587    -47.587    475.240    801.366    475.240    495.383    475.240
 61.870    961.541    921.266     40.275    475.316    902.072    475.316    494.412    475.316
 61.970   1070.000   1037.839     32.161    475.392   1019.592    475.392    493.524    475.392
 62.070   1136.459   1159.239    -22.781    475.469   1141.875    475.469    492.710    475.469
 62.170   1195.000   1267.169    -72.169    475.546   1250.637    475.546    491.960    475.546
 62.270   1347.112   1339.425      7.687    475.624   1323.683    475.624    491.266    475.624
 62.370   1427.530   1356.962     70.568    475.703   1341.971    475.703    490.622    475.703
 62.470   1213.000   1314.086   -101.086    475.782   1299.803    475.782    490.025    475.782
 62.570   1271.962   1222.287     49.675    475.862   1208.664    475.862    489.469    475.862
 62.670   1118.000   1103.023     14.977    475.942   1090.014    475.942    488.953    475.942
 62.770    901.000    977.595    -76.595    476.022    965.155    476.022    488.475    476.022
 62.870    823.000    861.862    -38.862    476.103    849.949    476.103    488.031    476.103
 62.970    707.000    765.116    -58.116    476.185    753.694    476.185    487.622    476.185
 63.070    730.000    690.747     39.253    476.267    679.781    476.267    487.244    476.267
 63.170    647.461    637.741      9.720    476.350    627.201    476.350    486.896    476.350
 63.270    563.427    602.551    -39.125    476.433    592.410    476.433    486.577    476.433
 63.370    586.000    580.847      5.153    476.516    571.079    476.516    486.285    476.516
 63.470    554.000    568.771    -14.771    476.600    559.351    476.600    486.018    476.600
 63.570    590.000    563.600     26.400    476.684    554.505    476.684    485.775    476.684
 63.670    566.000    563.935      2.065    476.768    555.142    476.768    485.553    476.768
 63.770    573.751    569.611      4.141    476.853    561.099    476.853    485.353    476.853
 63.870    609.706    581.458     28.248    476.939    573.207    476.939    485.172    476.939
 63.970    582.825    600.974    -18.148    477.024    592.963    477.024    485.010    477.024
 64.070    615.000    629.862    -14.862    477.110    622.073    477.110    484.864    477.110
 64.170    712.000    669.446     42.554    477.196    661.861    477.196    484.734    477.196
 64.270    748.000    719.957     28.043    477.283    712.559    477.283    484.619    477.283
 64.370    813.000    779.808     33.192    477.370    772.583    477.370    484.518    477.370
 64.470    833.000    844.942    -11.942    477.457    837.879    477.457    484.430    477.457
 64.570    867.141    908.451    -41.310    477.544    901.544    477.544    484.355    477.544
 64.670    919.467    961.002    -41.534    477.632    954.245    477.632    484.291    477.632
 64.770    950.000    993.061    -43.061    477.719    986.453    477.719    484.238    477.719
 64.870   1022.000    998.764     23.236    477.807    992.301    477.807    484.195    477.807
 64.970    919.471    978.513    -59.042    477.896    972.191    477.896    484.161    477.896
 65.070    962.000    938.115     23.885    477.984    931.927    477.984    484.137    477.984
 65.170    916.982    885.996     30.986    478.072    879.933    478.072    484.122    478.072
 65.270    843.858    830.467     13.391    478.161    824.518    478.161    484.114    478.161
 65.370    770.000    777.751     -7.751    478.250    771.904    478.250    484.115    478.250
 65.470    706.570    731.199    -24.630    478.339    725.443    478.339    484.123    478.339
 65.570    711.000    691.684     19.316    478.428    686.007    478.428    484.139    478.428
 65.670    652.938    658.752     -5.814    478.517    653.143    478.517    484.161    478.517
 65.770    619.321    631.710    -12.389    478.606    626.158    478.606    484.190    478.606
 65.870    598.086    609.986    -11.900    478.696    604.483    478.696    484.225    478.696
 65.970    607.101    593.025     14.077    478.785    587.564    478.785    484.267    478.785
 66.070    601.457    580.219     21.237    478.874    574.795    478.874    484.315    478.874
 66.170    544.549    570.974    -26.425    478.964    565.580    478.964    484.368    478.964
 66.270    553.000    564.766    -11.766    479.053    559.399    479.053    484.428    479.053
 66.370    558.000    561.174     -3.174    479.143    555.830    479.143    484.493    479.143
 66.470    551.000    559.882     -8.882    479.232    554.556    479.232    484.564    479.232
 66.570    602.117    560.698     41.419    479.321    555.385    479.321    484.640    479.321
 66.670    568.587    563.617      4.970    479.411    558.312    479.411    484.722    479.411
 66.770    544.000    568.942    -24.942    479.500    563.639    479.500    484.810    479.500
 66.870    575.000    577.457     -2.457    479.589    572.151    479.589    484.903    479.589
 66.970    564.000    590.665    -26.665    479.678    585.350    479.678    485.002    479.678
 67.070    597.429    611.086    -13.657    479.767    605.757    479.767    485.107    479.767
 67.170    603.000    642.532    -39.532    479.856    637.182    479.856    485.217    479.856
 67.270    709.000    690.236     18.764    479.945    684.859    479.945    485.333    479.945
 67.370    766.044    760.631      5.414    480.034    755.223    480.034    485.455    480.034
 67.470    763.000    860.575    -97.575    480.122    855.132    480.122    485.583    480.122
 67.570    982.000    995.913    -13.913    480.210    990.433    480.210    485.718    480.210
 67.670   1124.281   1169.466    -45.185    480.298   1163.948    480.298    485.859    480.298
 67.770   1362.000   1378.775    -16.775    480.386   1373.221    480.386    486.008    480.386
 67.870   1689.828   1614.050     75.778    480.474   1608.463    480.474    486.163    480.474
 67.970   1814.000   1856.723    -42.723    480.562   1851.107    480.562    486.325    480.562
 68.070   2038.441   2079.065    -40.624    480.649   2073.423    480.649    486.496    480.649
 68.170   2346.000   2246.501     99.499    480.736   2240.831    480.736    486.675    480.736
 68.270   2353.000   2325.737     27.263    480.822   2320.028    480.822    486.862    480.822
 68.370   2222.059   2298.562    -76.502    480.909   2292.791    480.909    487.058    480.909
 68.470   2157.000   2171.724    -14.724    480.995   2165.855    480.995    487.265    480.995
 68.570   2036.114   1972.871     63.244    481.081   1966.863    481.081    487.482    481.081
 68.670   1658.163   1737.165    -79.001    481.166   1730.982    481.166    487.709    481.166
 68.770   1519.755   1496.146     23.609    481.251   1489.760    481.251    487.949    481.251
 68.870   1282.000   1272.954      9.046    481.336   1266.345    481.336    488.202    481.336
 68.970    998.000   1081.608    -83.608    481.421   1074.762    481.421    488.469    481.421
 69.070    941.000    927.984     13.016    481.505    920.892    481.505    488.751    481.505
 69.170    770.000    811.615    -41.615    481.588    804.267    481.588    489.049    481.588
 69.270    677.133    727.895    -50.762    481.672    720.282    481.672    489.366    481.672
 69.370    721.000    670.264     50.736    481.755    662.374    481.755    489.702    481.755
 69.470    679.000    631.946     47.054    481.837    623.763    481.837    490.061    481.837
 69.570    568.723    607.045    -38.321    481.919    598.551    481.919    490.443    481.919
 69.670    648.000    591.009     56.991    482.001    582.180    482.001    490.852    482.001
 69.770    564.706    580.645    -15.939    482.082    571.452    482.082    491.291    482.082
 69.870    587.000    573.882     13.118    482.162    564.294    482.162    491.764    482.162
 69.970    561.000    569.465     -8.465    482.242    559.445    482.242    492.275    482.242
 70.070    576.584    566.681      9.903    482.322    556.186    482.322    492.827    482.322
 70.170    524.604    565.149    -40.545    482.401    554.130    482.401    493.428    482.401
 70.270    585.000    564.691     20.309    482.479    553.094    482.479    494.083    482.479
 70.370    551.000    565.268    -14.268    482.557    553.032    482.557    494.799    482.557
 70.470    569.000    566.962      2.038    482.634    554.016    482.634    495.585    482.634
 70.570    536.774    570.003    -33.229    482.711    556.268    482.711    496.450    482.711
 70.670    585.000    574.834     10.166    482.787    560.220    482.787    497.403    482.787
 70.770    548.000    582.220    -34.220    482.863    566.625    482.863    498.458    482.863
 70.870    606.000    593.389     12.611    482.938    576.698    482.938    499.626    482.938
 70.970    605.000    610.188     -5.188    483.012    592.271    483.012    500.921    483.012
 71.070    615.317    635.201    -19.883    483.086    615.914    483.086    502.359    483.086
 71.170    645.000    671.756    -26.756    483.159    650.937    483.159    503.955    483.159
 71.270    701.000    723.731    -22.731    483.231    701.202    483.231    505.726    483.231
 71.370    742.741    795.071    -52.330    483.303    770.635    483.303    507.689    483.303
 71.470    850.000    888.988    -38.988    483.374    862.434    483.374    509.862    483.374
 71.570    924.000   1006.918    -82.918    483.444    978.018    483.444    512.260    483.444
 71.670   1201.969   1147.378     54.591    483.514   1115.893    483.514    514.898    483.514
 71.770   1280.228   1304.935    -24.707    483.583   1270.613    483.583    517.788    483.583
 71.870   1438.891   1469.446    -30.555    483.651   1432.035    483.651    520.938    483.651
 71.970   1574.720   1625.782    -51.062    483.718   1585.028    483.718    524.349    483.718
 72.070   1738.000   1754.599    -16.599    483.784   1710.261    483.784    528.013    483.784
 72.170   1816.470   1835.499    -19.029    483.850   1787.357    483.850    531.908    483.850
 72.270   1786.000   1853.328    -67.328    483.915   1801.196    483.915    535.995    483.915
 72.370   1834.664   1804.965     29.698    483.979   1748.711    483.979    540.214    483.979
 72.470   1625.375   1700.975    -75.600    484.042   1640.550    484.042    544.475    484.042
 72.570   1663.000   1560.404    102.596    484.105   1495.880    484.105    548.657    484.105
 72.670   1388.000   1403.532    -15.532    484.166   1335.132    484.166    552.606    484.166
 72.770   1297.000   1247.273     49.727    484.227   1175.401    484.227    556.144    484.227
 72.870   1060.000   1103.630    -43.630    484.287   1028.887    484.287    559.074    484.287
 72.970    987.000    979.712      7.288    484.346    902.886    484.346    561.213    484.346
 73.070    896.000    878.364     17.636    484.404    800.395    484.404    562.409    484.404
 73.170    800.886    799.143      1.743    484.461    721.061    484.461    562.574    484.461
 73.270    755.129    739.447     15.682    484.517    662.292    484.517    561.698    484.517
 73.370    670.000    695.629    -25.629    484.573    620.370    484.573    559.854    484.573
 73.470    658.000    663.891     -5.891    484.627    591.357    484.627    557.180    484.627
 73.570    658.661    640.871     17.790    484.680    571.712    484.680    553.857    484.680
 73.670    644.000    623.926     20.074    484.733    558.596    484.733    550.080    484.733
 73.770    619.359    611.167      8.192    484.784    549.935    484.784    546.032    484.784
 73.870    672.000    601.354     70.646    484.835    544.331    484.835    541.875    484.835
 73.970    592.000    593.729     -1.729    484.884    540.896    484.884    537.736    484.884
 74.070    549.277    587.847    -38.569    484.933    539.090    484.933    533.711    484.933
 74.170    623.491    583.428     40.063    484.980    538.565    484.980    529.867    484.980
 74.270    611.000    580.252     30.748    485.026    539.060    485.026    526.248    485.026
 74.370    532.000    578.088    -46.088    485.072    540.316    485.072    522.877    485.072
 74.470    531.650    576.641    -44.991    485.116    542.030    485.116    519.766    485.116
 74.570    588.000    575.539     12.461    485.159    543.827    485.159    516.915    485.159
 74.670    602.000    574.336     27.664    485.201    545.267    485.201    514.318    485.201
 74.770    594.000    572.576     21.424    485.242    545.906    485.242    511.964    485.242
 74.870    650.000    569.918     80.082    485.282    545.415    485.282    509.837    485.282
 74.970    587.015    566.278     20.736    485.321    543.726    485.321    507.923    485.321
 75.070    603.926    561.876     42.051    485.358    541.076    485.358    506.204    485.358
 75.170    558.561    557.148      1.413    485.395    537.920    485.395    504.664    485.395
 75.270    557.452    552.618      4.833    485.430    534.798    485.430    503.284    485.430
 75.370    570.000    548.810     21.190    485.464    532.252    485.464    502.049    485.464
 75.470    613.000    546.225     66.775    485.497    530.798    485.497    500.945    485.497
 75.570    555.000    545.350      9.650    485.529    530.937    485.529    499.955    485.529
 75.670    560.000    546.657     13.343    485.560    533.155    485.560    499.068    485.560
 75.770    527.711    550.590    -22.879    485.589    537.907    485.589    498.272    485.589
 75.870    519.384    557.536    -38.152    485.617    545.591    485.617    497.556    485.617
 75.970    598.000    567.754     30.246    485.644    556.475    485.644    496.910    485.644
 76.070    597.533    581.288     16.245    485.670    570.611    485.670    496.326    485.670
 76.170    594.000    597.875     -3.875    485.694    587.744    485.694    495.797    485.694
 76.270    646.000    616.852     29.148    485.718    607.218    485.718    495.316    485.718
 76.370    632.000    637.087     -5.087    485.740    627.907    485.740    494.877    485.740
 76.470    669.000    656.942     12.058    485.760    648.178    485.760    494.475    485.760
 76.570    684.000    674.304      9.696    485.780    665.924    485.780    494.106    485.780
 76.670    683.000    686.803     -3.803    485.798    678.779    485.798    493.767    485.798
 76.770    723.369    692.329     31.040    485.814    684.637    485.814    493.454    485.814
 76.870    688.000    689.768     -1.768    485.830    682.385    485.830    493.164    485.830
 76.970    647.000    679.481    -32.481    485.844    672.387    485.844    492.895    485.844
 77.070    694.817    663.129     31.688    485.857    656.306    485.857    492.645    485.857
 77.170    626.000    642.997    -16.997    485.868    636.426    485.868    492.411    485.868
 77.270    592.000    621.337    -29.337    485.878    615.001    485.878    492.193    485.878
 77.370    596.000    600.003     -4.003    485.887    593.886    485.887    491.989    485.887
 77.470    596.898    580.338     16.560    485.894    574.425    485.894    491.797    485.894
 77.570    609.000    563.172     45.828    485.900    557.450    485.900    491.616    485.900
 77.670    496.000    548.886    -52.886    485.905    543.340    485.905    491.445    485.905
 77.770    552.000    537.489     14.511    485.908    532.110    485.908    491.284    485.908
 77.870    483.000    528.736    -45.736    485.910    523.512    485.910    491.132    485.910
 77.970    539.000    522.227     16.773    485.910    517.148    485.910    490.987    485.910
 78.070    527.000    517.511      9.489    485.909    512.569    485.909    490.850    485.909
 78.170    466.000    514.155    -48.155    485.906    509.342    485.906    490.720    485.906
 78.270    502.641    511.787     -9.146    485.902    507.094    485.902    490.595    485.902
 78.370    481.855    510.113    -28.258    485.897    505.534    485.897    490.476    485.897
 78.470    504.006    508.917     -4.911    485.890    504.445    485.890    490.362    485.890
 78.570    552.000    508.053     43.947    485.882    503.681    485.882    490.253    485.882
 78.670    522.206    507.424     14.782    485.872    503.148    485.872    490.149    485.872
 78.770    479.352    506.976    -27.623    485.861    502.788    485.861    490.048    485.861
 78.870    467.261    506.679    -39.418    485.848    502.575    485.848    489.951    485.848
 78.970    505.806    506.524     -0.718    485.833    502.500    485.833    489.858    485.833
 79.070    517.708    506.516     11.192    485.817    502.566    485.817    489.768    485.817
 79.170    463.813    506.671    -42.857    485.800    502.790    485.800    489.681    485.800
 79.270    550.431    507.010     43.421    485.781    503.195    485.781    489.596    485.781
 79.370    514.000    507.565      6.435    485.761    503.812    485.761    489.514    485.761
 79.470    522.879    508.375     14.504    485.739    504.679    485.739    489.434    485.739
 79.570    505.009    509.487     -4.478    485.715    505.845    485.715    489.356    485.715
 79.670    519.754    510.963      8.791    485.690    507.372    485.690    489.281    485.690
 79.770    551.876    512.887     38.989    485.663    509.342    485.663    489.206    485.663
 79.870    555.643    515.369     40.275    485.635    511.868    485.635    489.133    485.635
 79.970    484.289    518.558    -34.269    485.605    515.099    485.605    489.062    485.605
 80.070    520.987    522.645     -1.658    485.574    519.225    485.574    488.991    485.574
 80.170    522.000    527.855     -5.855    485.541    524.472    485.541    488.921    485.541
 80.270    543.000    534.476      8.524    485.506    531.129    485.506    488.852    485.506
 80.370    514.000    542.886    -28.886    485.470    539.573    485.470    488.782    485.470
 80.470    572.686    553.406     19.280    485.432    550.127    485.432    488.712    485.432
 80.570    555.000    566.332    -11.332    485.393    563.086    485.393    488.642    485.393
 80.670    577.391    581.818     -4.427    485.352    578.606    485.352    488.571    485.352
 80.770    566.000    599.783    -33.783    485.309    596.605    485.309    488.499    485.309
 80.870    594.000    619.834    -25.834    485.265    616.691    485.265    488.425    485.265
 80.970    629.000    641.242    -12.242    485.219    638.134    485.219    488.350    485.219
 81.070    633.989    662.969    -28.980    485.171    659.898    485.171    488.272    485.171
 81.170    699.000    683.786     15.214    485.122    680.752    485.122    488.193    485.122
 81.270    716.835    702.442     14.393    485.071    699.445    485.071    488.113    485.071
 81.370    707.000    717.834    -10.834    485.019    714.875    485.019    488.030    485.019
 81.470    695.247    729.102    -33.855    484.964    726.179    484.964    487.946    484.964
 81.570    711.000    735.690    -24.690    484.908    732.804    484.908    487.861    484.908
 81.670    737.229    737.389     -0.159    484.851    734.537    484.851    487.774    484.851
 81.770    691.000    734.309    -43.309    484.791    731.489    484.791    487.687    484.791
 81.870    691.000    726.793    -35.793    484.730    724.004    484.730    487.598    484.730
 81.970    749.000    715.381     33.619    484.668    712.620    484.668    487.509    484.668
 82.070    705.241    700.850      4.391    484.603    698.114    484.603    487.419    484.603
 82.170    683.000    684.197     -1.197    484.537    681.483    484.537    487.329    484.537
 82.270    704.135    666.475     37.660    484.469    663.780    484.469    487.238    484.469
 82.370    637.000    648.566    -11.566    484.400    645.889    484.400    487.147    484.400
 82.470    655.836    631.068     24.768    484.328    628.407    484.328    487.056    484.328
 82.570    585.000    614.337    -29.337    484.255    611.689    484.255    486.964    484.255
 82.670    569.000    598.622    -29.622    484.181    595.985    484.181    486.871    484.181
 82.770    551.000    584.175    -33.175    484.104    581.548    484.104    486.779    484.104
 82.870    576.000    571.273      4.727    484.026    568.653    484.026    486.685    484.026
 82.970    570.000    560.178      9.822    483.946    557.564    483.946    486.592    483.946
 83.070    579.331    551.097     28.234    483.864    548.487    483.864    486.498    483.864
 83.170    582.124    544.163     37.961    483.781    541.556    483.781    486.403    483.781
 83.270    537.000    539.426     -2.426    483.696    536.822    483.696    486.308    483.696
 83.370    536.000    536.853     -0.853    483.609    534.249    483.609    486.212    483.609
 83.470    498.000    536.314    -38.314    483.520    533.710    483.520    486.115    483.520
 83.570    498.000    537.579    -39.579    483.429    534.974    483.429    486.018    483.429
 83.670    475.000    540.312    -65.312    483.337    537.705    483.337    485.920    483.337
 83.770    498.000    544.080    -46.080    483.243    541.471    483.243    485.821    483.243
 83.870    503.000    548.359    -45.359    483.147    545.747    483.147    485.722    483.147
 83.970    526.000    552.549    -26.549    483.050    549.936    483.050    485.622    483.050
 84.070    522.000    556.021    -34.021    482.950    553.406    482.950    485.521    482.950
 84.170    570.000    558.180     11.820    482.849    555.564    482.849    485.419    482.849
 84.270    521.000    558.576    -37.576    482.746    555.961    482.746    485.316    482.746
 84.370    559.015    557.020      1.994    482.642    554.406    482.642    485.212    482.642
 84.470    552.471    553.629     -1.159    482.535    551.016    482.535    485.108    482.535
 84.570    542.687    548.767     -6.081    482.427    546.156    482.427    485.003    482.427
 84.670    551.000    542.925      8.075    482.317    540.314    482.317    484.896    482.317
 84.770    558.536    536.606     21.930    482.205    533.996    482.205    484.789    482.205
 84.870    520.000    530.259    -10.259    482.091    527.647    482.091    484.681    482.091
 84.970    520.000    524.241     -4.241    481.976    521.628    481.976    484.572    481.976
 85.070    493.000    518.813    -25.813    481.859    516.195    481.859    484.462    481.859
 85.170    497.100    514.131    -17.031    481.740    511.509    481.740    484.351    481.740
 85.270    505.000    510.265     -5.265    481.619    507.636    481.619    484.239    481.619
 85.370    511.000    507.211      3.789    481.496    504.574    481.496    484.126    481.496
 85.470    485.000    504.915    -19.915    481.372    502.268    481.372    484.012    481.372
 85.570    483.000    503.292    -20.292    481.246    500.634    481.246    483.898    481.246
 85.670    477.557    502.254    -24.697    481.118    499.585    481.118    483.782    481.118
 85.770    520.000    501.722     18.278    480.988    499.039    480.988    483.665    480.988
 85.870    452.000    501.640    -49.640    480.856    498.942    480.856    483.548    480.856
 85.970    513.000    501.982     11.018    480.723    499.269    480.723    483.430    480.723
 86.070    510.000    502.758      7.242    480.588    500.027    480.588    483.311    480.588
 86.170    464.417    504.013    -39.597    480.451    501.263    480.451    483.191    480.451
 86.270    530.000    505.826     24.174    480.312    503.055    480.312    483.070    480.312
 86.370    526.000    508.302     17.698    480.172    505.510    480.172    482.949    480.172
 86.470    466.173    511.569    -45.396    480.029    508.752    480.029    482.826    480.029
 86.570    550.000    515.756     34.244    479.885    512.913    479.885    482.703    479.885
 86.670    528.000    520.983      7.017    479.739    518.111    479.739    482.580    479.739
 86.770    532.883    527.335      5.548    479.591    524.433    479.591    482.455    479.591
 86.870    553.672    534.839     18.832    479.442    531.904    479.442    482.330    479.442
 86.970    515.952    543.436    -27.484    479.290    540.465    479.290    482.205    479.290
 87.070    611.000    552.954     58.046    479.137    549.947    479.137    482.079    479.137
 87.170    546.000    563.092    -17.092    478.982    560.047    478.982    481.952    478.982
 87.270    582.000    573.407      8.593    478.826    570.322    478.826    481.825    478.826
 87.370    631.000    583.312     47.688    478.667    580.187    478.667    481.697    478.667
 87.470    556.376    592.103    -35.727    478.507    588.939    478.507    481.570    478.507
 87.570    566.000    599.026    -33.026    478.345    595.825    478.345    481.442    478.345
 87.670    588.000    603.409    -15.409    478.181    600.172    478.181    481.313    478.181
 87.770    602.169    604.823     -2.654    478.015    601.552    478.015    481.185    478.015
 87.870    579.000    603.218    -24.218    477.848    599.915    477.848    481.057    477.848
 87.970    565.000    598.934    -33.934    477.679    595.600    477.679    480.928    477.679
 88.070    651.000    592.601     58.399    477.508    589.235    477.508    480.800    477.508
 88.170    631.000    584.992     46.008    477.335    581.594    477.335    480.673    477.335
 88.270    580.000    576.909      3.091    477.161    573.475    477.161    480.545    477.161
 88.370    607.000    569.101     37.899    476.985    565.630    476.985    480.418    476.985
 88.470    564.000    562.217      1.783    476.807    558.706    476.807    480.292    476.807
 88.570    560.000    556.775      3.225    476.627    553.220    476.627    480.167    476.627
 88.670    556.000    553.124      2.876    476.446    549.522    476.446    480.042    476.446
 88.770    514.047    551.444    -37.397    476.263    547.791    476.263    479.919    476.263
 88.870    540.000    551.738    -11.738    476.078    548.030    476.078    479.797    476.078
 88.970    553.000    553.844     -0.844    475.891    550.078    475.891    479.677    475.891
 89.070    592.452    557.448     35.004    475.703    553.620    475.703    479.559    475.703
 89.170    567.000    562.105      4.895    475.513    558.211    475.513    479.443    475.513
 89.270    610.000    567.260     42.740    475.321    563.295    475.321    479.329    475.321
 89.370    577.000    572.280      4.720    475.128    568.240    475.128    479.219    475.128
 89.470    575.000    576.497     -1.497    474.932    572.375    474.932    479.111    474.932
 89.570    556.000    579.280    -23.280    474.735    575.071    474.735    479.007    474.735
 89.670    630.000    580.141     49.859    474.537    575.836    474.537    478.906    474.537
 89.770    622.556    578.832     43.725    474.337    574.424    474.337    478.811    474.337
 89.870    545.000    575.402    -30.402    474.135    570.883    474.135    478.719    474.135
 89.970    544.782    570.161    -25.379    473.931    565.521    473.931    478.634    473.931
 90.070    549.000    563.576    -14.576    473.726    558.807    473.726    478.554    473.726
 90.170    531.000    556.172    -25.172    473.519    551.264    473.519    478.480    473.519
 90.270    552.000    548.446      3.554    473.310    543.389    473.310    478.414    473.310
 90.370    582.734    540.827     41.908    473.100    535.612    473.100    478.355    473.100
 90.470    528.568    533.656     -5.088    472.888    528.274    472.888    478.305    472.888
 90.570    505.000    527.182    -22.182    472.675    521.622    472.675    478.264    472.675
 90.670    547.271    521.562     25.709    472.459    515.812    472.459    478.233    472.459
 90.770    508.000    516.871     -8.871    472.243    510.920    472.243    478.212    472.243
 90.870    480.000    513.115    -33.115    472.024    506.951    472.024    478.203    472.024
 90.970    536.038    510.253     25.785    471.804    503.863    471.804    478.205    471.804
 91.070    511.000    508.213      2.787    471.583    501.582    471.583    478.221    471.583
 91.170    495.000    506.909    -11.909    471.360    500.024    471.360    478.250    471.360
 91.270    449.000    506.265    -57.265    471.135    499.109    471.135    478.294    471.135
 91.370    499.685    506.218     -6.533    470.908    498.775    470.908    478.353    470.908
 91.470    466.831    506.736    -39.906    470.681    498.990    470.681    478.428    470.681
 91.570    479.547    507.822    -28.276    470.451    499.753    470.451    478.519    470.451
 91.670    520.000    509.514     10.486    470.220    501.104    470.220    478.628    470.220
 91.770    538.000    511.889     26.111    469.988    503.119    469.988    478.754    469.988
 91.870    525.000    515.058      9.942    469.754    505.908    469.754    478.898    469.754
 91.970    480.000    519.161    -39.161    469.518    509.612    469.518    479.059    469.518
 92.070    514.000    524.360    -10.360    469.281    514.393    469.281    479.238    469.281
 92.170    536.591    530.825      5.766    469.042    520.420    469.042    479.434    469.042
 92.270    524.000    538.720    -14.720    468.802    527.860    468.802    479.645    468.802
 92.370    555.320    548.183      7.138    468.561    536.850    468.561    479.871    468.561
 92.470    537.587    559.291    -21.705    468.318    547.473    468.318    480.110    468.318
 92.570    532.625    572.127    -39.502    468.073    559.811    468.073    480.357    468.073
 92.670    528.000    586.634    -58.634    467.827    573.813    467.827    480.610    467.827
 92.770    612.000    602.677      9.323    467.580    589.349    467.580    480.864    467.580
 92.870    640.577    620.020     20.557    467.331    606.188    467.331    481.113    467.331
 92.970    717.000    638.316     78.684    467.081    623.991    467.081    481.351    467.081
 93.070    661.684    657.111      4.573    466.830    642.310    466.830    481.571    466.830
 93.170    687.000    675.867     11.133    466.577    660.616    466.577    481.763    466.577
 93.270    676.000    694.025    -18.025    466.322    678.359    466.322    481.921    466.322
 93.370    751.000    711.095     39.905    466.067    695.059    466.067    482.034    466.067
 93.470    684.999    726.767    -41.769    465.810    710.413    465.810    482.096    465.810
 93.570    724.000    740.965    -16.965    465.551    724.351    465.551    482.097    465.551
 93.670    800.237    753.824     46.413    465.292    737.016    465.292    482.033    465.292
 93.770    744.000    765.593    -21.593    465.031    748.659    465.031    481.900    465.031
 93.870    756.000    776.519    -20.519    464.768    759.531    464.768    481.695    464.768
 93.970    827.000    786.791     40.209    464.505    769.819    464.505    481.419    464.505
 94.070    861.000    796.519     64.481    464.240    779.628    464.240    481.075    464.240
 94.170    809.000    805.805      3.195    463.974    789.059    463.974    480.667    463.974
 94.270    761.509    814.802    -53.293    463.706    798.256    463.706    480.204    463.706
 94.370    820.144    823.701     -3.557    463.438    807.402    463.438    479.692    463.438
 94.470    877.058    832.635     44.423    463.168    816.622    463.168    479.140    463.168
 94.570    845.000    841.551      3.449    462.897    825.854    462.897    478.558    462.897
 94.670    871.000    850.103     20.897    462.625    834.744    462.625    477.954    462.625
 94.770    853.988    857.623     -3.636    462.351    842.615    462.351    477.336    462.351
 94.870    845.000    863.166    -18.166    462.077    848.514    462.077    476.711    462.077
 94.970    857.887    865.632     -7.746    461.801    851.336    461.801    476.087    461.801
 95.070    807.618    863.968    -56.350    461.524    850.022    461.524    475.468    461.524
 95.170    892.000    857.412     34.588    461.246    843.804    461.246    474.860    461.246
 95.270    854.000    845.724      8.276    460.967    832.438    460.967    474.265    460.967
 95.370    854.000    829.290     24.710    460.687    816.306    460.687    473.688    460.687
 95.470    837.000    809.068     27.932    460.406    796.365    460.406    473.130    460.406
 95.570    808.321    786.412     21.909    460.124    773.966    460.124    472.594    460.124
 95.670    778.000    762.860     15.140    459.841    750.645    459.841    472.079    459.841
 95.770    783.000    740.025     42.975    459.557    728.015    459.557    471.589    459.557
 95.870    686.000    719.526    -33.526    459.271    707.695    459.271    471.122    459.271
 95.970    738.611    702.775     35.835    458.985    691.097    458.985    470.680    458.985
 96.070    702.000    691.098     10.902    458.698    679.545    458.698    470.262    458.698
 96.170    703.000    685.632     17.368    458.410    674.177    458.410    469.870    458.410
 96.270    655.000    687.339    -32.339    458.121    675.956    458.121    469.503    458.121
 96.370    714.159    696.984     17.175    457.831    685.647    457.831    469.161    457.831
 96.470    735.000    715.123     19.877    457.540    703.803    457.540    468.845    457.540
 96.570    757.000    742.075     14.925    457.249    730.748    457.249    468.555    457.249
 96.670    790.000    777.901     12.099    456.956    766.539    456.956    468.290    456.956
 96.770    770.635    822.356    -51.721    456.663    810.933    456.663    468.051    456.663
 96.870    862.000    874.836    -12.836    456.368    863.326    456.368    467.839    456.368
 96.970    915.000    934.331    -19.331    456.074    922.707    456.074    467.654    456.074
 97.070    958.000    999.368    -41.368    455.778    987.604    455.778    467.497    455.778
 97.170   1117.000   1067.983     49.017    455.481   1056.051    455.481    467.368    455.481
 97.270   1071.662   1137.705    -66.043    455.184   1125.578    455.184    467.268    455.184
 97.370   1147.000   1205.574    -58.574    454.886   1193.224    454.886    467.199    454.886
 97.470   1299.000   1268.225     30.775    454.588   1255.623    454.588    467.162    454.588
 97.570   1294.000   1322.063    -28.063    454.288   1309.179    454.288    467.157    454.288
 97.670   1303.212   1363.602    -60.390    453.988   1350.403    453.988    467.188    453.988
 97.770   1400.000   1389.940     10.060    453.688   1376.391    453.688    467.254    453.688
 97.870   1388.000   1399.275    -11.275    453.387   1385.339    453.387    467.359    453.387
 97.970   1345.000   1391.271    -46.271    453.085   1376.906    453.085    467.504    453.085
 98.070   1406.000   1367.093     38.907    452.782   1352.255    452.782    467.691    452.782
 98.170   1301.000   1329.125    -28.125    452.480   1313.765    452.480    467.923    452.480
 98.270   1298.000   1280.508     17.492    452.176   1264.573    452.176    468.202    452.176
 98.370   1250.000   1224.694     25.306    451.872   1208.131    451.872    468.530    451.872
 98.470   1113.849   1165.125    -51.275    451.568   1147.878    451.568    468.911    451.568
 98.570   1073.194   1105.026    -31.832    451.263   1087.035    451.263    469.347    451.263
 98.670   1058.226   1047.297     10.929    450.958   1028.502    450.958    469.841    450.958
 98.770   1018.104    994.470     23.633    450.652    974.809    450.652    470.395    450.652
 98.870    950.000    948.700      1.300    450.346    928.107    450.346    471.013    450.346
 98.970    926.000    911.777     14.223    450.040    890.185    450.040    471.695    450.040
 99.070    845.000    885.133    -40.133    449.733    862.474    449.733    472.446    449.733
 99.170    831.316    869.884    -38.567    449.426    846.087    449.426    473.268    449.426
 99.270    864.000    866.841     -2.841    449.119    841.836    449.119    474.161    449.119
 99.370    853.000    876.484    -23.484    448.811    850.199    448.811    475.128    448.811
 99.470    844.000    899.022    -55.022    448.503    871.383    448.503    476.169    448.503
 99.570    883.000    934.384    -51.384    448.195    905.319    448.195    477.285    448.195
 99.670    948.000    982.213    -34.213    447.887    951.651    447.887    478.475    447.887
 99.770   1074.000   1041.844     32.156    447.579   1009.715    447.579    479.737    447.579
 99.870   1173.656   1112.270     61.386    447.270   1078.508    447.270    481.068    447.270
 99.970   1117.000   1192.097    -75.097    446.962   1156.641    446.962    482.464    446.962
100.070   1327.979   1279.507     48.472    446.653   1242.303    446.653    483.918    446.653
100.170   1414.000   1372.229     41.771    446.344   1333.231    446.344    485.420    446.344
100.270   1526.000   1467.542     58.458    446.036   1426.716    446.036    486.960    446.036
100.370   1627.001   1562.347     64.655    445.727   1519.673    445.727    488.523    445.727
100.470   1655.000   1653.323      1.677    445.418   1608.800    445.418    490.090    445.418
100.570   1733.000   1737.175     -4.175    445.110   1690.820    445.110    491.641    445.110
100.670   1747.000   1810.912    -63.912    444.801   1762.767    444.801    493.151    444.801
100.770   1852.000   1872.053    -20.053    444.493   1822.188    444.493    494.591    444.493
100.870   1974.000   1918.690     55.310    444.184   1867.201    444.184    495.931    444.184
100.970   1934.000   1949.402    -15.402    443.876   1896.421    443.876    497.137    443.876
101.070   2009.628   1963.162     46.466    443.568   1908.851    443.568    498.177    443.568
101.170   1966.000   1959.359      6.641    443.260   1903.915    443.260    499.016    443.260
101.270   1864.971   1938.003    -73.032    442.953   1881.651    442.953    499.625    442.953
101.370   1979.000   1900.023     78.977    442.646   1843.012    442.646    499.980    442.646
101.470   1834.000   1847.460    -13.460    442.339   1790.060    442.339    500.060    442.339
101.570   1815.454   1783.401     32.053    442.032   1725.892    442.032    499.855    442.032
101.670   1766.633   1711.631     55.002    441.726   1654.296    441.726    499.362    441.726
101.770   1663.000   1636.142     26.858    441.421   1579.258    441.421    498.589    441.421
101.870   1604.000   1560.667     43.333    441.115   1504.498    441.115    497.551    441.115
101.970   1548.892   1488.351     60.542    440.810   1433.139    440.810    496.269    440.810
102.070   1433.000   1421.574     11.426    440.506   1367.536    440.506    494.772    440.506
102.170   1356.000   1361.902     -5.902    440.202   1309.222    440.202    493.092    440.202
102.270   1261.000   1310.093    -49.093    439.899   1258.923    439.899    491.261    439.899
102.370   1303.722   1266.141     37.581    439.596   1216.600    439.596    489.314    439.596
102.470   1262.000   1229.358     32.642    439.294   1181.534    439.294    487.283    439.294
102.570   1160.000   1198.476    -38.476    438.993   1152.426    438.993    485.197    438.993
102.670   1223.950   1171.784     52.166    438.692   1127.538    438.692    483.084    438.692
102.770   1119.861   1147.316    -27.455    438.392   1104.883    438.392    480.965    438.392
102.870   1099.000   1123.095    -24.095    438.093   1082.463    438.093    478.862    438.093
102.970   1126.371   1097.401     28.970    437.795   1058.540    437.795    476.789    437.795
103.070   1048.088   1069.005    -20.916    437.497   1031.871    437.497    474.762    437.497
103.170   1003.566   1037.299    -33.734    437.201   1001.840    437.201    472.788    437.201
103.270    994.000   1002.288     -8.288    436.905    968.441    436.905    470.877    436.905
103.370   1011.157    964.459     46.698    436.610    932.155    436.610    469.034    436.610
103.470    877.000    924.645    -47.645    436.316    893.813    436.316    467.263    436.316
103.570    879.000    883.774     -4.774    436.023    854.339    436.023    465.566    436.023
103.670    962.000    842.804    119.196    435.731    814.691    435.731    463.944    435.731
103.770    825.000    802.631     22.369    435.440    775.765    435.440    462.398    435.440
103.870    803.000    764.046     38.954    435.151    738.353    435.151    460.928    435.151
103.970    797.000    727.704     69.296    434.862    703.110    434.862    459.531    434.862
104.070    685.243    694.108     -8.866    434.575    670.543    434.575    458.206    434.575
104.170    701.000    663.608     37.392    434.289    641.002    434.289    456.952    434.289
104.270    650.000    636.397     13.603    434.004    614.685    434.004    455.766    434.004
104.370    659.000    612.530     46.470    433.720    591.649    433.720    454.644    433.720
104.470    625.000    591.941     33.059    433.438    571.830    433.438    453.586    433.438
104.570    607.000    574.465     32.535    433.157    555.066    433.157    452.587    433.157
104.670    591.000    559.870     31.130    432.877    541.128    432.877    451.645    432.877
104.770    557.371    547.881      9.490    432.599    529.744    432.599    450.757    432.599
104.870    567.000    538.204     28.796    432.323    520.623    432.323    449.921    432.323
104.970    548.000    530.553     17.447    432.047    513.481    432.047    449.133    432.047
105.070    534.000    524.658      9.342    431.774    508.052    431.774    448.391    431.774
105.170    529.000    520.286      8.714    431.502    504.104    431.502    447.692    431.502
105.270    523.000    517.240      5.760    431.232    501.444    431.232    447.034    431.232
105.370    540.000    515.368     24.632    430.963    499.921    430.963    446.414    430.963
105.470    556.000    514.558     41.442    430.696    499.426    430.696    445.830    430.696
105.570    526.000    514.741     11.259    430.431    499.891    430.431    445.281    430.431
105.670    479.932    515.879    -35.946    430.168    501.281    430.168    444.763    430.168
105.770    528.000    517.967     10.033    429.906    503.593    429.906    444.275    429.906
105.870    485.498    521.021    -35.522    429.646    506.845    429.646    443.816    429.646
105.970    525.000    525.074     -0.074    429.389    511.070    429.389    443.384    429.389
106.070    524.499    530.166     -5.667    429.133    516.311    429.133    442.977    429.133
106.170    494.308    536.333    -42.025    428.879    522.604    428.879    442.594    428.879
106.270    506.976    543.597    -36.621    428.627    529.974    428.627    442.234    428.627
106.370    564.000    551.954     12.046    428.378    538.417    428.378    441.896    428.378
106.470    567.360    561.367      5.994    428.130    547.896    428.130    441.579    428.130
106.570    597.000    571.751     25.249    427.885    558.329    427.885    441.282    427.885
106.670    576.484    582.977     -6.493    427.642    569.587    427.642    441.004    427.642
106.770    584.411    594.862    -10.451    427.401    581.487    427.401    440.746    427.401
106.870    611.000    607.173      3.827    427.162    593.798    427.162    440.505    427.162
106.970    631.000    619.629     11.371    426.926    606.238    426.926    440.283    426.926
107.070    627.000    631.906     -4.906    426.692    618.486    426.692    440.077    426.692
107.170    600.000    643.649    -43.649    426.461    630.184    426.461    439.890    426.461
107.270    671.000    654.486     16.514    426.232    640.963    426.232    439.719    426.232
107.370    630.000    664.061    -34.061    426.006    650.466    426.006    439.565    426.006
107.470    642.000    672.068    -30.068    425.782    658.388    425.782    439.428    425.782
107.570    652.000    678.297    -26.297    425.561    664.518    425.561    439.309    425.561
107.670    649.081    682.670    -33.589    425.342    668.778    425.342    439.206    425.342
107.770    682.799    685.265     -2.465    425.126    671.246    425.126    439.121    425.126
107.870    721.095    686.304     34.791    424.913    672.144    424.913    439.053    424.913
107.970    656.565    686.121    -29.556    424.703    671.805    424.703    439.003    424.703
108.070    681.000    685.112     -4.112    424.496    670.625    424.496    438.972    424.496
108.170    670.000    683.681    -13.681    424.291    669.006    424.291    438.959    424.291
108.270    649.000    682.193    -33.193    424.090    667.315    424.090    438.965    424.090
108.370    656.151    680.947    -24.796    423.891    665.848    423.891    438.992    423.891
108.470    651.241    680.151    -28.910    423.696    664.814    423.696    439.038    423.696
108.570    650.000    679.913    -29.913    423.504    664.319    423.504    439.106    423.504
108.670    701.000    680.230     20.770    423.314    664.361    423.314    439.197    423.314
108.770    676.000    681.004     -5.004    423.128    664.839    423.128    439.310    423.128
108.870    656.000    682.028    -26.028    422.946    665.546    422.946    439.448    422.946
108.970    680.000    683.005     -3.005    422.766    666.185    422.766    439.610    422.766
109.070    643.107    683.578    -40.471    422.590    666.396    422.590    439.799    422.590
109.170    728.079    683.359     44.721    422.417    665.789    422.417    440.016    422.417
109.270    673.000    681.975     -8.975    422.248    663.992    422.248    440.262    422.248
109.370    740.000    679.125     60.875    422.082    660.703    422.082    440.539    422.082
109.470    638.000    674.626    -36.626    421.920    655.733    421.920    440.849    421.920
109.570    669.000    668.432      0.568    421.761    649.038    421.761    441.192    421.761
109.670    684.000    660.638     23.362    421.606    640.710    421.606    441.572    421.606
109.770    647.491    651.483     -3.992    421.455    630.986    421.455    441.989    421.455
109.870    656.000    641.258     14.742    421.307    620.154    421.307    442.448    421.307
109.970    612.000    630.298    -18.298    421.164    608.548    421.164    442.948    421.164
110.070    642.000    618.946     23.054    421.024    596.509    421.024    443.494    421.024
110.170    624.000    607.529     16.471    420.888    584.360    420.888    444.088    420.888
110.270    590.408    596.341     -5.933    420.756    572.393    420.756    444.732    420.756
110.370    554.000    585.637    -31.637    420.628    560.861    420.628    445.429    420.628
110.470    601.000    575.629     25.371    420.504    549.973    420.504    446.183    420.504
110.570    637.000    566.486     70.514    420.385    539.895    420.385    446.995    420.385
110.670    538.111    558.332    -20.221    420.269    530.748    420.269    447.871    420.269
110.770    518.032    551.249    -33.216    420.158    522.609    420.158    448.813    420.158
110.870    574.673    545.277     29.396    420.051    515.516    420.051    449.824    420.051
110.970    560.000    540.422     19.578    419.948    509.473    419.948    450.908    419.948
111.070    581.481    536.662     44.819    419.850    504.452    419.850    452.068    419.850
111.170    554.000    533.947     20.053    419.756    500.400    419.756    453.309    419.756
111.270    553.000    532.210     20.790    419.667    497.247    419.667    454.634    419.667
111.370    570.000    531.376     38.624    419.583    494.915    419.583    456.046    419.583
111.470    499.952    531.360    -31.408    419.503    493.314    419.503    457.550    419.503
111.570    567.442    532.076     35.366    419.427    492.354    419.427    459.149    419.427
111.670    545.000    533.441     11.559    419.357    491.950    419.357    460.847    419.357
111.770    509.596    535.376    -25.780    419.291    492.019    419.291    462.647    419.291
111.870    524.000    537.811    -13.811    419.230    492.487    419.230    464.552    419.230
111.970    527.121    540.684    -13.562    419.175    493.290    419.175    466.565    419.175
112.070    570.727    543.943     26.784    419.124    494.373    419.124    468.690    419.124
112.170    519.000    547.547    -28.547    419.078    495.694    419.078    470.928    419.078
112.270    522.000    551.469    -29.469    419.037    497.220    419.037    473.281    419.037
112.370    513.051    555.689    -42.638    419.002    498.934    419.002    475.752    419.002
112.470    604.262    560.204     44.058    418.971    500.831    418.971    478.340    418.971
112.570    557.000    565.021     -8.021    418.946    502.916    418.946    481.046    418.946
112.670    566.428    570.157     -3.729    418.927    505.210    418.927    483.869    418.927
112.770    518.000    575.644    -57.644    418.913    507.746    418.913    486.806    418.913
112.870    576.000    581.524     -5.524    418.904    510.568    418.904    489.855    418.904
112.970    510.000    587.854    -77.854    418.901    513.738    418.901    493.012    418.901
113.070    559.374    594.708    -35.334    418.903    517.337    418.903    496.269    418.903
113.170    535.000    602.182    -67.182    418.911    521.469    418.911    499.618    418.911
113.270    574.000    610.398    -36.398    418.925    526.267    418.925    503.049    418.925
113.370    554.000    619.518    -65.518    418.945    531.906    418.945    506.550    418.945
113.470    582.000    629.750    -47.750    418.970    538.608    418.970    510.104    418.970
113.570    612.096    641.358    -29.263    419.002    546.658    419.002    513.692    419.002
113.670    624.000    654.685    -30.685    419.039    556.419    419.039    517.293    419.039
113.770    676.000    670.161      5.839    419.083    568.347    419.083    520.881    419.083
113.870    733.845    688.327     45.518    419.132    583.012    419.132    524.428    419.132
113.970    711.000    709.852      1.148    419.188    601.114    419.188    527.901    419.188
114.070    693.000    735.554    -42.554    419.250    623.508    419.250    531.265    419.250
114.170    709.000    766.418    -57.418    419.319    651.216    419.319    534.482    419.319
114.270    773.000    803.611    -30.611    419.394    685.445    419.394    537.512    419.394
114.370    810.000    848.493    -38.493    419.475    727.596    419.475    540.314    419.475
114.470    886.016    902.621    -16.604    419.563    779.267    419.563    542.845    419.563
114.570    950.013    967.736    -17.723    419.657    842.239    419.657    545.067    419.657
114.670   1042.000   1045.749     -3.749    419.758    918.461    419.758    546.942    419.758
114.770   1113.621   1138.702    -25.081    419.866   1010.005    419.866    548.438    419.866
114.870   1272.000   1248.707     23.293    419.980   1119.013    419.980    549.528    419.980
114.970   1397.000   1377.851     19.149    420.102   1247.589    420.102    550.193    420.102
115.070   1524.317   1528.230     -3.912    420.230   1397.841    420.230    550.421    420.230
115.170   1761.000   1701.666     59.334    420.365   1571.595    420.365    550.212    420.365
115.270   1986.000   1899.654     86.346    420.508   1770.339    420.508    549.570    420.508
115.370   2185.000   2123.240     61.760    420.657   1995.104    420.657    548.513    420.657
115.470   2346.361   2372.873    -26.512    420.814   2246.319    420.814    547.063    420.814
115.570   2758.000   2648.269    109.731    420.978   2523.670    420.978    545.250    420.978
115.670   2961.000   2948.289     12.711    421.149   2825.983    421.149    543.109    421.149
115.770   3277.898   3270.833      7.065    421.328   3151.122    421.328    540.679    421.328
115.870   3609.775   3612.769     -2.994    421.515   3495.916    421.515    538.001    421.515
115.970   3873.940   3969.893    -95.953    421.709   3856.121    421.709    535.117    421.709
116.070   4290.000   4336.930    -46.930    421.910   4226.420    421.910    532.068    421.910
116.170   4632.000   4707.566    -75.566    422.119   4600.464    422.119    528.892    422.119
116.270   5042.000   5074.536    -32.536    422.336   4970.950    422.336    525.627    422.336
116.370   5368.808   5429.751    -60.943    422.561   5329.757    422.561    522.307    422.561
116.470   5820.000   5764.479     55.521    422.794   5668.121    422.794    518.963    422.794
116.570   6036.062   6069.602    -33.540    423.035   5976.898    423.035    515.621    423.035
116.670   6227.000   6335.965   -108.965    423.284   6246.908    423.284    512.305    423.284
116.770   6482.000   6554.832    -72.832    423.541   6469.391    423.541    509.036    423.541
116.870   6763.044   6718.449     44.595    423.807   6636.577    423.807    505.831    423.807
116.970   6751.000   6820.670    -69.670    424.080   6742.298    424.080    502.704    424.080
117.070   6948.000   6857.537     90.463    424.362   6782.582    424.362    499.668    424.362
117.170   6875.590   6827.708     47.882    424.653   6756.074    424.653    496.731    424.653
117.270   6850.306   6732.603    117.703    424.952   6664.181    424.952    493.902    424.952
117.370   6500.000   6576.236    -76.236    425.260   6510.911    425.260    491.185    425.260
117.470   6438.707   6364.778     73.930    425.576   6302.426    425.576    488.585    425.576
117.570   6081.000   6105.960    -24.960    425.902   6046.455    425.902    486.104    425.902
117.670   5921.262   5808.456    112.806    426.236   5751.670    426.236    483.744    426.236
117.770   5376.749   5481.316   -104.567    426.579   5427.121    426.579    481.505    426.579
117.870   5086.000   5133.522    -47.522    426.931   5081.792    426.931    479.388    426.931
117.970   4901.151   4773.640    127.511    427.292   4724.251    427.292    477.391    427.292
118.070   4373.362   4409.577    -36.214    427.662   4362.407    427.662    475.512    427.662
118.170   4206.000   4048.397    157.603    428.042   4003.331    428.042    473.750    428.042
118.270   3771.000   3696.206     74.794    428.431   3653.132    428.431    472.103    428.431
118.370   3445.592   3358.083     87.509    428.829   3316.894    428.829    470.566    428.829
118.470   3018.000   3038.053    -20.053    429.237   2998.647    429.237    469.138    429.237
118.570   2832.523   2739.110     93.413    429.654   2701.389    429.654    467.815    429.654
118.670   2414.000   2463.272    -49.272    430.081   2427.146    430.081    466.594    430.081
118.770   2259.581   2211.670     47.912    430.518   2177.052    430.518    465.472    430.518
118.870   1903.000   1984.652    -81.652    430.964   1951.459    430.964    464.444    430.964
118.970   1684.000   1781.902    -97.902    431.421   1750.057    431.421    463.507    431.421
119.070   1551.000   1602.559    -51.559    431.888   1571.989    431.888    462.658    431.888
119.170   1488.000   1445.341     42.659    432.364   1415.976    432.364    461.893    432.364
119.270   1301.082   1308.659     -7.576    432.851   1280.434    432.851    461.208    432.851
119.370   1235.000   1190.726     44.274    433.348   1163.578    433.348    460.601    433.348
119.470   1128.000   1089.655     38.345    433.855   1063.526    433.855    460.068    433.855
119.570   1076.000   1003.545     72.455    434.373    978.378    434.373    459.605    434.373
119.670    943.000    930.547     12.453    434.901    906.288    434.901    459.209    434.901
119.770    827.846    868.914    -41.068    435.440    845.514    435.440    458.878    435.440
119.870    848.000    817.043     30.957    435.990    794.454    435.990    458.608    435.990
119.970    797.000    773.490     23.510    436.550    751.665    436.550    458.396    436.550
120.070    736.343    736.979     -0.636    437.121    715.876    437.121    458.241    437.121
120.170    754.159    706.407     47.752    437.703    685.985    437.703    458.138    437.703
120.270    738.000    680.828     57.172    438.296    661.048    438.296    458.087    438.296
120.370    661.000    659.446      1.554    438.900    640.272    438.900    458.084    438.900
120.470    618.454    641.597    -23.143    439.516    622.994    439.516    458.128    439.516
120.570    655.000    626.732     28.268    440.142    608.666    440.142    458.216    440.142
120.670    592.990    614.399    -21.409    440.780    596.842    440.780    458.347    440.780
120.770    568.000    604.234    -36.234    441.430    587.154    441.430    458.518    441.430
120.870    558.217    595.937    -37.720    442.091    579.308    442.091    458.729    442.091
120.970    621.341    589.266     32.074    442.764    573.063    442.764    458.977    442.764
121.070    598.919    584.026     14.893    443.448    568.224    443.448    459.261    443.448
121.170    590.000    580.054      9.946    444.144    564.631    444.144    459.579    444.144
121.270    544.000    577.218    -33.218    444.852    562.152    444.852    459.931    444.852
121.370    572.328    575.408     -3.080    445.573    560.679    445.573    460.315    445.573
121.470    619.604    574.526     45.078    446.305    560.116    446.305    460.730    446.305
121.570    610.579    574.489     36.089    447.049    560.380    447.049    461.175    447.049
121.670    565.875    575.221     -9.346    447.806    561.397    447.806    461.649    447.806
121.770    574.000    576.649     -2.649    448.575    563.094    448.575    462.150    448.575
121.870    534.063    578.702    -44.639    449.357    565.402    449.357    462.679    449.357
121.970    581.000    581.308     -0.308    450.151    568.251    450.151    463.233    450.151
122.070    578.000    584.394     -6.394    450.958    571.566    450.958    463.813    450.958
122.170    543.301    587.882    -44.581    451.778    575.272    451.778    464.417    451.778
122.270    575.000    591.689    -16.689    452.611    579.287    452.611    465.045    452.611
122.370    581.000    595.726    -14.726    453.456    583.522    453.456    465.695    453.456
122.470    618.000    599.890     18.110    454.315    587.875    454.315    466.367    454.315
122.570    640.000    604.079     35.921    455.186    592.246    455.186    467.060    455.186
122.670    646.000    608.234     37.766    456.071    596.574    456.071    467.774    456.071
122.770    599.000    612.225    -13.225    456.969    600.733    456.969    468.507    456.969
122.870    588.380    615.944    -27.563    457.881    604.615    457.881    469.259    457.881
122.970    618.000    619.288     -1.288    458.806    608.117    458.806    470.028    458.806
123.070    620.200    622.161     -1.961    459.745    611.145    459.745    470.815    459.745
123.170    655.000    624.480     30.520    460.698    613.614    460.698    471.619    460.698
123.270    593.423    626.175    -32.752    461.664    615.459    461.664    472.438    461.664
123.370    643.000    627.201     15.799    462.645    616.632    462.645    473.272    462.645
123.470    665.986    627.534     38.453    463.639    617.110    463.639    474.121    463.639
123.570    582.000    627.172    -45.172    464.648    616.895    464.648    474.984    464.648
123.670    667.000    626.140     40.860    465.670    616.008    465.670    475.861    465.670
123.770    634.000    624.477      9.523    466.708    614.491    466.708    476.751    466.708
123.870    640.787    622.239     18.548    467.759    612.400    467.759    477.654    467.759
123.970    583.221    619.492    -36.271    468.825    609.802    468.825    478.570    468.825
124.070    590.504    616.308    -25.804    469.906    606.767    469.906    479.499    469.906
124.170    627.186    612.760     14.426    471.001    603.371    471.001    480.440    471.001
124.270    589.000    608.924    -19.924    472.112    599.687    472.112    481.395    472.112
124.370    639.000    604.871     34.129    473.237    595.788    473.237    482.363    473.237
124.470    582.389    600.670    -18.281    474.377    591.743    474.377    483.344    474.377
124.570    596.000    596.386     -0.386    475.533    587.616    475.533    484.340    475.533
124.670    576.000    592.077    -16.077    476.704    583.465    476.704    485.350    476.704
124.770    612.000    587.794     24.206    477.890    579.341    477.890    486.374    477.890
124.870    598.000    583.584     14.416    479.091    575.289    479.091    487.414    479.091
124.970    550.000    579.483    -29.483    480.309    571.347    480.309    488.470    480.309
