neutron_powder_diffraction_0109
R_wp: 3.971
Temperature (K): 932.733
Counts: 84097.00
Wavelength (Ã…): 2.52098
COMMENTS
Test file for demonstrating the .xyy file format in Reel1.0
END OF HEADER
   tth       Y_obs     Y_calc      Y_res    Background    Phase_1_Nuc    Phase_1_Mag    Phase_2_Nuc    Phase_2_Mag
  9.970    518.634    563.403    -44.769    562.139    563.162    562.139    562.380    562.139
 10.070    585.188    563.693     21.496    562.341    563.451    562.341    562.582    562.341
 10.170    534.852    563.987    -29.135    562.534    563.744    562.534    562.777    562.534
 10.270    640.000    564.288     75.712    562.719    564.044    562.719    562.963    562.719
 10.370    578.000    564.600     13.400    562.897    564.355    562.897    563.141    562.897
 10.470    577.000    564.927     12.073    563.066    564.680    563.066    563.312    563.066
 10.570    525.218    565.273    -40.055    563.228    565.025    563.228    563.475    563.228
 10.670    594.000    565.647     28.353    563.383    565.398    563.383    563.630    563.383
 10.770    565.714    566.062     -0.348    563.530    565.812    563.530    563.778    563.530
 10.870    564.000    566.522     -2.522    563.669    566.271    563.669    563.919    563.669
 10.970    590.495    567.048     23.447    563.801    566.795    563.801    564.052    563.801
 11.070    605.000    567.664     37.336    563.926    567.411    563.926    564.178    563.926
 11.170    536.386    568.408    -32.022    564.043    568.153    564.043    564.296    564.043
 11.270    564.000    569.335     -5.335    564.153    569.078    564.153    564.407    564.153
 11.370    563.362    570.547     -7.185    564.256    570.288    564.256    564.512    564.256
 11.470    601.000    572.261     28.739    564.352    572.001    564.352    564.609    564.352
 11.570    590.708    574.982     15.726    564.441    574.719    564.441    564.699    564.441
 11.670    605.188    579.798     25.390    564.523    579.531    564.523    564.782    564.523
 11.770    582.636    588.659     -6.022    564.599    588.385    564.599    564.858    564.599
 11.870    609.328    604.101      5.228    564.667    603.818    564.667    564.928    564.667
 11.970    664.181    627.757     36.424    564.729    627.460    564.729    564.991    564.729
 12.070    698.000    657.375     40.625    564.784    657.059    564.784    565.047    564.784
 12.170    681.000    683.366     -2.366    564.832    683.035    564.832    565.096    564.832
 12.270    669.000    690.709    -21.709    564.874    690.372    564.874    565.140    564.874
 12.370    639.000    673.510    -34.510    564.910    673.181    564.910    565.176    564.910
 12.470    645.000    643.916      1.084    564.939    643.603    564.939    565.206    564.939
 12.570    581.000    616.185    -35.185    564.961    615.887    564.961    565.230    564.961
 12.670    595.000    596.315     -1.315    564.978    596.027    564.978    565.248    564.978
 12.770    562.696    584.278    -21.582    564.988    583.996    564.988    565.259    564.988
 12.870    620.892    577.690     43.202    564.992    577.411    564.992    565.265    564.992
 12.970    527.000    574.145    -47.145    564.990    573.866    564.990    565.264    564.990
 13.070    558.000    572.087    -14.087    564.982    571.808    564.982    565.257    564.982
 13.170    597.000    570.743     26.257    564.968    570.463    564.968    565.244    564.968
 13.270    556.000    569.777    -13.777    564.948    569.497    564.948    565.226    564.948
 13.370    564.741    569.038     -4.297    564.922    568.757    564.922    565.201    564.922
 13.470    560.000    568.453     -8.453    564.890    568.171    564.890    565.171    564.890
 13.570    533.000    567.978    -34.978    564.853    567.695    564.853    565.135    564.853
 13.670    555.624    567.584    -11.960    564.810    567.299    564.810    565.094    564.810
 13.770    563.000    567.249     -4.249    564.762    566.963    564.762    565.046    564.762
 13.870    569.246    566.958      2.288    564.708    566.671    564.708    564.994    564.708
 13.970    583.881    566.702     17.179    564.648    566.413    564.648    564.936    564.648
 14.070    522.764    566.471    -43.707    564.583    566.181    564.583    564.872    564.583
 14.170    576.000    566.260      9.740    564.513    565.969    564.513    564.803    564.513
 14.270    565.000    566.064     -1.064    564.437    565.772    564.437    564.729    564.437
 14.370    584.043    565.880     18.163    564.357    565.586    564.357    564.650    564.357
 14.470    607.000    565.705     41.295    564.271    565.409    564.271    564.565    564.271
 14.570    549.000    565.536    -16.536    564.179    565.239    564.179    564.476    564.179
 14.670    538.052    565.371    -27.319    564.083    565.073    564.083    564.381    564.083
 14.770    539.000    565.211    -26.211    563.982    564.912    563.982    564.281    563.982
 14.870    557.000    565.054     -8.054    563.876    564.753    563.876    564.177    563.876
 14.970    554.000    564.897    -10.897    563.765    564.594    563.765    564.067    563.765
 15.070    573.629    564.740      8.890    563.649    564.435    563.649    563.953    563.649
 15.170    532.250    564.582    -32.332    563.529    564.276    563.529    563.834    563.529
 15.270    558.870    564.424     -5.554    563.403    564.117    563.403    563.711    563.403
 15.370    557.902    564.265     -6.363    563.273    563.956    563.273    563.582    563.273
 15.470    574.000    564.104      9.896    563.139    563.794    563.139    563.449    563.139
 15.570    549.481    563.942    -14.461    562.999    563.629    562.999    563.312    562.999
 15.670    553.000    563.779    -10.779    562.856    563.465    562.856    563.170    562.856
 15.770    546.000    563.628    -17.628    562.708    563.312    562.708    563.024    562.708
 15.870    560.060    563.471     -3.410    562.555    563.153    562.555    562.873    562.555
 15.970    534.341    563.300    -28.959    562.398    562.980    562.398    562.718    562.398
 16.070    598.000    563.126     34.874    562.237    562.804    562.237    562.559    562.237
 16.170    533.291    562.949    -29.658    562.072    562.625    562.072    562.395    562.072
 16.270    595.275    562.769     32.506    561.902    562.444    561.902    562.227    561.902
 16.370    529.000    562.586    -33.586    561.729    562.259    561.729    562.056    561.729
 16.470    549.000    562.400    -13.400    561.551    562.072    561.551    561.880    561.551
 16.570    542.000    562.214    -20.214    561.369    561.883    561.369    561.700    561.369
 16.670    563.000    562.025      0.975    561.184    561.692    561.184    561.516    561.184
 16.770    543.272    561.836    -18.564    560.994    561.501    560.994    561.329    560.994
 16.870    584.315    561.703     22.613    560.801    561.366    560.801    561.137    560.801
 16.970    588.350    561.556     26.793    560.603    561.217    560.603    560.942    560.603
 17.070    553.000    561.357     -8.357    560.402    561.016    560.402    560.743    560.402
 17.170    530.739    561.151    -30.412    560.198    560.808    560.198    560.541    560.198
 17.270    577.000    560.941     16.059    559.989    560.596    559.989    560.335    559.989
 17.370    601.558    560.729     40.829    559.777    560.381    559.777    560.125    559.777
 17.470    543.000    560.513    -17.513    559.562    560.163    559.562    559.912    559.562
 17.570    538.000    560.294    -22.294    559.343    559.942    559.343    559.695    559.343
 17.670    570.000    560.073      9.927    559.120    559.719    559.120    559.475    559.120
 17.770    543.935    559.849    -15.913    558.895    559.492    558.895    559.251    558.895
 17.870    536.000    559.621    -23.621    558.665    559.262    558.665    559.024    558.665
 17.970    536.000    559.391    -23.391    558.433    559.030    558.433    558.794    558.433
 18.070    538.577    559.159    -20.582    558.197    558.795    558.197    558.561    558.197
 18.170    534.000    558.924    -24.924    557.958    558.558    557.958    558.324    557.958
 18.270    595.052    558.692     36.360    557.716    558.323    557.716    558.085    557.716
 18.370    580.000    558.451     21.549    557.470    558.080    557.470    557.842    557.470
 18.470    546.207    558.208    -12.001    557.222    557.834    557.222    557.596    557.222
 18.570    541.000    557.962    -16.962    556.971    557.585    556.971    557.348    556.971
 18.670    536.865    557.713    -20.848    556.716    557.334    556.716    557.096    556.716
 18.770    529.201    557.462    -28.261    556.459    557.080    556.459    556.841    556.459
 18.870    526.000    557.209    -31.209    556.199    556.824    556.199    556.584    556.199
 18.970    516.667    556.957    -40.290    555.936    556.569    555.936    556.324    555.936
 19.070    563.188    556.705      6.482    555.670    556.314    555.670    556.061    555.670
 19.170    535.000    556.504    -21.504    555.401    556.109    555.401    555.796    555.401
 19.270    555.000    556.254     -1.254    555.130    555.856    555.130    555.527    555.130
 19.370    559.000    555.990      3.010    554.856    555.590    554.856    555.257    554.856
 19.470    550.000    555.724     -5.724    554.580    555.320    554.580    554.983    554.580
 19.570    522.118    555.455    -33.337    554.301    555.048    554.301    554.708    554.301
 19.670    541.000    555.185    -14.185    554.019    554.775    554.019    554.429    554.019
 19.770    520.721    554.912    -34.192    553.735    554.499    553.735    554.149    553.735
 19.870    483.000    554.638    -71.638    553.449    554.221    553.449    553.866    553.449
 19.970    527.000    554.362    -27.362    553.160    553.942    553.160    553.580    553.160
 20.070    577.000    554.085     22.915    552.868    553.661    552.868    553.293    552.868
 20.170    548.000    553.806     -5.806    552.575    553.378    552.575    553.003    552.575
 20.270    551.000    553.525     -2.525    552.279    553.093    552.279    552.711    552.279
 20.370    554.000    553.243      0.757    551.981    552.808    551.981    552.417    551.981
 20.470    522.000    552.960    -30.960    551.681    552.520    551.681    552.120    551.681
 20.570    521.611    552.679    -31.068    551.378    552.235    551.378    551.822    551.378
 20.670    512.000    552.405    -40.405    551.074    551.957    551.074    551.522    551.074
 20.770    526.310    552.130    -25.820    550.767    551.678    550.767    551.220    550.767
 20.870    559.000    551.872      7.128    550.459    551.415    550.459    550.915    550.459
 20.970    551.889    551.622      0.267    550.148    551.161    550.148    550.609    550.148
 21.070    529.000    551.347    -22.347    549.836    550.882    549.836    550.302    549.836
 21.170    532.000    551.059    -19.059    549.522    550.589    549.522    549.992    549.522
 21.270    543.000    550.770     -7.770    549.206    550.295    549.206    549.681    549.206
 21.370    538.000    550.481    -12.481    548.888    550.001    548.888    549.368    548.888
 21.470    508.929    550.191    -41.262    548.568    549.706    548.568    549.053    548.568
 21.570    560.940    549.902     11.038    548.246    549.412    548.246    548.737    548.246
 21.670    541.610    549.614     -8.004    547.923    549.118    547.923    548.419    547.923
 21.770    519.527    549.326    -29.799    547.598    548.825    547.598    548.100    547.598
 21.870    548.790    549.039     -0.249    547.272    548.532    547.272    547.779    547.272
 21.970    532.000    548.754    -16.754    546.944    548.242    546.944    547.457    546.944
 22.070    575.000    548.474     26.526    546.614    547.955    546.614    547.134    546.614
 22.170    569.000    548.215     20.785    546.283    547.689    546.283    546.809    546.283
 22.270    531.000    547.947    -16.947    545.951    547.415    545.951    546.483    545.951
 22.370    550.517    547.677      2.841    545.617    547.138    545.617    546.156    545.617
 22.470    513.000    547.437    -34.437    545.282    546.892    545.282    545.827    545.282
 22.570    552.000    547.230      4.770    544.945    546.678    544.945    545.498    544.945
 22.670    538.000    546.982     -8.982    544.607    546.422    544.607    545.167    544.607
 22.770    505.981    546.750    -40.768    544.268    546.182    544.268    544.836    544.268
 22.870    598.000    546.529     51.471    543.927    545.954    543.927    544.503    543.927
 22.970    543.000    546.343     -3.343    543.585    545.760    543.585    544.169    543.585
 23.070    508.697    546.137    -37.440    543.243    545.545    543.243    543.835    543.243
 23.170    531.000    545.947    -14.947    542.899    545.346    542.899    543.500    542.899
 23.270    540.213    545.787     -5.574    542.553    545.177    542.553    543.164    542.553
 23.370    529.300    545.655    -16.355    542.207    545.036    542.207    542.827    542.207
 23.470    565.000    545.562     19.438    541.860    544.933    541.860    542.490    541.860
 23.570    551.000    545.526      5.474    541.512    544.888    541.512    542.152    541.512
 23.670    534.000    545.557    -11.557    541.163    544.908    541.163    541.813    541.163
 23.770    532.000    545.673    -13.673    540.812    545.014    540.812    541.474    540.812
 23.870    561.000    545.916     15.084    540.461    545.245    540.461    541.135    540.461
 23.970    538.630    546.358     -7.728    540.110    545.676    540.110    540.795    540.110
 24.070    518.000    547.149    -29.149    539.757    546.455    539.757    540.455    539.757
 24.170    547.000    548.631     -1.631    539.403    547.925    539.403    540.115    539.403
 24.270    631.000    551.522     79.478    539.049    550.804    539.049    539.774    539.049
 24.370    563.000    557.085      5.915    538.694    556.357    538.694    539.433    538.694
 24.470    539.000    566.946    -27.946    538.338    566.210    538.338    539.093    538.338
 24.570    621.201    582.148     39.053    537.982    581.407    537.982    538.752    537.982
 24.670    621.000    601.348     19.652    537.625    600.605    537.625    538.412    537.625
 24.770    626.707    618.652      8.056    537.267    617.903    537.267    538.072    537.267
 24.870    648.000    624.280     23.720    536.909    623.517    536.909    537.732    536.909
 24.970    621.000    613.602      7.398    536.550    612.813    536.550    537.393    536.550
 25.070    569.434    593.990    -24.555    536.191    593.166    536.191    537.054    536.191
 25.170    564.000    574.944    -10.944    535.832    574.085    535.832    536.716    535.832
 25.270    586.000    560.808     25.192    535.471    559.917    535.471    536.378    535.471
 25.370    625.000    551.900     73.100    535.111    550.979    535.111    536.042    535.111
 25.470    566.000    546.807     19.193    534.750    545.857    534.750    535.706    534.750
 25.570    518.047    543.938    -25.891    534.388    542.959    534.388    535.372    534.388
 25.670    544.041    542.196      1.845    534.027    541.187    534.027    535.039    534.027
 25.770    539.000    541.006     -2.006    533.665    539.966    533.665    534.708    533.665
 25.870    617.000    540.110     76.890    533.303    539.037    533.303    534.378    533.303
 25.970    531.000    539.399     -8.399    532.940    538.290    532.940    534.050    532.940
 26.070    575.923    538.817     37.105    532.577    537.672    532.577    533.725    532.577
 26.170    560.000    538.337     21.663    532.215    537.152    532.215    533.401    532.215
 26.270    560.000    537.940     22.060    531.852    536.712    531.852    533.081    531.852
 26.370    545.000    537.614      7.386    531.488    536.341    531.488    532.763    531.488
 26.470    535.406    537.356     -1.951    531.125    536.033    531.125    532.449    531.125
 26.570    499.526    537.163    -37.637    530.762    535.787    530.762    532.138    530.762
 26.670    559.000    537.039     21.961    530.399    535.606    530.399    531.832    530.399
 26.770    553.000    536.988     16.012    530.035    535.493    530.035    531.530    530.035
 26.870    554.000    537.020     16.980    529.672    535.459    529.672    531.233    529.672
 26.970    553.688    537.152     16.535    529.308    535.519    529.308    530.942    529.308
 27.070    565.000    537.407     27.593    528.945    535.696    528.945    530.657    528.945
 27.170    560.000    537.819     22.181    528.582    536.022    528.582    530.379    528.582
 27.270    539.000    538.437      0.563    528.219    536.548    528.219    530.108    528.219
 27.370    557.000    539.339     17.661    527.856    537.348    527.856    529.846    527.856
 27.470    542.474    540.665      1.809    527.493    538.563    527.493    529.594    527.493
 27.570    590.000    542.773     47.227    527.130    540.550    527.130    529.352    527.130
 27.670    548.000    546.851      1.149    526.768    544.495    526.768    529.121    526.768
 27.770    616.000    556.672     59.328    526.406    554.169    526.406    528.903    526.406
 27.870    617.000    581.422     35.578    526.044    578.752    526.044    528.699    526.044
 27.970    683.658    635.626     48.032    525.682    632.765    525.682    528.510    525.682
 28.070    711.511    728.310    -16.798    525.321    725.234    525.321    528.337    525.321
 28.170    779.000    841.564    -62.564    524.960    838.259    524.960    528.181    524.960
 28.270    915.000    920.333     -5.333    524.600    916.803    524.600    528.044    524.600
 28.370    894.000    911.501    -17.501    524.239    907.754    524.239    527.926    524.239
 28.470    862.000    829.485     32.515    523.880    825.506    523.880    527.829    523.880
 28.570    763.995    741.059     22.936    523.520    736.815    523.520    527.750    523.520
 28.670    725.105    700.093     25.012    523.161    695.551    523.161    527.691    523.161
 28.770    676.000    718.230    -42.230    522.803    713.367    522.803    527.648    522.803
 28.870    786.000    770.438     15.562    522.445    765.245    522.445    527.619    522.445
 28.970    871.000    809.884     61.116    522.088    804.364    522.088    527.597    522.088
 29.070    816.259    797.480     18.779    521.731    791.639    521.731    527.575    521.731
 29.170    728.000    737.663     -9.663    521.375    731.507    521.375    527.543    521.375
 29.270    660.000    665.163     -5.163    521.019    658.705    521.019    527.491    521.019
 29.370    600.700    607.467     -6.767    520.664    600.738    520.664    527.403    520.664
 29.470    585.000    572.113     12.887    520.309    565.160    520.309    527.268    520.309
 29.570    540.329    554.073    -13.745    519.956    546.960    519.956    527.072    519.956
 29.670    597.000    545.627     51.373    519.602    538.426    519.602    526.806    519.602
 29.770    524.187    541.427    -17.241    519.250    534.214    519.250    526.464    519.250
 29.870    536.321    538.928     -2.607    518.898    531.781    518.898    526.046    518.898
 29.970    531.000    537.180     -6.180    518.547    530.171    518.547    525.556    518.547
 30.070    573.000    535.878     37.122    518.197    529.070    518.197    525.004    518.197
 30.170    545.000    534.957     10.043    517.848    528.402    517.848    524.402    517.848
 30.270    540.000    534.518      5.482    517.499    528.253    517.499    523.762    517.499
 30.370    581.000    534.935     46.065    517.151    528.985    517.151    523.099    517.151
 30.470    537.000    537.074     -0.074    516.804    531.449    516.804    522.424    516.804
 30.570    567.715    542.386     25.330    516.458    537.086    516.458    521.748    516.458
 30.670    554.000    552.423      1.577    516.113    547.440    516.113    521.078    516.113
 30.770    596.000    567.435     28.565    515.768    562.754    515.768    520.421    515.768
 30.870    606.000    584.369     21.631    515.425    579.974    515.425    519.781    515.425
 30.970    639.280    595.900     43.380    515.082    591.779    515.082    519.159    515.082
 31.070    625.000    594.606     30.394    514.741    590.748    514.741    518.557    514.741
 31.170    574.052    580.957     -6.905    514.400    577.349    514.400    517.976    514.400
 31.270    545.000    562.649    -17.649    514.060    559.274    514.060    517.415    514.060
 31.370    547.000    546.656      0.344    513.722    543.492    513.722    516.874    513.722
 31.470    551.000    535.676     15.324    513.384    532.703    513.384    516.351    513.384
 31.570    564.046    529.279     34.767    513.047    526.478    513.047    515.845    513.047
 31.670    535.000    525.879      9.121    512.712    523.234    512.712    515.355    512.712
 31.770    565.071    524.058     41.013    512.377    521.554    512.377    514.880    512.377
 31.870    541.000    522.981     18.019    512.044    520.606    512.044    514.418    512.044
 31.970    525.448    522.269      3.179    511.711    520.010    511.711    513.970    511.711
 32.070    541.000    521.776     19.224    511.380    519.623    511.380    513.532    511.380
 32.170    512.113    521.447     -9.334    511.050    519.391    511.050    513.106    511.050
 32.270    540.000    521.265     18.735    510.721    519.297    510.721    512.689    510.721
 32.370    574.000    521.226     52.774    510.394    519.339    510.394    512.281    510.394
 32.470    511.082    521.339    -10.257    510.067    519.525    510.067    511.881    510.067
 32.570    554.000    521.620     32.380    509.742    519.873    509.742    511.488    509.742
 32.670    533.223    522.099     11.124    509.418    520.413    509.418    511.103    509.418
 32.770    547.676    522.818     24.858    509.095    521.188    509.095    510.724    509.095
 32.870    517.000    523.839     -6.839    508.773    522.260    508.773    510.351    508.773
 32.970    494.762    525.257    -30.495    508.453    523.725    508.453    509.984    508.453
 33.070    567.000    527.217     39.783    508.133    525.728    508.133    509.621    508.133
 33.170    560.000    529.989     30.011    507.815    528.539    507.815    509.264    507.815
 33.270    514.000    534.160    -20.160    507.499    532.746    507.499    508.911    507.499
 33.370    514.000    541.116    -27.116    507.184    539.735    507.184    508.562    507.184
 33.470    541.000    553.954    -12.954    506.870    552.601    506.870    508.217    506.870
 33.570    530.415    578.545    -48.130    506.557    577.215    506.557    507.876    506.557
 33.670    614.000    623.494     -9.494    506.246    622.183    506.246    507.538    506.246
 33.770    692.000    696.968     -4.968    505.936    695.671    505.936    507.204    505.936
 33.870    790.000    799.306     -9.306    505.628    798.021    505.628    506.874    505.628
 33.970    927.563    913.061     14.502    505.320    911.791    505.320    506.546    505.320
 34.070    982.714    997.424    -14.710    505.015    996.180    505.015    506.222    505.015
 34.170    970.000   1006.685    -36.685    504.711   1005.476    504.711    505.900    504.711
 34.270    920.000    934.217    -14.217    504.408    933.041    504.408    505.581    504.408
 34.370    790.488    821.357    -30.869    504.106    820.204    504.106    505.265    504.106
 34.470    669.664    713.463    -43.800    503.806    712.325    503.806    504.952    503.806
 34.570    661.000    632.833     28.167    503.508    631.705    503.508    504.641    503.508
 34.670    567.000    581.899    -14.899    503.211    580.780    503.211    504.332    503.211
 34.770    562.000    553.291      8.709    502.915    552.181    502.915    504.027    502.915
 34.870    556.000    538.024     17.976    502.621    536.922    502.621    503.723    502.621
 34.970    533.000    529.554      3.446    502.329    528.461    502.329    503.422    502.329
 35.070    477.000    524.295    -47.295    502.038    523.210    502.038    503.123    502.038
 35.170    508.822    520.608    -11.786    501.748    519.530    501.748    502.827    501.748
 35.270    523.000    517.802      5.198    501.461    516.730    501.461    502.533    501.461
 35.370    502.000    515.568    -13.568    501.174    514.501    501.174    502.241    501.174
 35.470    508.842    513.739     -4.897    500.889    512.677    500.889    501.951    500.889
 35.570    512.000    512.213     -0.213    500.606    511.155    500.606    501.664    500.606
 35.670    513.000    510.919      2.081    500.325    509.865    500.325    501.379    500.325
 35.770    486.000    509.805    -23.805    500.045    508.755    500.045    501.095    500.045
 35.870    487.000    508.836    -21.836    499.766    507.788    499.766    500.814    499.766
 35.970    536.000    507.982     28.018    499.489    506.936    499.489    500.535    499.489
 36.070    495.011    507.224    -12.213    499.214    506.180    499.214    500.259    499.214
 36.170    472.445    506.546    -34.101    498.941    505.503    498.941    499.984    498.941
 36.270    539.122    505.937     33.185    498.669    504.894    498.669    499.711    498.669
 36.370    474.000    505.387    -31.387    498.399    504.345    498.399    499.441    498.399
 36.470    541.000    504.892     36.108    498.130    503.850    498.130    499.173    498.130
 36.570    509.000    504.448      4.552    497.863    503.405    497.863    498.906    497.863
 36.670    510.000    504.054      5.946    497.598    503.010    497.598    498.642    497.598
 36.770    509.000    503.716      5.284    497.334    502.671    497.334    498.380    497.334
 36.870    517.803    503.447     14.356    497.072    502.400    497.072    498.120    497.072
 36.970    536.468    503.284     33.184    496.812    502.235    496.812    497.862    496.812
 37.070    480.000    503.303    -23.303    496.554    502.252    496.554    497.606    496.554
 37.170    472.699    503.645    -30.945    496.297    502.591    496.297    497.352    496.297
 37.270    519.000    504.513     14.487    496.042    503.456    496.042    497.100    496.042
 37.370    448.000    506.122    -58.122    495.789    505.062    495.789    496.850    495.789
 37.470    496.625    508.563    -11.938    495.537    507.500    495.537    496.602    495.537
 37.570    524.000    511.609     12.391    495.287    510.543    495.287    496.357    495.287
 37.670    496.000    514.495    -18.495    495.039    513.426    495.039    496.113    495.039
 37.770    491.613    515.946    -24.333    494.793    514.873    494.793    495.872    494.793
 37.870    535.000    515.118     19.882    494.548    514.042    494.548    495.632    494.548
 37.970    552.000    512.550     39.450    494.306    511.471    494.306    495.395    494.306
 38.070    509.000    509.357     -0.357    494.065    508.273    494.065    495.160    494.065
 38.170    483.000    506.271    -23.271    493.825    505.181    493.825    494.926    493.825
 38.270    504.000    503.639      0.361    493.588    502.540    493.588    494.695    493.588
 38.370    492.000    501.597     -9.597    493.352    500.490    493.352    494.466    493.352
 38.470    469.000    500.122    -31.122    493.118    499.005    493.118    494.240    493.118
 38.570    465.000    499.090    -34.090    492.886    497.964    492.886    494.015    492.886
 38.670    435.000    498.364    -63.364    492.656    497.230    492.656    493.792    492.656
 38.770    491.000    497.832     -6.832    492.428    496.690    492.428    493.572    492.428
 38.870    489.000    497.415     -8.415    492.201    496.264    492.201    493.353    492.201
 38.970    501.000    497.071      3.929    491.976    495.911    491.976    493.137    491.976
 39.070    455.813    496.770    -40.958    491.754    495.602    491.754    492.923    491.754
 39.170    449.000    496.498    -47.498    491.532    495.320    491.532    492.711    491.532
 39.270    458.000    496.248    -38.248    491.313    495.060    491.313    492.502    491.313
 39.370    485.000    496.014    -11.014    491.096    494.816    491.096    492.294    491.096
 39.470    480.000    495.795    -15.795    490.880    494.587    490.880    492.089    490.880
 39.570    462.858    495.590    -32.732    490.666    494.371    490.666    491.886    490.666
 39.670    516.000    495.397     20.603    490.455    494.167    490.455    491.685    490.455
 39.770    517.808    495.215     22.593    490.245    493.974    490.245    491.486    490.245
 39.870    515.000    495.044     19.956    490.036    493.792    490.036    491.290    490.036
 39.970    447.000    494.885    -47.885    489.830    493.620    489.830    491.096    489.830
 40.070    485.000    494.737     -9.737    489.626    493.460    489.626    490.904    489.626
 40.170    483.000    494.601    -11.601    489.423    493.311    489.423    490.714    489.423
 40.270    481.971    494.478    -12.507    489.222    493.174    489.222    490.527    489.222
 40.370    514.000    494.368     19.632    489.024    493.051    489.024    490.341    489.024
 40.470    479.000    494.272    -15.272    488.827    492.941    488.827    490.159    488.827
 40.570    534.884    494.193     40.691    488.632    492.847    488.632    489.978    488.632
 40.670    480.000    494.132    -14.132    488.438    492.771    488.438    489.800    488.438
 40.770    487.000    494.092     -7.092    488.247    492.716    488.247    489.625    488.247
 40.870    453.355    494.076    -40.722    488.058    492.684    488.058    489.451    488.058
 40.970    528.668    494.089     34.579    487.870    492.680    487.870    489.280    487.870
 41.070    496.564    494.135      2.429    487.685    492.709    487.685    489.112    487.685
 41.170    475.493    494.222    -18.729    487.501    492.779    487.501    488.946    487.501
 41.270    464.000    494.359    -30.359    487.319    492.898    487.319    488.782    487.319
 41.370    494.000    494.560     -0.560    487.139    493.080    487.139    488.621    487.139
 41.470    456.000    494.841    -38.841    486.961    493.342    486.961    488.462    486.961
 41.570    499.000    495.229      3.771    486.785    493.710    486.785    488.306    486.785
 41.670    524.000    495.770     28.230    486.611    494.231    486.611    488.153    486.611
 41.770    500.000    496.553      3.447    486.439    494.993    486.439    488.002    486.439
 41.870    510.178    497.770     12.408    486.268    496.189    486.268    487.853    486.268
 41.970    515.000    499.816     15.184    486.100    498.213    486.100    487.707    486.100
 42.070    534.023    503.430     30.592    485.933    501.806    485.933    487.564    485.933
 42.170    489.000    509.786    -20.786    485.768    508.140    485.768    487.424    485.768
 42.270    491.000    520.337    -29.337    485.606    518.671    485.606    487.286    485.606
 42.370    502.487    536.255    -33.768    485.445    534.571    485.445    487.152    485.445
 42.470    518.878    557.452    -38.574    485.286    555.751    485.286    487.020    485.286
 42.570    614.368    581.388     32.980    485.129    579.672    485.129    486.890    485.129
 42.670    595.000    602.054     -7.054    484.973    600.321    484.973    486.764    484.973
 42.770    606.000    610.926     -4.926    484.820    609.170    484.820    486.641    484.820
 42.870    531.000    603.164    -72.164    484.669    601.376    484.669    486.520    484.669
 42.970    550.738    583.029    -32.291    484.519    581.199    484.519    486.403    484.519
 43.070    588.295    558.978     29.318    484.372    557.103    484.372    486.289    484.372
 43.170    530.000    537.283     -7.283    484.226    535.361    484.226    486.178    484.226
 43.270    521.000    520.746      0.254    484.082    518.778    484.082    486.070    484.082
 43.370    533.000    509.621     23.379    483.940    507.609    483.940    485.966    483.940
 43.470    480.000    502.807    -22.807    483.800    500.752    483.800    485.865    483.800
 43.570    434.000    498.852    -64.852    483.662    496.754    483.662    485.767    483.662
 43.670    508.564    496.554     12.010    483.526    494.411    483.526    485.673    483.526
 43.770    450.000    495.137    -45.137    483.392    492.950    483.392    485.583    483.392
 43.870    504.000    494.183      9.817    483.260    491.949    483.260    485.496    483.260
 43.970    490.971    493.486     -2.515    483.129    491.204    483.129    485.413    483.129
 44.070    445.000    492.952    -47.952    483.000    490.620    483.000    485.335    483.000
 44.170    487.000    492.532     -5.532    482.874    490.147    482.874    485.260    482.874
 44.270    502.000    492.198      9.802    482.749    489.759    482.749    485.190    482.749
 44.370    507.383    491.934     15.449    482.626    489.438    482.626    485.124    482.626
 44.470    494.000    491.726      2.274    482.505    489.170    482.505    485.062    482.505
 44.570    482.000    491.565     -9.565    482.386    488.946    482.386    485.005    482.386
 44.670    489.000    491.444     -2.444    482.268    488.760    482.268    484.954    482.268
 44.770    488.000    491.359     -3.359    482.153    488.606    482.153    484.907    482.153
 44.870    516.000    491.306     24.694    482.039    488.481    482.039    484.866    482.039
 44.970    516.000    491.282     24.718    481.928    488.381    481.928    484.830    481.928
 45.070    521.000    491.286     29.714    481.818    488.304    481.818    484.800    481.818
 45.170    531.899    491.315     40.584    481.710    488.250    481.710    484.776    481.710
 45.270    549.000    491.371     57.629    481.604    488.216    481.604    484.759    481.604
 45.370    507.877    491.452     16.426    481.499    488.203    481.499    484.749    481.499
 45.470    509.000    491.558     17.442    481.397    488.210    481.397    484.746    481.397
 45.570    454.629    491.692    -37.063    481.296    488.237    481.296    484.751    481.296
 45.670    461.513    491.853    -30.340    481.198    488.286    481.198    484.764    481.198
 45.770    440.000    492.043    -52.043    481.101    488.358    481.101    484.786    481.101
 45.870    503.000    492.265     10.735    481.006    488.454    481.006    484.818    481.006
 45.970    478.854    492.522    -13.668    480.912    488.575    480.912    484.859    480.912
 46.070    507.000    492.816     14.184    480.821    488.726    480.821    484.911    480.821
 46.170    514.092    493.153     20.939    480.731    488.909    480.731    484.975    480.731
 46.270    461.000    493.537    -32.537    480.644    489.129    480.644    485.052    480.644
 46.370    479.000    493.977    -14.977    480.558    489.392    480.558    485.143    480.558
 46.470    519.871    494.480     25.390    480.473    489.706    480.473    485.248    480.473
 46.570    509.000    495.060     13.940    480.391    490.081    480.391    485.370    480.391
 46.670    507.000    495.732     11.268    480.311    490.533    480.311    485.509    480.311
 46.770    557.000    496.524     60.476    480.232    491.087    480.232    485.669    480.232
 46.870    493.000    497.485     -4.485    480.155    491.790    480.155    485.849    480.155
 46.970    456.000    498.712    -42.712    480.080    492.738    480.080    486.053    480.080
 47.070    510.000    500.393      9.607    480.006    494.115    480.006    486.282    480.006
 47.170    468.679    502.867    -34.188    479.935    496.258    479.935    486.540    479.935
 47.270    540.000    506.676     33.324    479.865    499.706    479.865    486.829    479.865
 47.370    538.155    512.538     25.617    479.797    505.172    479.797    487.152    479.797
 47.470    493.645    521.172    -27.526    479.731    513.374    479.731    487.513    479.731
 47.570    549.000    532.945     16.055    479.666    524.673    479.666    487.915    479.666
 47.670    559.000    547.394     11.606    479.603    538.602    479.603    488.362    479.603
 47.770    531.126    562.727    -31.601    479.542    553.369    479.542    488.858    479.542
 47.870    594.000    575.503     18.497    479.483    565.530    479.483    489.407    479.483
 47.970    593.000    581.404     11.596    479.425    570.764    479.425    490.015    479.425
 48.070    526.000    578.267    -52.267    479.369    566.907    479.369    490.684    479.369
 48.170    528.733    568.344    -39.611    479.315    556.202    479.315    491.420    479.315
 48.270    517.767    555.998    -38.231    479.263    543.009    479.263    492.224    479.263
 48.370    524.000    544.690    -20.690    479.212    530.782    479.212    493.101    479.212
 48.470    541.000    536.241      4.759    479.163    521.343    479.163    494.050    479.163
 48.570    513.016    531.152    -18.137    479.116    515.191    479.116    495.070    479.116
 48.670    467.000    529.102    -62.102    479.070    512.012    479.070    496.157    479.070
 48.770    518.863    529.437    -10.575    479.026    511.162    479.026    497.301    479.026
 48.870    536.000    531.531      4.469    478.984    512.028    478.984    498.487    478.984
 48.970    503.983    534.971    -30.989    478.943    514.222    478.943    499.694    478.943
 49.070    567.441    539.642     27.799    478.904    517.657    478.904    500.891    478.904
 49.170    573.000    545.836     27.164    478.867    522.665    478.867    502.040    478.867
 49.270    557.000    554.648      2.352    478.831    530.384    478.831    503.097    478.831
 49.370    614.000    568.966     45.034    478.797    543.754    478.797    504.009    478.797
 49.470    610.000    595.360     14.640    478.765    569.391    478.765    504.728    478.765
 49.570    640.000    646.602     -6.602    478.734    620.113    478.734    505.209    478.734
 49.670    742.000    743.129     -1.129    478.705    716.383    478.705    505.419    478.705
 49.770    882.000    910.023    -28.023    478.677    883.296    478.677    505.345    478.677
 49.870   1167.472   1166.235      1.237    478.651   1139.803    478.651    504.992    478.651
 49.970   1509.424   1507.006      2.417    478.627   1481.131    478.627    504.388    478.627
 50.070   1902.724   1887.221     15.503    478.604   1862.140    478.604    503.571    478.604
 50.170   2182.000   2217.283    -35.283    478.583   2193.202    478.583    502.592    478.583
 50.270   2397.328   2386.260     11.069    478.563   2363.336    478.563    501.501    478.563
 50.370   2317.397   2324.741     -7.344    478.545   2303.057    478.545    500.347    478.545
 50.470   2099.000   2060.873     38.127    478.529   2040.422    478.529    499.170    478.529
 50.570   1725.874   1694.885     30.989    478.514   1675.608    478.514    498.003    478.514
 50.670   1276.000   1331.368    -55.368    478.500   1313.188    478.500    496.872    478.500
 50.770    989.167   1037.778    -48.612    478.488   1020.624    478.488    495.794    478.488
 50.870    802.000    836.800    -34.800    478.478    820.607    478.478    494.780    478.478
 50.970    736.889    718.068     18.821    478.469    702.777    478.469    493.837    478.469
 51.070    621.458    656.265    -34.808    478.462    641.817    478.462    492.968    478.462
 51.170    648.735    625.683     23.052    478.456    612.014    478.456    492.172    478.456
 51.270    653.402    607.735     45.667    478.452    594.779    478.452    491.448    478.452
 51.370    613.101    592.822     20.279    478.449    580.512    478.449    490.793    478.449
 51.470    573.727    578.302     -4.575    478.447    566.574    478.447    490.203    478.447
 51.570    549.000    564.742    -15.742    478.447    553.537    478.447    489.675    478.447
 51.670    570.000    553.198     16.802    478.449    542.461    478.449    489.204    478.449
 51.770    518.031    544.281    -26.250    478.452    533.960    478.452    488.785    478.452
 51.870    553.000    538.049     14.951    478.456    528.099    478.456    488.416    478.456
 51.970    549.000    534.188     14.812    478.462    524.566    478.462    488.092    478.462
 52.070    565.000    532.249     32.751    478.469    522.915    478.469    487.809    478.469
 52.170    559.227    531.837     27.390    478.477    522.756    478.477    487.565    478.477
 52.270    489.697    532.722    -43.026    478.487    523.860    478.487    487.356    478.487
 52.370    594.000    534.925     59.075    478.499    526.250    478.499    487.180    478.499
 52.470    534.000    538.814     -4.814    478.512    530.297    478.512    487.033    478.512
 52.570    561.000    545.289     15.711    478.526    536.905    478.526    486.915    478.526
 52.670    563.000    556.076      6.924    478.541    547.798    478.541    486.823    478.541
 52.770    554.209    574.031    -19.822    478.558    565.838    478.558    486.756    478.558
 52.870    610.000    603.253      6.747    478.576    595.122    478.576    486.712    478.576
 52.970    682.000    648.636     33.364    478.596    640.547    478.596    486.689    478.596
 53.070    700.000    714.569    -14.569    478.616    706.504    478.616    486.687    478.616
 53.170    858.000    802.760     55.240    478.639    794.702    478.639    486.706    478.639
 53.270    931.000    909.553     21.447    478.662    901.486    478.662    486.743    478.662
 53.370   1038.370   1023.270     15.100    478.687   1015.179    478.687    486.799    478.687
 53.470   1207.000   1122.592     84.408    478.713   1114.464    478.713    486.873    478.713
 53.570   1244.680   1179.941     64.739    478.740   1171.761    478.740    486.966    478.740
 53.670   1145.000   1175.028    -30.028    478.768   1166.776    478.768    487.076    478.768
 53.770   1086.094   1110.057    -23.963    478.798   1101.711    478.798    487.203    478.798
 53.870   1048.000   1007.719     40.281    478.829    999.256    478.829    487.349    478.829
 53.970    925.000    895.041     29.959    478.861    886.438    478.861    487.513    478.861
 54.070    791.000    791.759     -0.759    478.895    782.997    478.895    487.695    478.895
 54.170    700.169    708.116     -7.947    478.930    699.178    478.930    487.896    478.930
 54.270    655.990    646.737      9.254    478.965    637.607    478.965    488.116    478.965
 54.370    621.448    605.329     16.119    479.002    595.990    479.002    488.357    479.002
 54.470    572.795    579.315     -6.521    479.041    569.749    479.041    488.618    479.041
 54.570    594.000    563.882     30.118    479.080    554.070    479.080    488.901    479.080
 54.670    596.000    555.129     40.871    479.120    545.049    479.120    489.208    479.120
 54.770    520.148    550.395    -30.247    479.162    540.025    479.162    489.538    479.162
 54.870    593.280    548.092     45.188    479.205    537.409    479.205    489.895    479.205
 54.970    524.653    547.372    -22.719    479.249    536.348    479.249    490.279    479.249
 55.070    591.000    547.825     43.175    479.294    536.432    479.294    490.693    479.294
 55.170    591.000    549.280     41.720    479.340    537.488    479.340    491.138    479.340
 55.270    562.708    551.700     11.008    479.387    539.476    479.387    491.618    479.387
 55.370    592.778    555.135     37.644    479.435    542.442    479.435    492.134    479.435
 55.470    554.000    559.726     -5.726    479.485    546.526    479.485    492.691    479.485
 55.570    557.228    565.759     -8.531    479.535    552.010    479.535    493.291    479.535
 55.670    606.000    573.806     32.194    479.587    559.460    479.587    493.940    479.587
 55.770    590.000    585.015      4.985    479.639    570.021    479.639    494.640    479.639
 55.870    606.000    601.651      4.349    479.692    585.952    479.692    495.398    479.692
 55.970    632.312    627.912      4.400    479.747    611.447    479.747    496.218    479.747
 56.070    665.000    670.907     -5.907    479.802    653.606    479.802    497.108    479.802
 56.170    718.000    741.298    -23.298    479.859    723.086    479.859    498.073    479.859
 56.270    833.938    852.768    -18.830    479.916    833.561    479.916    499.122    479.916
 56.370    948.000   1019.328    -71.328    479.975    999.037    479.975    500.262    479.975
 56.470   1241.000   1250.092     -9.092    480.034   1228.620    480.034    501.503    480.034
 56.570   1558.265   1542.299     15.966    480.094   1519.547    480.094    502.853    480.094
 56.670   1764.000   1874.497   -110.497    480.156   1850.359    480.156    504.325    480.156
 56.770   2279.263   2201.861     77.401    480.218   2176.224    480.218    505.929    480.218
 56.870   2466.000   2457.154      8.846    480.281   2429.893    480.281    507.677    480.281
 56.970   2508.000   2567.985    -59.985    480.345   2538.956    480.345    509.582    480.345
 57.070   2532.000   2497.054     34.946    480.409   2466.081    480.409    511.657    480.409
 57.170   2350.048   2270.862     79.186    480.475   2237.730    480.475    513.914    480.475
 57.270   1939.000   1958.144    -19.144    480.542   1922.620    480.542    516.368    480.542
 57.370   1647.000   1628.812     18.188    480.609   1590.658    480.609    519.032    480.609
 57.470   1278.000   1332.496    -54.496    480.677   1291.475    480.677    521.916    480.677
 57.570   1132.735   1095.202     37.533    480.746   1051.084    480.746    525.029    480.746
 57.670    973.234    923.196     50.038    480.816    875.751    480.816    528.379    480.816
 57.770    780.000    809.641    -29.641    480.887    758.643    480.887    531.966    480.887
 57.870    745.000    741.859      3.141    480.958    687.088    480.958    535.784    480.958
 57.970    722.083    707.185     14.898    481.030    648.436    481.030    539.816    481.030
 58.070    751.000    696.295     54.705    481.103    633.387    481.103    544.035    481.103
 58.170    743.162    704.068     39.093    481.177    636.865    481.177    548.394    481.177
 58.270    711.000    728.766    -17.766    481.251    657.194    481.251    552.829    481.251
 58.370    794.000    770.361     23.639    481.326    694.431    481.326    557.253    481.326
 58.470    806.598    828.671    -22.072    481.402    748.505    481.402    561.556    481.402
 58.570    849.863    901.703    -51.840    481.478    817.559    481.478    565.607    481.478
 58.670    974.351    984.510    -10.159    481.556    896.792    481.556    569.258    481.556
 58.770   1034.000   1069.212    -35.212    481.634    978.481    481.634    572.355    481.634
 58.870   1083.000   1146.944    -63.944    481.712   1053.906    481.712    574.751    481.712
 58.970   1190.000   1210.269    -20.269    481.791   1115.751    481.791    576.324    481.791
 59.070   1301.000   1253.115     47.885    481.871   1158.027    481.871    576.988    481.871
 59.170   1293.216   1270.014     23.202    481.952   1175.298    481.952    576.711    481.952
 59.270   1399.000   1259.138    139.862    482.033   1165.708    482.033    575.514    482.033
 59.370   1172.662   1226.612    -53.950    482.114   1135.303    482.114    573.473    482.114
 59.470   1222.238   1185.183     37.055    482.196   1096.713    482.196    570.704    482.196
 59.570   1176.000   1148.606     27.394    482.279   1063.548    482.279    567.349    482.279
 59.670   1152.682   1128.333     24.349    482.363   1047.109    482.363    563.562    482.363
 59.770   1248.000   1133.803    114.197    482.446   1056.689    482.446    559.495    482.446
 59.870   1206.000   1171.954     34.046    482.531   1099.092    482.531    555.281    482.531
 59.970   1290.000   1243.436     46.564    482.616   1174.855    482.616    551.036    482.616
 60.070   1295.000   1338.753    -43.753    482.701   1274.400    482.701    546.852    482.701
 60.170   1371.818   1437.364    -65.546    482.787   1377.122    482.787    542.798    482.787
 60.270   1489.000   1510.261    -21.261    482.874   1453.975    482.874    538.924    482.874
 60.370   1502.000   1528.327    -26.327    482.960   1475.813    482.960    535.261    482.960
 60.470   1493.000   1477.158     15.842    483.048   1428.210    483.048    531.828    483.048
 60.570   1373.672   1366.327      7.345    483.136   1320.717    483.136    528.633    483.136
 60.670   1195.507   1221.475    -25.968    483.224   1178.957    483.224    525.676    483.224
 60.770   1086.000   1069.901     16.099    483.312   1030.231    483.312    522.953    483.312
 60.870    983.422    932.372     51.050    483.401    895.313    483.401    520.453    483.401
 60.970    881.000    820.988     60.012    483.491    786.316    483.491    518.166    483.491
 61.070    691.000    740.023    -49.023    483.581    707.531    483.581    516.078    483.581
 61.170    655.000    688.386    -33.386    483.671    657.884    483.671    514.176    483.671
 61.270    702.000    662.740     39.260    483.761    634.053    483.761    512.444    483.761
 61.370    662.088    660.203      1.885    483.852    633.174    483.852    510.868    483.852
 61.470    672.000    679.859     -7.859    483.943    654.342    483.943    509.434    483.943
 61.570    739.259    722.795     16.464    484.035    698.659    484.035    508.129    484.035
 61.670    736.000    790.776    -54.776    484.127    767.902    484.127    506.939    484.127
 61.770    923.884    883.986     39.898    484.219    862.268    484.219    505.852    484.219
 61.870    944.000    998.612    -54.612    484.311    977.959    484.311    504.856    484.311
 61.970   1187.679   1124.860     62.819    484.404   1105.195    484.404    503.943    484.404
 62.070   1225.000   1246.037    -21.037    484.497   1227.297    484.497    503.101    484.497
 62.170   1372.550   1339.629     32.921    484.590   1321.764    484.590    502.325    484.590
 62.270   1286.000   1382.755    -96.755    484.683   1365.724    484.683    501.608    484.683
 62.370   1332.000   1362.774    -30.774    484.777   1346.535    484.777    500.944    484.777
 62.470   1304.621   1285.181     19.439    484.870   1269.688    484.870    500.328    484.870
 62.570   1106.000   1169.759    -63.759    484.964   1154.959    484.964    499.758    484.964
 62.670   1052.000   1039.889     12.111    485.058   1025.729    485.058    499.230    485.058
 62.770    886.000    914.850    -28.850    485.153    901.282    485.153    498.742    485.153
 62.870    797.000    807.098    -10.098    485.247    794.078    485.247    498.290    485.247
 62.970    657.000    722.312    -65.312    485.341    709.800    485.341    497.873    485.341
 63.070    664.206    660.741      3.465    485.436    648.703    485.436    497.490    485.436
 63.170    591.000    619.205    -28.205    485.531    607.609    485.531    497.136    485.531
 63.270    591.000    593.119     -2.119    485.626    581.938    485.626    496.812    485.626
 63.370    636.000    578.072     57.928    485.720    567.278    485.720    496.516    485.720
 63.470    589.094    570.721     18.373    485.815    560.291    485.815    496.244    485.815
 63.570    593.000    569.118     23.882    485.910    559.027    485.910    495.997    485.910
 63.670    592.000    572.667     19.333    486.005    562.893    486.005    495.771    486.005
 63.770    620.000    581.910     38.090    486.101    572.431    486.101    495.567    486.101
 63.870    619.000    598.213     20.787    486.196    589.008    486.196    495.382    486.196
 63.970    669.967    623.354     46.613    486.291    614.401    486.291    495.216    486.291
 64.070    609.480    658.949    -49.468    486.386    650.228    486.386    495.066    486.386
 64.170    724.000    705.748     18.252    486.481    697.241    486.481    494.933    486.481
 64.270    746.778    762.862    -16.084    486.576    754.553    486.576    494.815    486.576
 64.370    807.930    827.038    -19.108    486.671    818.913    486.671    494.711    486.671
 64.470    919.000    892.144     26.856    486.766    884.194    486.766    494.620    486.766
 64.570    951.000    949.297      1.703    486.860    941.515    486.860    494.541    486.860
 64.670   1014.760    988.581     26.180    486.955    980.965    486.955    494.475    486.955
 64.770    981.000   1002.700    -21.700    487.050    995.248    487.050    494.419    487.050
 64.870   1009.736    990.178     19.558    487.144    982.887    487.144    494.374    487.144
 64.970    927.444    955.357    -27.912    487.239    948.218    487.239    494.339    487.239
 65.070    866.000    906.018    -40.018    487.333    899.023    487.333    494.314    487.333
 65.170    802.000    850.688    -48.688    487.427    843.823    487.427    494.297    487.427
 65.270    781.000    796.401    -15.401    487.521    789.652    487.521    494.289    487.521
 65.370    724.000    747.451    -23.451    487.614    740.806    487.614    494.289    487.614
 65.470    707.000    705.449      1.551    487.708    698.895    487.708    494.297    487.708
 65.570    689.511    670.343     19.168    487.801    663.868    487.801    494.313    487.801
 65.670    633.000    641.554     -8.554    487.894    635.146    487.894    494.336    487.894
 65.770    603.418    618.483    -15.065    487.987    612.133    487.987    494.365    487.987
 65.870    593.000    600.508     -7.508    488.079    594.208    488.079    494.402    488.079
 65.970    555.000    586.946    -31.946    488.172    580.689    488.172    494.445    488.172
 66.070    602.833    577.120     25.713    488.264    570.902    488.264    494.495    488.264
 66.170    568.000    570.435     -2.435    488.356    564.248    488.356    494.551    488.356
 66.270    536.000    566.401    -30.401    488.447    560.242    488.447    494.613    488.447
 66.370    559.733    564.640     -4.908    488.538    558.503    488.538    494.682    488.538
 66.470    526.631    564.894    -38.263    488.629    558.773    488.629    494.756    488.629
 66.570    581.722    567.069     14.653    488.719    560.958    488.719    494.837    488.719
 66.670    581.380    571.330     10.050    488.809    565.223    488.809    494.924    488.809
 66.770    541.000    578.247    -37.247    488.899    572.138    488.899    495.016    488.899
 66.870    581.705    589.016     -7.311    488.989    582.898    488.989    495.115    488.989
 66.970    586.000    605.747    -19.747    489.078    599.613    489.078    495.220    489.078
 67.070    630.000    631.789     -1.789    489.166    625.632    489.166    495.332    489.166
 67.170    667.000    671.971     -4.971    489.254    665.784    489.254    495.449    489.254
 67.270    689.549    732.561    -43.012    489.342    726.339    489.342    495.573    489.342
 67.370    791.000    820.721    -29.721    489.429    814.459    489.429    495.704    489.429
 67.470    916.764    943.258    -26.494    489.516    936.951    489.516    495.842    489.516
 67.570   1097.000   1104.667     -7.667    489.602   1098.315    489.602    495.987    489.602
 67.670   1269.000   1304.731    -35.731    489.688   1298.336    489.688    496.140    489.688
 67.770   1607.237   1536.165     71.072    489.774   1529.730    489.774    496.300    489.774
 67.870   1860.000   1782.802     77.198    489.859   1776.331    489.859    496.468    489.859
 67.970   2096.631   2018.837     77.794    489.943   2012.334    489.943    496.645    489.943
 68.070   2322.000   2210.290    111.710    490.027   2203.756    490.027    496.831    490.027
 68.170   2357.804   2321.390     36.413    490.110   2314.814    490.110    497.026    490.110
 68.270   2348.000   2327.286     20.714    490.193   2320.643    490.193    497.232    490.193
 68.370   2314.000   2226.578     87.422    490.275   2219.828    490.275    497.448    490.275
 68.470   2077.000   2042.171     34.829    490.357   2035.269    490.357    497.676    490.357
 68.570   1740.638   1809.460    -68.822    490.438   1802.366    490.438    497.916    490.438
 68.670   1601.000   1563.060     37.940    490.518   1555.742    490.518    498.169    490.518
 68.770   1343.368   1329.736     13.632    490.598   1322.171    490.598    498.436    490.598
 68.870   1147.436   1126.614     20.822    490.677   1118.786    490.677    498.719    490.677
 68.970    928.000    961.802    -33.802    490.755    953.700    490.755    499.019    490.755
 69.070    875.139    836.121     39.018    490.833    827.735    490.833    499.337    490.833
 69.170    796.162    745.431     50.731    490.910    736.749    490.910    499.675    490.910
 69.270    693.881    683.046     10.835    490.987    674.056    490.987    500.035    490.987
 69.370    600.113    641.756    -41.643    491.063    632.441    491.063    500.419    491.063
 69.470    597.000    615.146    -18.146    491.138    605.484    491.138    500.830    491.138
 69.570    571.145    598.205    -27.061    491.212    588.169    491.212    501.271    491.212
 69.670    603.000    587.396     15.604    491.286    576.955    491.286    501.745    491.286
 69.770    560.864    580.423    -19.559    491.359    569.541    491.359    502.255    491.359
 69.870    578.000    575.899      2.101    491.431    564.535    491.431    502.807    491.431
 69.970    567.000    573.035     -6.035    491.503    561.144    491.503    503.405    491.503
 70.070    568.000    571.410     -3.410    491.573    558.938    491.573    504.054    491.573
 70.170    550.000    570.819    -20.819    491.643    557.709    491.643    504.761    491.643
 70.270    571.000    571.194     -0.194    491.712    557.380    491.712    505.533    491.712
 70.370    568.351    572.578     -4.227    491.780    557.987    491.780    506.378    491.780
 70.470    580.000    575.136      4.864    491.848    559.685    491.848    507.304    491.848
 70.570    619.000    579.214     39.786    491.914    562.811    491.914    508.321    491.914
 70.670    586.000    585.435      0.565    491.980    567.977    491.980    509.440    491.980
 70.770    574.000    594.841    -20.841    492.045    576.213    492.045    510.671    492.045
 70.870    643.000    609.064     33.936    492.109    589.140    492.109    512.028    492.109
 70.970    617.000    630.486    -13.486    492.172    609.125    492.172    513.522    492.172
 71.070    690.763    662.318     28.445    492.235    639.366    492.235    515.168    492.235
 71.170    721.179    708.497     12.681    492.296    683.785    492.296    516.979    492.296
 71.270    764.000    773.290     -9.290    492.357    746.634    492.357    518.968    492.357
 71.370    817.000    860.546    -43.546    492.416    831.752    492.416    521.150    492.416
 71.470    933.000    972.624    -39.624    492.475    941.485    492.475    523.537    492.475
 71.570   1068.468   1109.141    -40.674    492.532   1075.442    492.532    526.138    492.532
 71.670   1230.384   1265.777    -35.394    492.589   1229.298    492.589    528.961    492.589
 71.770   1456.000   1433.367     22.633    492.645   1393.887    492.645    532.010    492.645
 71.870   1628.000   1597.448     30.552    492.700   1554.756    492.700    535.279    492.700
 71.970   1703.000   1738.667    -35.667    492.753   1692.564    492.753    538.758    492.753
 72.070   1810.000   1835.239    -25.239    492.806   1785.551    492.806    542.420    492.806
 72.170   1788.000   1868.933    -80.933    492.858   1815.523    492.858    546.227    492.858
 72.270   1826.000   1833.037     -7.037    492.909   1775.820    492.909    550.117    492.909
 72.370   1802.000   1735.995     66.005    492.958   1674.964    492.958    554.007    492.958
 72.470   1588.000   1596.884     -8.884    493.007   1532.137    493.007    557.790    493.007
 72.570   1526.000   1437.330     88.670    493.055   1369.100    493.055    561.332    493.055
 72.670   1308.812   1275.950     32.862    493.101   1204.621    493.101    564.481    493.101
 72.770   1071.038   1126.290    -55.253    493.147   1052.408    493.147    567.078    493.147
 72.870   1045.000    996.633     48.367    493.191    920.896    493.191    568.973    493.191
 72.970    847.000    890.555    -43.555    493.234    813.784    493.234    570.045    493.234
 73.070    841.000    807.919     33.081    493.277    731.007    493.277    570.222    493.277
 73.170    710.000    746.097    -36.097    493.318    669.949    493.318    569.494    493.318
 73.270    705.329    701.213      4.116    493.358    626.681    493.358    567.914    493.358
 73.370    693.224    669.160     24.064    493.396    596.989    493.396    565.589    493.396
 73.470    657.000    646.282     10.718    493.434    577.073    493.434    562.662    493.434
 73.570    627.676    629.700     -2.025    493.471    563.897    493.471    559.292    493.471
 73.670    584.896    617.370    -32.474    493.506    555.259    493.506    555.635    493.506
 73.770    615.000    607.960      7.040    493.540    549.688    493.540    551.831    493.540
 73.870    591.000    600.673     -9.673    493.573    546.270    493.573    547.995    493.573
 73.970    620.000    595.053     24.947    493.605    544.460    493.605    544.220    493.605
 74.070    563.000    590.832    -27.832    493.635    543.921    493.635    540.572    493.635
 74.170    566.000    587.810    -21.810    493.665    544.407    493.665    537.097    493.665
 74.270    625.475    585.772     39.703    493.693    545.676    493.693    533.824    493.693
 74.370    627.371    584.447     42.924    493.720    547.437    493.720    530.769    493.720
 74.470    589.599    583.476      6.123    493.745    549.327    493.745    527.938    493.745
 74.570    565.833    582.421    -16.588    493.770    550.909    493.770    525.331    493.770
 74.670    613.000    580.819     32.181    493.793    551.724    493.793    522.940    493.793
 74.770    577.608    578.299     -0.692    493.815    551.410    493.815    520.757    493.815
 74.870    576.000    574.736      1.264    493.835    549.853    493.835    518.770    493.835
 74.970    623.000    570.331     52.669    493.855    547.268    493.855    516.965    493.855
 75.070    595.000    565.507     29.493    493.873    544.093    493.873    515.328    493.873
 75.170    641.000    560.787     80.213    493.889    540.865    493.889    513.847    493.889
 75.270    615.000    556.697     58.303    493.904    538.123    493.904    512.507    493.904
 75.370    596.000    553.738     42.262    493.918    536.383    493.918    511.295    493.918
 75.470    591.000    552.397     38.603    493.931    536.143    493.931    510.199    493.931
 75.570    566.000    553.148     12.852    493.942    537.891    493.942    509.208    493.942
 75.670    581.000    556.451     24.549    493.952    542.096    493.952    508.309    493.952
 75.770    529.000    562.718    -33.718    493.961    549.181    493.961    507.494    493.961
 75.870    554.000    572.255    -18.255    493.968    559.459    493.968    506.753    493.968
 75.970    607.297    585.168     22.129    493.974    573.045    493.974    506.078    493.974
 76.070    576.000    601.266    -25.266    493.979    589.757    493.979    505.462    493.979
 76.170    600.986    619.959    -18.973    493.982    609.009    493.982    504.898    493.982
 76.270    674.000    640.173     33.827    493.983    629.734    493.983    504.381    493.983
 76.370    629.000    660.310    -31.310    493.984    650.342    493.984    503.906    493.984
 76.470    686.550    678.278      8.273    493.982    668.743    493.982    503.467    493.982
 76.570    672.000    691.676    -19.676    493.980    682.542    493.980    503.061    493.980
 76.670    706.000    698.283      7.717    493.976    689.524    493.976    502.684    493.976
 76.770    728.000    696.791     31.209    493.970    688.380    493.970    502.334    493.970
 76.870    650.830    687.352    -36.522    493.963    679.268    493.963    502.007    493.963
 76.970    639.122    671.509    -32.387    493.955    663.729    493.955    501.701    493.955
 77.070    605.846    651.546    -45.700    493.945    644.050    493.945    501.414    493.945
 77.170    607.361    629.795    -22.435    493.934    622.564    493.934    501.145    493.934
 77.270    591.000    608.218    -17.218    493.921    601.234    493.921    500.891    493.921
 77.370    611.438    588.253     23.185    493.907    581.498    493.907    500.651    493.907
 77.470    518.000    570.802    -52.802    493.891    564.261    493.891    500.424    493.891
 77.570    539.361    556.285    -16.924    493.873    549.945    493.873    500.209    493.873
 77.670    510.000    544.731    -34.731    493.855    538.579    493.855    500.004    493.855
 77.770    503.124    535.888    -32.765    493.834    529.911    493.834    499.810    493.834
 77.870    558.552    529.343     29.209    493.812    523.531    493.812    499.624    493.812
 77.970    498.000    524.624    -26.624    493.789    518.967    493.789    499.446    493.789
 78.070    535.000    521.283     13.717    493.764    515.771    493.764    499.276    493.764
 78.170    518.000    518.933     -0.933    493.738    513.558    493.738    499.113    493.738
 78.270    496.000    517.273    -21.273    493.709    512.027    493.709    498.956    493.709
 78.370    539.000    516.084     22.916    493.680    510.960    493.680    498.805    493.680
 78.470    491.706    515.218    -23.511    493.649    510.207    493.649    498.659    493.649
 78.570    529.000    514.578     14.422    493.616    509.676    493.616    498.519    493.616
 78.670    521.017    514.111      6.906    493.582    509.311    493.582    498.383    493.582
 78.770    557.035    513.790     43.244    493.546    509.086    493.546    498.251    493.546
 78.870    553.106    513.607     39.499    493.508    508.992    493.508    498.124    493.508
 78.970    483.971    513.567    -29.596    493.469    509.037    493.469    497.999    493.469
 79.070    490.000    513.686    -23.686    493.428    509.236    493.428    497.879    493.428
 79.170    513.739    513.987     -0.248    493.386    509.613    493.386    497.761    493.386
 79.270    483.000    514.501    -31.501    493.342    510.197    493.342    497.646    493.342
 79.370    524.000    515.260      8.740    493.297    511.022    493.297    497.534    493.297
 79.470    512.000    516.306     -4.306    493.249    512.131    493.249    497.424    493.249
 79.570    554.000    517.685     36.315    493.201    513.568    493.201    497.316    493.201
 79.670    511.000    519.435     -8.435    493.150    515.374    493.150    497.210    493.150
 79.770    555.000    521.696     33.304    493.098    517.686    493.098    497.106    493.098
 79.870    479.000    524.583    -45.583    493.044    520.622    493.044    497.003    493.044
 79.970    546.000    528.249     17.751    492.989    524.334    492.989    496.901    492.989
 80.070    537.000    532.908      4.092    492.932    529.037    492.932    496.800    492.932
 80.170    549.000    538.839     10.161    492.873    535.010    492.873    496.700    492.873
 80.270    520.000    546.382    -26.383    492.813    542.594    492.813    496.599    492.813
 80.370    583.117    555.919     27.198    492.751    552.171    492.751    496.499    492.751
 80.470    583.059    567.801     15.258    492.687    564.092    492.687    496.399    492.687
 80.570    545.957    582.252    -36.295    492.622    578.582    492.622    496.298    492.622
 80.670    659.000    599.271     59.729    492.555    595.641    492.555    496.196    492.555
 80.770    604.000    618.550    -14.550    492.486    614.959    492.486    496.092    492.486
 80.870    660.581    639.436     21.145    492.416    635.885    492.416    495.988    492.416
 80.970    617.000    660.949    -43.949    492.343    657.438    492.343    495.882    492.343
 81.070    650.000    681.874    -31.874    492.270    678.405    492.270    495.775    492.270
 81.170    672.080    700.933    -28.853    492.194    697.504    492.194    495.666    492.194
 81.270    734.265    716.948     17.317    492.117    713.559    492.117    495.556    492.117
 81.370    683.106    728.957    -45.851    492.038    725.608    492.038    495.445    492.038
 81.470    702.000    736.293    -34.293    491.957    732.982    491.957    495.332    491.957
 81.570    798.000    738.637     59.363    491.875    735.363    491.875    495.219    491.875
 81.670    702.000    736.030    -34.030    491.791    732.791    491.791    495.104    491.791
 81.770    741.000    728.797     12.203    491.705    725.590    491.705    494.989    491.705
 81.870    763.000    717.495     45.505    491.617    714.317    491.617    494.873    491.617
 81.970    748.151    702.945     45.206    491.528    699.794    491.528    494.757    491.528
 82.070    668.000    686.209    -18.209    491.437    683.081    491.437    494.640    491.437
 82.170    638.000    668.405    -30.405    491.344    665.299    491.344    494.523    491.344
 82.270    613.719    650.479    -36.760    491.250    647.391    491.250    494.405    491.250
 82.370    654.282    633.064     21.218    491.153    629.993    491.153    494.287    491.153
 82.470    593.000    616.522    -23.522    491.055    613.466    491.055    494.169    491.055
 82.570    609.000    601.076      7.924    490.956    598.033    490.956    494.050    490.956
 82.670    572.541    586.932    -14.390    490.854    583.900    490.854    493.931    490.854
 82.770    539.393    574.316    -34.923    490.751    571.293    490.751    493.812    490.751
 82.870    599.000    563.459     35.541    490.646    560.444    490.646    493.692    490.646
 82.970    589.225    554.543     34.682    490.539    551.535    490.539    493.572    490.539
 83.070    578.086    547.694     30.391    490.431    544.690    490.431    493.451    490.431
 83.170    544.000    542.966      1.034    490.321    539.965    490.321    493.330    490.321
 83.270    529.000    540.338    -11.338    490.209    537.339    490.209    493.209    490.209
 83.370    556.000    539.702     16.298    490.095    536.703    490.095    493.087    490.095
 83.470    532.000    540.851     -8.851    489.979    537.852    489.979    492.964    489.979
 83.570    570.680    543.479     27.201    489.862    540.478    489.862    492.840    489.862
 83.670    565.000    547.172     17.828    489.743    544.169    489.743    492.717    489.743
 83.770    519.000    551.428    -32.428    489.622    548.422    489.622    492.592    489.622
 83.870    589.797    555.664     34.133    489.500    552.656    489.500    492.467    489.500
 83.970    518.318    559.260    -40.942    489.375    556.250    489.375    492.341    489.375
 84.070    553.000    561.620     -8.620    489.249    558.608    489.249    492.214    489.249
 84.170    560.000    562.276     -2.276    489.121    559.263    489.121    492.087    489.121
 84.270    575.000    561.007     13.993    488.992    557.995    488.992    491.959    488.992
 84.370    539.023    557.893    -18.870    488.860    554.882    488.860    491.830    488.860
 84.470    522.023    553.272    -31.248    488.727    550.261    488.727    491.700    488.727
 84.570    523.000    547.621    -24.621    488.592    544.611    488.592    491.570    488.592
 84.670    507.436    541.445    -34.009    488.456    538.435    488.456    491.439    488.456
 84.770    514.000    535.201    -21.201    488.317    532.189    488.317    491.307    488.317
 84.870    516.000    529.256    -13.256    488.177    526.242    488.177    491.174    488.177
 84.970    519.000    523.881     -4.881    488.035    520.861    488.035    491.040    488.035
 85.070    513.382    519.238     -5.856    487.891    516.213    487.891    490.906    487.891
 85.170    492.188    515.402    -23.214    487.746    512.369    487.746    490.771    487.746
 85.270    535.000    512.370     22.630    487.598    509.326    487.598    490.635    487.598
 85.370    504.000    510.085     -6.085    487.449    507.030    487.449    490.499    487.449
 85.470    484.210    508.465    -24.254    487.299    505.397    487.299    490.361    487.299
 85.570    524.000    507.417     16.583    487.146    504.335    487.146    490.223    487.146
 85.670    532.928    506.862     26.066    486.992    503.764    486.992    490.085    486.992
 85.770    500.000    506.744     -6.744    486.836    503.629    486.836    489.945    486.836
 85.870    477.398    507.038    -29.640    486.678    503.905    486.678    489.805    486.678
 85.970    513.000    507.758      5.242    486.518    504.605    486.518    489.664    486.518
 86.070    497.000    508.953    -11.953    486.357    505.778    486.357    489.523    486.357
 86.170    524.000    510.709     13.291    486.194    507.511    486.194    489.381    486.194
 86.270    478.000    513.142    -35.142    486.029    509.918    486.029    489.238    486.029
 86.370    476.738    516.387    -39.649    485.863    513.136    485.863    489.095    485.863
 86.470    520.000    520.586     -0.586    485.694    517.306    485.694    488.951    485.694
 86.570    518.000    525.870     -7.870    485.524    522.557    485.524    488.807    485.524
 86.670    526.000    532.329     -6.329    485.353    528.982    485.353    488.662    485.353
 86.770    546.000    539.992      6.008    485.179    536.608    485.179    488.517    485.179
 86.870    532.586    548.793    -16.207    485.004    545.369    485.004    488.372    485.004
 86.970    578.000    558.545     19.455    484.827    555.080    484.827    488.226    484.827
 87.070    591.000    568.924     22.076    484.649    565.416    484.649    488.081    484.649
 87.170    588.000    579.452      8.548    484.468    575.900    484.468    487.935    484.468
 87.270    601.742    589.505     12.237    484.286    585.908    484.286    487.789    484.286
 87.370    628.000    598.338     29.662    484.102    594.697    484.102    487.643    484.102
 87.470    643.000    605.165     37.835    483.917    601.482    483.917    487.497    483.917
 87.570    587.903    609.299    -21.395    483.730    605.574    483.730    487.351    483.730
 87.670    648.000    610.323     37.677    483.541    606.559    483.541    487.205    483.541
 87.770    633.000    608.224     24.776    483.350    604.421    483.350    487.060    483.350
 87.870    617.000    603.388     13.612    483.158    599.549    483.158    486.915    483.158
 87.970    657.000    596.490     60.510    482.964    592.612    482.964    486.771    482.964
 88.070    565.141    588.340    -23.199    482.769    584.422    482.769    486.627    482.769
 88.170    582.000    579.769      2.231    482.571    575.808    482.571    486.484    482.571
 88.270    560.605    571.549    -10.944    482.372    567.543    482.372    486.343    482.372
 88.370    595.000    564.343     30.657    482.172    560.288    482.172    486.202    482.172
 88.470    580.948    558.666     22.283    481.970    554.558    481.970    486.063    481.970
 88.570    548.000    554.864     -6.864    481.766    550.700    481.766    485.925    481.766
 88.670    543.165    553.107     -9.942    481.560    548.882    481.560    485.789    481.560
 88.770    570.000    553.385     16.615    481.353    549.095    481.353    485.655    481.353
 88.870    528.145    555.521    -27.376    481.144    551.162    481.144    485.523    481.144
 88.970    587.000    559.187     27.813    480.934    554.754    480.934    485.394    480.934
 89.070    578.712    563.925     14.787    480.722    559.415    480.722    485.268    480.722
 89.170    588.000    569.171     18.829    480.508    564.578    480.508    485.144    480.508
 89.270    586.000    574.285     11.715    480.293    569.603    480.293    485.024    480.293
 89.370    580.000    578.593      1.407    480.076    573.817    480.076    484.908    480.076
 89.470    638.000    581.462     56.538    479.857    576.584    479.857    484.796    479.857
 89.570    626.552    582.401     44.151    479.637    577.413    479.637    484.689    479.637
 89.670    569.000    581.162    -12.162    479.416    576.057    479.416    484.586    479.416
 89.770    586.000    577.796      8.204    479.193    572.564    479.193    484.489    479.193
 89.870    505.000    572.615    -67.615    478.968    567.246    478.968    484.398    478.968
 89.970    563.583    566.093     -2.510    478.742    560.579    478.742    484.314    478.742
 90.070    535.000    558.760    -23.760    478.514    553.090    478.514    484.236    478.514
 90.170    536.000    551.116    -15.116    478.284    545.281    478.284    484.166    478.284
 90.270    523.000    543.595    -20.595    478.053    537.584    478.053    484.105    478.053
 90.370    496.742    536.540    -39.797    477.821    530.343    477.821    484.052    477.821
 90.470    494.850    530.195    -35.345    477.587    523.803    477.587    484.008    477.587
 90.570    532.000    524.715      7.285    477.352    518.115    477.352    483.974    477.352
 90.670    504.050    520.167    -16.117    477.115    513.348    477.115    483.951    477.115
 90.770    512.000    516.550     -4.550    476.876    509.501    476.876    483.940    476.876
 90.870    553.000    513.815     39.185    476.636    506.522    476.636    483.940    476.636
 90.970    482.000    511.883    -29.883    476.395    504.333    476.395    483.953    476.395
 91.070    544.000    510.663     33.337    476.152    502.842    476.152    483.979    476.152
 91.170    477.000    510.074    -33.074    475.908    501.967    475.908    484.018    475.908
 91.270    499.031    510.054    -11.023    475.662    501.646    475.662    484.073    475.662
 91.370    492.000    510.569    -18.569    475.415    501.843    475.415    484.142    475.415
 91.470    543.000    511.608     31.392    475.166    502.548    475.166    484.226    475.166
 91.570    486.000    513.230    -27.230    474.916    503.820    474.916    484.325    474.916
 91.670    499.000    515.525    -16.525    474.665    505.746    474.665    484.441    474.665
 91.770    481.000    518.597    -37.597    474.412    508.433    474.412    484.572    474.412
 91.870    525.414    522.593      2.821    474.158    512.027    474.158    484.718    474.158
 91.970    499.979    527.684    -27.705    473.903    516.699    473.903    484.878    473.903
 92.070    537.452    534.049      3.403    473.646    522.630    473.646    485.053    473.646
 92.170    551.000    541.862      9.138    473.388    529.994    473.388    485.239    473.388
 92.270    546.000    551.273     -5.273    473.128    538.944    473.128    485.436    473.128
 92.370    500.000    562.388    -62.388    472.867    549.589    472.867    485.641    472.867
 92.470    590.000    575.251     14.749    472.605    561.974    472.605    485.851    472.605
 92.570    583.000    589.821     -6.821    472.342    576.065    472.342    486.061    472.342
 92.670    636.486    605.961     30.524    472.077    591.728    472.077    486.268    472.077
 92.770    587.000    623.423    -36.423    471.811    608.720    471.811    486.465    471.811
 92.870    672.751    641.839     30.912    471.544    626.681    471.544    486.648    471.544
 92.970    627.000    660.729    -33.729    471.275    645.137    471.275    486.809    471.275
 93.070    637.312    679.526    -42.214    471.006    663.528    471.006    486.941    471.006
 93.170    706.000    697.639      8.361    470.735    681.271    470.735    487.037    470.735
 93.270    748.000    714.562     33.438    470.463    697.866    470.463    487.091    470.463
 93.370    749.000    729.973     19.027    470.189    713.000    470.189    487.096    470.189
 93.470    782.000    743.794     38.206    469.915    726.597    469.915    487.046    469.915
 93.570    766.000    756.165      9.835    469.639    738.802    469.639    486.937    469.639
 93.670    768.423    767.342      1.081    469.362    749.874    469.362    486.768    469.362
 93.770    789.000    777.592     11.408    469.084    760.080    469.084    486.536    469.084
 93.870    762.359    787.129    -24.770    468.805    769.633    468.805    486.244    468.805
 93.970    794.163    796.132     -1.969    468.525    778.709    468.525    485.895    468.525
 94.070    840.000    804.803     35.197    468.244    787.505    468.244    485.492    468.244
 94.170    769.773    813.398    -43.625    467.962    796.272    467.962    485.041    467.962
 94.270    896.000    822.190     73.810    467.678    805.275    467.678    484.550    467.678
 94.370    792.000    831.344    -39.344    467.394    814.673    467.394    484.025    467.394
 94.470    877.000    840.784     36.216    467.108    824.384    467.108    483.474    467.108
 94.570    879.657    850.100     29.557    466.822    833.987    466.822    482.904    466.822
 94.670    881.000    858.527     22.473    466.534    842.715    466.534    482.323    466.534
 94.770    887.000    865.008     21.992    466.246    849.501    466.246    481.735    466.246
 94.870    835.388    868.289    -32.901    465.957    853.088    465.957    481.148    465.957
 94.970    841.465    867.319    -25.855    465.666    852.418    465.666    480.566    465.666
 95.070    824.454    861.233    -36.778    465.375    846.622    465.375    479.992    465.375
 95.170    853.415    849.737      3.679    465.083    835.401    465.083    479.431    465.083
 95.270    847.000    833.229     13.771    464.790    819.152    464.790    478.886    464.790
 95.370    868.000    812.708     55.292    464.496    798.868    464.496    478.358    464.496
 95.470    824.000    789.584     34.416    464.201    775.960    464.201    477.850    464.201
 95.570    812.480    765.488     46.993    463.905    752.055    463.905    477.362    463.905
 95.670    825.000    742.105     82.895    463.608    728.840    463.608    476.897    463.608
 95.770    737.000    721.074     15.926    463.311    707.951    463.311    476.455    463.311
 95.870    680.353    703.920    -23.567    463.013    690.913    463.013    476.037    463.013
 95.970    699.000    692.017      6.983    462.714    679.101    462.714    475.643    462.714
 96.070    734.000    686.565     47.435    462.414    673.713    462.414    475.274    462.414
 96.170    686.000    688.569     -2.569    462.114    675.754    462.114    474.931    462.114
 96.270    717.000    698.829     18.171    461.813    686.023    461.813    474.612    461.813
 96.370    758.681    717.922     40.759    461.511    705.100    461.511    474.320    461.511
 96.470    767.000    746.185     20.815    461.209    733.320    461.209    474.054    461.209
 96.570    804.635    783.674     20.961    460.905    770.738    460.905    473.815    460.905
 96.670    818.000    830.117    -12.117    460.602    817.082    460.602    473.604    460.602
 96.770    863.368    884.853    -21.485    460.297    871.692    460.297    473.420    460.297
 96.870    870.000    946.775    -76.775    459.992    933.460    459.992    473.266    459.992
 96.970   1033.144   1014.276     18.868    459.687   1000.779    459.687    473.140    459.687
 97.070   1023.798   1085.219    -61.421    459.381   1071.511    459.381    473.046    459.381
 97.170   1151.000   1156.928     -5.928    459.074   1142.979    459.074    472.982    459.074
 97.270   1225.000   1226.219     -1.219    458.767   1212.001    458.767    472.952    458.767
 97.370   1328.000   1289.504     38.496    458.459   1274.984    458.459    472.955    458.459
 97.470   1394.000   1343.001     50.999    458.151   1328.148    458.151    472.993    458.151
 97.570   1368.000   1383.124    -15.124    457.842   1367.903    457.842    473.068    457.842
 97.670   1427.605   1407.003     20.602    457.533   1391.377    457.533    473.182    457.533
 97.770   1407.000   1413.020     -6.020    457.224   1396.951    457.224    473.336    457.224
 97.870   1395.000   1401.138     -6.138    456.914   1384.582    456.914    473.531    456.914
 97.970   1335.000   1372.858    -37.858    456.604   1355.768    456.604    473.771    456.604
 98.070   1358.000   1330.862     27.138    456.293   1313.189    456.293    474.056    456.293
 98.170   1265.000   1278.515    -13.515    455.982   1260.205    455.982    474.389    455.982
 98.270   1233.000   1219.405     13.595    455.671   1200.406    455.671    474.772    455.671
 98.370   1192.579   1157.118     35.461    455.360   1137.372    455.360    475.207    455.360
 98.470   1149.679   1094.927     54.752    455.048   1074.376    455.048    475.697    455.048
 98.570   1052.000   1035.772     16.228    454.736   1014.358    454.736    476.244    454.736
 98.670    954.000    982.209    -28.209    454.424    959.870    454.424    476.848    454.424
 98.770    917.000    936.399    -19.399    454.112    913.073    454.112    477.514    454.112
 98.870    843.000    900.118    -57.118    453.799    875.742    453.799    478.241    453.799
 98.970    888.046    874.775     13.271    453.487    849.285    453.487    479.033    453.487
 99.070    847.000    861.433    -14.433    453.174    834.765    453.174    479.890    453.174
 99.170    843.000    860.834    -17.834    452.861    832.923    452.861    480.813    452.861
 99.270    875.000    873.425      1.575    452.548    844.206    452.548    481.802    452.548
 99.370    908.000    899.375      8.625    452.236    868.783    452.236    482.857    452.236
 99.470    908.000    938.573    -30.573    451.923    906.546    451.923    483.977    451.923
 99.570    954.524    990.617    -36.093    451.610    957.095    451.610    485.161    451.610
 99.670   1010.618   1054.780    -44.161    451.297   1019.706    451.297    486.404    451.297
 99.770   1160.000   1129.961     30.039    450.984   1093.284    450.984    487.702    450.984
 99.870   1243.000   1214.640     28.360    450.672   1176.314    450.672    489.049    450.672
 99.970   1286.579   1306.826    -20.247    450.359   1266.816    450.359    490.436    450.359
100.070   1431.000   1404.033     26.967    450.047   1362.311    450.047    491.854    450.047
100.170   1513.000   1503.287      9.713    449.735   1459.841    449.735    493.288    449.735
100.270   1632.000   1601.220     30.780    449.423   1556.051    449.423    494.724    449.423
100.370   1766.233   1694.249     71.984    449.111   1647.377    449.111    496.143    449.111
100.470   1762.000   1778.858    -16.858    448.800   1730.324    448.800    497.524    448.800
100.570   1876.316   1851.894     24.423    448.489   1801.760    448.489    498.842    448.489
100.670   1840.544   1910.770    -70.226    448.178   1859.123    448.178    500.072    448.178
100.770   1982.055   1953.517     28.538    447.867   1900.471    447.867    501.187    447.867
100.870   1976.126   1978.703     -2.577    447.557   1924.397    447.557    502.157    447.557
100.970   1994.000   1985.372      8.628    447.248   1929.974    447.248    502.956    447.248
101.070   2025.176   1973.139     52.038    446.938   1916.842    446.938    503.558    446.938
101.170   1864.000   1942.451    -78.451    446.630   1885.470    446.630    503.941    446.630
101.270   1845.697   1894.890    -49.193    446.321   1837.456    446.321    504.087    446.321
101.370   1871.076   1833.227     37.849    446.014   1775.583    446.014    503.984    446.014
101.470   1778.000   1761.216     16.784    445.706   1703.611    445.706    503.629    445.706
101.570   1648.768   1683.109    -34.341    445.400   1625.790    445.400    503.022    445.400
101.670   1538.272   1603.114    -64.843    445.094   1546.320    445.094    502.174    445.094
101.770   1501.000   1524.968    -23.968    444.788   1468.923    444.788    501.100    444.788
101.870   1495.000   1451.665     43.335    444.484   1396.574    444.484    499.821    444.484
101.970   1367.000   1385.347    -18.347    444.180   1331.393    444.180    498.361    444.180
102.070   1388.811   1327.283     61.528    443.876   1274.621    443.876    496.747    443.876
102.170   1255.000   1277.900    -22.900    443.574   1226.659    443.574    495.008    443.574
102.270   1193.877   1236.857    -42.979    443.272   1187.135    443.272    493.172    443.272
102.370   1158.000   1203.127    -45.127    442.971   1155.001    442.971    491.265    442.971
102.470   1196.099   1175.118     20.980    442.671   1128.636    442.671    489.311    442.671
102.570   1148.000   1150.893     -2.893    442.372   1106.083    442.372    487.334    442.372
102.670   1102.000   1128.309    -26.309    442.074   1085.177    442.074    485.353    442.074
102.770   1065.000   1105.316    -40.316    441.777   1063.852    441.777    483.385    441.777
102.870   1018.281   1080.239    -61.957    441.481   1040.419    441.481    481.442    441.481
102.970   1042.000   1051.984     -9.984    441.186   1013.770    441.186    479.538    441.186
103.070    979.203   1020.127    -40.924    440.891    983.473    440.891    477.681    440.891
103.170   1025.000    984.858     40.142    440.598    949.710    440.598    475.877    440.598
103.270    920.000    946.820    -26.820    440.307    913.118    440.307    474.133    440.307
103.370    892.000    906.919    -14.919    440.016    874.600    440.016    472.451    440.016
103.470    856.000    866.162    -10.162    439.726    835.162    439.726    470.835    439.726
103.570    849.000    825.546     23.454    439.438    795.798    439.438    469.286    439.438
103.670    829.345    785.982     43.362    439.151    757.420    439.151    467.804    439.151
103.770    764.914    748.255     16.659    438.865    720.812    438.865    466.390    438.865
103.870    747.963    712.997     34.966    438.581    686.609    438.581    465.041    438.581
103.970    691.182    680.678     10.504    438.298    655.281    438.298    463.758    438.298
104.070    666.135    651.598     14.537    438.017    627.130    438.017    462.539    438.017
104.170    596.433    625.899    -29.466    437.736    602.300    437.736    461.382    437.736
104.270    645.000    603.579     41.421    437.458    580.792    437.458    460.285    437.458
104.370    570.224    584.520    -14.296    437.181    562.489    437.181    459.246    437.181
104.470    541.000    568.513    -27.513    436.905    547.183    436.905    458.262    436.905
104.570    571.251    555.287     15.964    436.631    534.609    436.631    457.332    436.631
104.670    561.264    544.543     16.721    436.359    524.468    436.359    456.453    436.359
104.770    533.083    535.973     -2.891    436.088    516.455    436.088    455.623    436.088
104.870    503.961    529.285    -25.325    435.819    510.278    435.819    454.839    435.819
104.970    581.000    524.213     56.787    435.552    505.676    435.552    454.099    435.552
105.070    588.000    520.531     67.469    435.287    502.423    435.287    453.402    435.287
105.170    496.173    518.057    -21.884    435.023    500.341    435.023    452.745    435.023
105.270    548.000    516.653     31.347    434.761    499.292    434.761    452.126    434.761
105.370    516.585    516.226      0.359    434.502    499.186    434.502    451.543    434.502
105.470    578.000    516.722     61.278    434.244    499.972    434.244    450.994    434.244
105.570    514.000    518.124     -4.124    433.988    501.632    433.988    450.478    433.988
105.670    496.000    520.442    -24.442    433.734    504.180    433.734    449.993    433.734
105.770    512.000    523.711    -11.711    433.482    507.650    433.482    449.537    433.482
105.870    517.304    527.978    -10.675    433.233    512.094    433.233    449.109    433.233
105.970    533.000    533.297     -0.297    432.985    517.563    432.985    448.708    432.985
106.070    582.000    539.712     42.288    432.740    524.106    432.740    448.333    432.740
106.170    552.678    547.249      5.429    432.497    531.748    432.497    447.982    432.497
106.270    578.000    555.902     22.098    432.256    540.484    432.256    447.655    432.256
106.370    577.000    565.623     11.377    432.017    550.268    432.017    447.351    432.017
106.470    616.000    576.318     39.682    431.781    561.006    431.781    447.068    431.781
106.570    613.860    587.838     26.022    431.547    572.551    431.547    446.807    431.547
106.670    635.877    599.982     35.895    431.316    584.701    431.316    446.567    431.316
106.770    598.000    612.495    -14.495    431.087    597.203    431.087    446.347    431.087
106.870    651.934    625.073     26.862    430.861    609.752    430.861    446.147    430.861
106.970    605.000    637.370    -32.370    430.637    622.005    430.637    445.967    430.637
107.070    670.658    649.014     21.644    430.416    633.588    430.416    445.806    430.416
107.170    629.000    659.624    -30.624    430.197    644.121    430.197    445.664    430.197
107.270    642.000    668.846    -26.846    429.981    653.251    429.981    445.541    429.981
107.370    667.000    676.393     -9.393    429.768    660.691    429.768    445.438    429.768
107.470    642.000    682.093    -40.093    429.558    666.266    429.558    445.354    429.558
107.570    732.000    685.920     46.080    429.351    669.954    429.351    445.290    429.351
107.670    678.000    688.010    -10.010    429.146    671.889    429.146    445.245    429.146
107.770    702.000    688.643     13.357    428.944    672.348    428.944    445.221    428.944
107.870    643.777    688.192    -44.415    428.746    671.708    428.746    445.217    428.746
107.970    692.000    687.068      4.932    428.550    670.376    428.550    445.234    428.550
108.070    567.000    685.669   -118.669    428.357    668.751    428.357    445.272    428.357
108.170    646.000    684.339    -38.339    428.168    667.175    428.168    445.333    428.168
108.270    693.334    683.340      9.994    427.981    665.911    427.981    445.416    427.981
108.370    644.000    682.833    -38.833    427.798    665.119    427.798    445.523    427.798
108.470    641.000    682.874    -41.874    427.618    664.852    427.618    445.655    427.618
108.570    637.673    683.405    -45.732    427.442    665.053    427.442    445.811    427.442
108.670    647.000    684.254    -37.254    427.269    665.550    427.269    445.995    427.269
108.770    667.515    685.175    -17.659    427.099    666.094    427.099    446.206    427.099
108.870    706.000    685.825     20.175    426.932    666.341    426.932    446.445    426.932
108.970    672.000    685.819    -13.819    426.769    665.906    426.769    446.715    426.769
109.070    674.000    684.771    -10.771    426.610    664.400    426.610    447.016    426.610
109.170    700.000    682.348     17.652    426.454    661.490    426.454    447.351    426.454
109.270    708.000    678.322     29.678    426.302    656.944    426.302    447.720    426.302
109.370    653.000    672.601    -19.601    426.153    650.670    426.153    448.125    426.153
109.470    667.774    665.244      2.530    426.009    642.725    426.009    448.569    426.009
109.570    678.000    656.438     21.562    425.868    633.294    425.868    449.052    425.868
109.670    683.000    646.465     36.535    425.730    622.657    425.730    449.578    425.730
109.770    613.000    635.658    -22.658    425.597    611.146    425.597    450.148    425.597
109.870    616.000    624.366     -8.366    425.468    599.106    425.468    450.764    425.468
109.970    656.504    612.925     43.579    425.343    586.872    425.343    451.430    425.343
110.070    602.000    601.644      0.356    425.221    574.750    425.221    452.146    425.221
110.170    595.000    590.795      4.205    425.104    563.011    425.104    452.917    425.104
110.270    543.000    580.606    -37.606    424.991    551.878    424.991    453.744    424.991
110.370    614.000    571.257     42.743    424.882    541.532    424.882    454.630    424.882
110.470    598.000    562.889     35.111    424.778    532.107    424.778    455.579    424.778
110.570    571.535    555.591     15.944    424.677    523.693    424.677    456.592    424.677
110.670    571.000    549.413     21.587    424.581    516.335    424.581    457.674    424.581
110.770    567.511    544.366     23.145    424.490    510.042    424.490    458.826    424.490
110.870    556.000    540.428     15.572    424.403    504.788    424.403    460.052    424.403
110.970    555.876    537.552     18.324    424.320    500.525    424.320    461.355    424.320
111.070    539.000    535.671      3.329    424.242    497.181    424.242    462.739    424.242
111.170    573.000    534.705     38.295    424.169    494.674    424.169    464.205    424.169
111.270    548.000    534.567     13.433    424.100    492.913    424.100    465.757    424.100
111.370    493.945    535.166    -41.221    424.036    491.806    424.036    467.399    424.036
111.470    540.700    536.417      4.284    423.977    491.263    423.977    469.132    423.977
111.570    541.000    538.236      2.764    423.923    491.200    423.923    470.959    423.923
111.670    554.000    540.549     13.451    423.874    491.539    423.874    472.883    423.874
111.770    563.000    543.291     19.709    423.829    492.213    423.829    474.906    423.829
111.870    515.761    546.404    -30.643    423.790    493.163    423.790    477.030    423.790
111.970    503.000    549.846    -46.846    423.755    494.343    423.755    479.256    423.755
112.070    570.000    553.580     16.420    423.726    495.719    423.726    481.585    423.726
112.170    572.540    557.584     14.956    423.702    497.266    423.702    484.018    423.702
112.270    525.000    561.849    -36.849    423.684    498.974    423.684    486.556    423.684
112.370    571.645    566.372      5.273    423.670    500.844    423.670    489.196    423.670
112.470    540.000    571.167    -31.167    423.662    502.890    423.662    491.937    423.662
112.570    599.982    576.254     23.728    423.659    505.135    423.659    494.776    423.659
112.670    598.835    581.666     17.169    423.662    507.616    423.662    497.710    423.662
112.770    593.000    587.447      5.553    423.671    510.382    423.671    500.733    423.671
112.870    559.543    593.655    -34.112    423.685    513.499    423.685    503.838    423.685
112.970    616.000    600.364     15.636    423.704    517.050    423.704    507.016    423.704
113.070    634.261    607.674     26.587    423.730    521.143    423.730    510.257    423.730
113.170    528.000    615.711    -87.711    423.761    525.921    423.761    513.548    423.761
113.270    582.000    624.643    -42.643    423.798    531.563    423.798    516.874    423.798
113.370    662.487    634.687     27.801    423.841    538.307    423.841    520.216    423.841
113.470    629.000    646.122    -17.122    423.890    546.452    423.890    523.554    423.890
113.570    678.619    659.311     19.308    423.945    556.382    423.945    526.866    423.945
113.670    652.000    674.711    -22.711    424.006    568.582    424.006    530.124    424.006
113.770    672.000    692.899    -20.899    424.073    583.658    424.073    533.300    424.073
113.870    698.000    714.587    -16.587    424.146    602.353    424.146    536.362    424.146
113.970    721.000    740.629    -19.629    424.226    625.552    424.226    539.279    424.226
114.070    779.000    772.098      6.902    424.312    654.364    424.312    542.016    424.312
114.170    785.000    810.277    -25.277    424.404    690.105    424.404    544.537    424.404
114.270    798.000    856.591    -58.591    424.503    734.236    424.503    546.809    424.503
114.370    874.000    912.695    -38.695    424.609    788.443    424.609    548.799    424.609
114.470    960.000    980.438    -20.438    424.721    854.606    424.721    550.476    424.721
114.570   1087.192   1061.836     25.355    424.839    934.769    424.839    551.815    424.839
114.670   1105.234   1159.032    -53.798    424.965   1031.092    424.965    552.793    424.965
114.770   1225.286   1274.226    -48.940    425.097   1145.794    425.097    553.396    425.097
114.870   1412.000   1409.598      2.402    425.236   1281.063    425.236    553.615    425.236
114.970   1505.389   1567.201    -61.812    425.382   1438.953    425.382    553.448    425.382
115.070   1670.571   1748.838    -78.267    425.535   1621.263    425.535    552.900    425.535
115.170   1960.000   1955.930      4.070    425.695   1829.403    425.695    551.986    425.695
115.270   2185.000   2189.367     -4.367    425.862   2064.244    425.862    550.722    425.862
115.370   2487.799   2449.363     38.436    426.036   2325.977    426.036    549.133    426.036
115.470   2852.000   2735.318    116.682    426.218   2613.975    426.218    547.249    426.218
115.570   2954.530   3045.694    -91.164    426.407   2926.669    426.407    545.100    426.407
115.670   3461.000   3377.918     83.082    426.603   3261.455    426.603    542.721    426.603
115.770   3688.000   3728.321    -40.321    426.807   3614.629    426.807    540.147    426.807
115.870   3995.000   4092.110    -97.110    427.018   3981.366    427.018    537.412    427.018
115.970   4415.000   4463.387    -48.387    427.237   4355.734    427.237    534.550    427.237
116.070   4804.000   4835.212    -31.212    427.464   4730.764    427.464    531.594    427.464
116.170   5132.489   5199.715    -67.226    427.698   5098.555    427.698    528.573    427.698
116.270   5452.000   5548.258    -96.258    427.940   5450.444    427.940    525.515    427.940
116.370   5855.160   5871.670    -16.510    428.190   5777.235    428.190    522.444    428.190
116.470   6230.000   6160.561     69.439    428.448   6069.516    428.448    519.383    428.448
116.570   6328.000   6405.740    -77.740    428.714   6318.075    428.714    516.351    428.714
116.670   6566.175   6598.745    -32.570    428.989   6514.431    428.989    513.364    428.989
116.770   6711.000   6732.454    -21.454    429.271   6651.447    429.271    510.436    429.271
116.870   6778.706   6801.713    -23.007    429.561   6723.952    429.561    507.580    429.561
116.970   6910.000   6803.850    106.150    429.860   6729.261    429.860    504.804    429.860
117.070   6838.000   6738.970     99.030    430.167   6667.468    430.167    502.117    430.167
117.170   6627.000   6609.933     17.067    430.483   6541.421    430.483    499.526    430.483
117.270   6302.212   6422.033   -119.821    430.807   6356.407    430.807    497.034    430.807
117.370   6192.702   6182.457     10.245    431.140   6119.608    431.140    494.645    431.140
117.470   5867.000   5899.660    -32.660    431.482   5839.475    431.482    492.361    431.482
117.570   5455.000   5582.755   -127.755    431.832   5525.120    431.832    490.185    431.832
117.670   5405.000   5240.995    164.005    432.191   5185.796    432.191    488.115    432.191
117.770   4789.000   4883.366    -94.366    432.559   4830.491    432.559    486.154    432.559
117.870   4477.000   4518.286    -41.286    432.936   4467.624    432.936    484.298    432.936
117.970   4212.000   4153.379     58.621    433.322   4104.823    433.322    482.549    433.322
118.070   3798.000   3795.327      2.673    433.717   3748.772    433.717    480.903    433.717
118.170   3544.593   3449.766     94.827    434.121   3405.114    434.121    479.359    434.121
118.270   3110.000   3121.249    -11.249    434.535   3078.405    434.535    477.915    434.535
118.370   2857.000   2813.243     43.757    434.958   2772.116    434.958    476.569    434.958
118.470   2542.000   2528.179     13.821    435.390   2488.682    435.390    475.317    435.390
118.570   2321.000   2267.526     53.474    435.832   2229.578    435.832    474.157    435.832
118.670   2091.000   2031.902     59.098    436.283   1995.424    436.283    473.087    436.283
118.770   1748.000   1821.186    -73.186    436.745   1786.105    436.745    472.103    436.745
118.870   1623.000   1634.647    -11.647    437.215   1600.894    437.215    471.202    437.215
118.970   1426.000   1471.076    -45.076    437.696   1438.583    437.696    470.382    437.696
119.070   1293.422   1328.902    -35.480    438.187   1297.607    438.187    469.640    438.187
119.170   1247.334   1206.320     41.014    438.687   1176.163    438.687    468.972    438.687
119.270   1137.000   1101.395     35.605    439.198   1072.318    439.198    468.377    439.198
119.370   1054.352   1012.153     42.199    439.719    984.102    439.719    467.850    439.719
119.470    926.000    936.664    -10.664    440.250    909.587    440.250    467.390    440.250
119.570    909.946    873.096     36.850    440.791    846.943    440.791    466.993    440.791
119.670    769.000    819.756    -50.756    441.343    794.479    441.343    466.658    441.343
119.770    793.000    775.120     17.880    441.905    750.674    441.905    466.381    441.905
119.870    717.000    737.838    -20.838    442.478    714.179    442.478    466.160    442.478
119.970    722.000    706.738     15.262    443.061    683.825    443.061    465.993    443.061
120.070    642.913    680.819    -37.906    443.655    658.612    443.655    465.877    443.655
120.170    688.000    659.235     28.765    444.260    637.697    444.260    465.812    444.260
120.270    641.000    641.283     -0.283    444.876    620.378    444.876    465.793    444.876
120.370    623.808    626.382     -2.574    445.503    606.075    445.503    465.820    445.503
120.470    589.000    614.056    -25.056    446.140    594.316    446.140    465.891    446.140
120.570    629.000    603.921     25.079    446.789    584.717    446.789    466.004    446.789
120.670    599.000    595.663      3.337    447.449    576.966    447.449    466.157    447.449
120.770    608.000    589.030     18.970    448.121    570.814    448.121    466.348    448.121
120.870    585.229    583.820      1.408    448.804    566.058    448.804    466.577    448.804
120.970    546.356    579.869    -33.513    449.498    562.537    449.498    466.842    449.498
121.070    543.318    577.040    -33.722    450.204    560.116    450.204    467.141    450.204
121.170    541.641    575.225    -33.584    450.921    558.686    450.921    467.474    450.921
121.270    533.234    574.328    -41.094    451.650    558.155    451.650    467.838    451.650
121.370    605.000    574.262     30.738    452.391    558.436    452.391    468.233    452.391
121.470    549.000    574.931    -25.931    453.144    559.434    453.144    468.659    453.144
121.570    539.766    576.328    -36.563    453.909    561.144    453.909    469.113    453.909
121.670    612.109    578.358     33.752    454.686    563.470    454.686    469.594    454.686
121.770    570.000    580.948    -10.948    455.475    566.343    455.475    470.103    455.475
121.870    593.000    584.029      8.971    456.277    569.693    456.277    470.637    456.277
121.970    550.290    587.526    -37.236    457.090    573.447    457.090    471.197    457.090
122.070    552.000    591.360    -39.360    457.916    577.527    457.916    471.780    457.916
122.170    557.000    595.446    -38.446    458.755    581.848    458.755    472.387    458.755
122.270    601.000    599.694      1.306    459.606    586.320    459.606    473.016    459.606
122.370    567.376    604.005    -36.629    460.470    590.848    460.470    473.666    460.470
122.470    602.000    608.279     -6.279    461.347    595.331    461.347    474.338    461.347
122.570    598.653    612.410    -13.757    462.237    599.663    462.237    475.029    462.237
122.670    628.712    616.292     12.420    463.140    603.740    463.140    475.739    463.140
122.770    590.539    619.819    -29.280    464.055    607.457    464.055    476.468    464.055
122.870    640.329    622.892     17.437    464.984    610.715    464.984    477.214    464.984
122.970    644.298    625.422     18.876    465.926    613.426    465.926    477.977    465.926
123.070    604.000    627.336    -23.336    466.882    615.517    466.882    478.757    466.882
123.170    618.000    628.579    -10.579    467.851    616.936    467.851    479.552    467.851
123.270    599.164    629.123    -29.959    468.833    617.652    468.833    480.363    468.833
123.370    612.608    628.961    -16.353    469.829    617.662    469.829    481.188    469.829
123.470    613.000    628.111    -15.111    470.839    616.982    470.839    482.027    470.839
123.570    614.000    626.611    -12.611    471.863    615.651    471.863    482.881    471.863
123.670    647.187    624.515     22.672    472.900    613.723    472.900    483.748    472.900
123.770    658.000    621.887     36.113    473.952    611.264    473.952    484.629    473.952
123.870    636.000    618.799     17.201    475.018    608.345    475.018    485.523    475.018
123.970    653.536    615.329     38.207    476.097    605.044    476.097    486.431    476.097
124.070    593.471    611.551    -18.081    477.192    601.436    477.192    487.353    477.192
124.170    670.000    607.543     62.457    478.300    597.597    478.300    488.289    478.300
124.270    597.000    603.375     -6.375    479.423    593.599    479.423    489.239    479.423
124.370    611.000    599.114     11.886    480.561    589.509    480.561    490.203    480.561
124.470    624.000    594.824     29.176    481.713    585.389    481.713    491.182    481.713
124.570    567.116    590.557    -23.441    482.880    581.292    482.880    492.176    482.880
124.670    571.000    586.362    -15.362    484.062    577.267    484.062    493.185    484.062
124.770    576.000    582.278     -6.278    485.259    573.352    485.259    494.210    485.259
124.870    585.000    578.339      6.661    486.471    569.581    486.471    495.251    486.471
124.970    577.000    574.571      2.429    487.698    565.979    487.698    496.309    487.698
