neutron_powder_diffraction_0225
R_wp: 3.947
Temperature (K): 1074.100
Counts: 83748.00
Wavelength (Ã…): 2.52098
COMMENTS
Test file for demonstrating the .xyy file format in Reel1.0
END OF HEADER
   tth       Y_obs     Y_calc      Y_res    Background    Phase_1_Nuc    Phase_1_Mag    Phase_2_Nuc    Phase_2_Mag
  9.970    609.000    572.123     36.877    571.568    572.096    571.568    571.595    571.568
 10.070    568.170    572.260     -4.091    571.658    572.233    571.658    571.685    571.658
 10.170    605.000    572.401     32.599    571.743    572.373    571.743    571.771    571.743
 10.270    591.000    572.558     18.442    571.823    572.530    571.823    571.850    571.823
 10.370    573.000    572.707      0.293    571.897    572.679    571.897    571.924    571.897
 10.470    579.000    572.860      6.140    571.965    572.832    571.965    571.993    571.965
 10.570    593.000    573.022     19.978    572.028    572.994    572.028    572.056    572.028
 10.670    609.000    573.199     35.801    572.085    573.170    572.085    572.113    572.085
 10.770    560.000    573.395    -13.395    572.137    573.366    572.137    572.166    572.137
 10.870    529.000    573.617    -44.617    572.184    573.588    572.184    572.212    572.184
 10.970    575.000    573.877      1.123    572.226    573.848    572.226    572.254    572.226
 11.070    601.000    574.189     26.811    572.262    574.158    572.262    572.292    572.262
 11.170    570.000    574.574     -4.574    572.293    574.542    572.293    572.324    572.293
 11.270    525.802    575.064    -49.262    572.319    575.032    572.319    572.350    572.319
 11.370    572.000    575.715     -3.715    572.341    575.683    572.341    572.372    572.341
 11.470    559.000    576.645    -17.645    572.357    576.612    572.357    572.388    572.357
 11.570    626.838    578.190     48.647    572.368    578.156    572.368    572.399    572.368
 11.670    653.000    581.404     71.596    572.374    581.367    572.374    572.406    572.374
 11.770    594.527    589.011      5.516    572.375    588.970    572.375    572.407    572.375
 11.870    656.000    605.908     50.092    572.372    605.857    572.372    572.404    572.372
 11.970    622.949    636.504    -13.554    572.363    636.435    572.363    572.397    572.363
 12.070    648.895    677.331    -28.437    572.350    677.229    572.350    572.395    572.350
 12.170    684.890    710.031    -25.140    572.333    709.907    572.333    572.379    572.333
 12.270    642.000    711.080    -69.080    572.310    710.956    572.310    572.357    572.310
 12.370    658.038    679.488    -21.450    572.283    679.381    572.283    572.331    572.283
 12.470    645.000    638.383      6.617    572.252    638.299    572.252    572.299    572.252
 12.570    583.000    606.973    -23.973    572.216    606.906    572.216    572.264    572.216
 12.670    570.000    589.400    -19.400    572.176    589.343    572.176    572.224    572.176
 12.770    558.032    581.421    -23.389    572.131    581.368    572.131    572.179    572.131
 12.870    574.000    578.039     -4.039    572.082    577.986    572.082    572.131    572.082
 12.970    589.261    576.413     12.848    572.028    576.356    572.028    572.083    572.028
 13.070    542.000    575.425    -33.425    571.970    575.368    571.970    572.026    571.970
 13.170    587.000    574.725     12.275    571.909    574.668    571.909    571.964    571.909
 13.270    543.000    574.191    -31.191    571.842    574.134    571.842    571.899    571.842
 13.370    589.792    573.766     16.026    571.772    573.708    571.772    571.829    571.772
 13.470    573.000    573.416     -0.416    571.698    573.358    571.698    571.755    571.698
 13.570    553.000    573.119    -20.119    571.619    573.061    571.619    571.676    571.619
 13.670    585.473    572.862     12.611    571.537    572.804    571.537    571.594    571.537
 13.770    541.294    572.633    -31.338    571.451    572.574    571.451    571.508    571.451
 13.870    592.000    572.425     19.575    571.360    572.366    571.360    571.418    571.360
 13.970    588.000    572.232     15.768    571.266    572.174    571.266    571.325    571.266
 14.070    589.000    572.052     16.948    571.168    571.993    571.168    571.227    571.168
 14.170    545.000    571.880    -26.880    571.067    571.821    571.067    571.126    571.067
 14.270    526.000    571.715    -45.715    570.961    571.655    570.961    571.020    570.961
 14.370    562.000    571.554     -9.554    570.852    571.494    570.852    570.912    570.852
 14.470    595.000    571.397     23.603    570.739    571.336    570.739    570.799    570.739
 14.570    582.527    571.241     11.285    570.623    571.181    570.623    570.683    570.623
 14.670    597.000    571.087     25.913    570.503    571.026    570.503    570.563    570.503
 14.770    604.000    570.934     33.066    570.379    570.873    570.379    570.440    570.379
 14.870    538.029    570.780    -32.752    570.252    570.719    570.252    570.313    570.252
 14.970    564.000    570.627     -6.627    570.122    570.565    570.122    570.183    570.122
 15.070    547.000    570.472    -23.472    569.988    570.410    569.988    570.050    569.988
 15.170    542.476    570.317    -27.841    569.850    570.254    569.850    569.913    569.850
 15.270    563.266    570.163     -6.897    569.710    570.097    569.710    569.776    569.710
 15.370    563.669    570.005     -6.336    569.566    569.938    569.566    569.633    569.566
 15.470    579.227    569.849      9.379    569.419    569.780    569.419    569.487    569.419
 15.570    554.215    569.688    -15.473    569.268    569.619    569.268    569.337    569.268
 15.670    590.649    569.524     21.124    569.115    569.455    569.115    569.184    569.115
 15.770    544.000    569.359    -25.359    568.958    569.289    568.958    569.028    568.958
 15.870    571.955    569.191      2.764    568.798    569.120    568.798    568.869    568.798
 15.970    606.749    569.021     37.728    568.636    568.950    568.636    568.706    568.636
 16.070    604.954    568.848     36.106    568.470    568.777    568.470    568.541    568.470
 16.170    607.000    568.674     38.326    568.301    568.602    568.301    568.373    568.301
 16.270    581.723    568.497     13.226    568.129    568.425    568.129    568.201    568.129
 16.370    542.553    568.318    -25.765    567.955    568.245    567.955    568.027    567.955
 16.470    562.332    568.136     -5.804    567.777    568.063    567.777    567.850    567.777
 16.570    558.355    567.952     -9.598    567.597    567.879    567.597    567.670    567.597
 16.670    583.202    567.766     15.435    567.414    567.692    567.414    567.488    567.414
 16.770    514.000    567.578    -53.578    567.228    567.503    567.228    567.302    567.228
 16.870    613.725    567.387     46.338    567.039    567.312    567.039    567.114    567.039
 16.970    560.000    567.194     -7.194    566.848    567.119    566.848    566.924    566.848
 17.070    544.000    566.999    -22.999    566.654    566.923    566.654    566.730    566.654
 17.170    527.105    566.802    -39.697    566.458    566.725    566.458    566.534    566.458
 17.270    538.000    566.602    -28.602    566.259    566.525    566.259    566.336    566.259
 17.370    610.542    566.400     44.141    566.057    566.323    566.057    566.135    566.057
 17.470    522.000    566.197    -44.197    565.853    566.118    565.853    565.932    565.853
 17.570    568.000    565.992      2.008    565.647    565.911    565.647    565.727    565.647
 17.670    563.020    565.783     -2.764    565.438    565.702    565.438    565.519    565.438
 17.770    536.000    565.573    -29.573    565.226    565.491    565.226    565.308    565.226
 17.870    571.000    565.360      5.640    565.013    565.278    565.013    565.095    565.013
 17.970    623.000    565.146     57.854    564.797    565.063    564.797    564.879    564.797
 18.070    597.138    564.929     32.208    564.579    564.846    564.579    564.662    564.579
 18.170    557.000    564.712     -7.712    564.358    564.628    564.358    564.442    564.358
 18.270    565.054    564.495      0.559    564.135    564.411    564.135    564.220    564.135
 18.370    523.173    564.274    -41.100    563.911    564.188    563.911    563.996    563.911
 18.470    569.000    564.049      4.951    563.684    563.963    563.684    563.769    563.684
 18.570    558.663    563.823     -5.160    563.454    563.737    563.454    563.541    563.454
 18.670    581.000    563.595     17.405    563.223    563.508    563.223    563.310    563.223
 18.770    610.657    563.365     47.292    562.990    563.277    562.990    563.078    562.990
 18.870    558.000    563.134     -5.134    562.755    563.045    562.755    562.843    562.755
 18.970    525.695    562.900    -37.206    562.518    562.811    562.518    562.607    562.518
 19.070    542.589    562.666    -20.077    562.278    562.576    562.278    562.368    562.278
 19.170    556.000    562.430     -6.430    562.037    562.339    562.037    562.128    562.037
 19.270    552.000    562.192    -10.192    561.795    562.100    561.795    561.886    561.795
 19.370    575.733    561.952     13.781    561.550    561.860    561.550    561.642    561.550
 19.470    546.000    561.716    -15.716    561.303    561.618    561.303    561.401    561.303
 19.570    506.000    561.475    -55.475    561.055    561.374    561.055    561.155    561.055
 19.670    579.000    561.231     17.769    560.805    561.129    560.805    560.906    560.805
 19.770    566.000    560.985      5.015    560.553    560.883    560.553    560.655    560.553
 19.870    590.370    560.739     29.631    560.300    560.635    560.300    560.403    560.300
 19.970    602.014    560.491     41.524    560.044    560.386    560.044    560.149    560.044
 20.070    544.386    560.241    -15.856    559.788    560.136    559.788    559.893    559.788
 20.170    582.000    559.991     22.009    559.529    559.885    559.529    559.635    559.529
 20.270    554.211    559.740     -5.529    559.270    559.632    559.270    559.377    559.270
 20.370    601.029    559.487     41.542    559.008    559.379    559.008    559.116    559.008
 20.470    531.000    559.233    -28.233    558.745    559.124    558.745    558.854    558.745
 20.570    582.000    558.979     23.021    558.481    558.868    558.481    558.591    558.481
 20.670    539.946    558.723    -18.778    558.215    558.612    558.215    558.326    558.215
 20.770    523.000    558.467    -35.467    557.948    558.355    557.948    558.060    557.948
 20.870    541.000    558.211    -17.211    557.679    558.097    557.679    557.793    557.679
 20.970    556.000    557.955     -1.955    557.409    557.841    557.409    557.524    557.409
 21.070    556.336    557.710     -1.374    557.138    557.594    557.138    557.254    557.138
 21.170    527.000    557.461    -30.461    556.866    557.344    556.866    556.983    556.866
 21.270    566.777    557.203      9.574    556.592    557.084    556.592    556.710    556.592
 21.370    559.659    556.944      2.716    556.317    556.824    556.317    556.436    556.317
 21.470    599.518    556.684     42.834    556.041    556.563    556.041    556.161    556.041
 21.570    543.000    556.425    -13.425    555.763    556.303    555.763    555.885    555.763
 21.670    548.000    556.166     -8.166    555.485    556.042    555.485    555.608    555.485
 21.770    532.224    555.916    -23.691    555.205    555.790    555.205    555.330    555.205
 21.870    509.339    555.744    -46.405    554.924    555.618    554.924    555.051    554.924
 21.970    528.150    555.531    -27.381    554.643    555.403    554.643    554.771    554.643
 22.070    528.154    555.305    -27.150    554.360    555.175    554.360    554.490    554.360
 22.170    548.000    555.053     -7.053    554.076    554.921    554.076    554.207    554.076
 22.270    559.000    554.800      4.200    553.791    554.667    553.791    553.924    553.791
 22.370    534.000    554.549    -20.549    553.505    554.414    553.505    553.640    553.505
 22.470    583.000    554.301     28.699    553.219    554.164    553.219    553.355    553.219
 22.570    536.196    554.056    -17.860    552.931    553.917    552.931    553.070    552.931
 22.670    579.000    553.815     25.185    552.643    553.674    552.643    552.783    552.643
 22.770    526.000    553.578    -27.578    552.354    553.436    552.354    552.496    552.354
 22.870    595.000    553.352     41.648    552.063    553.208    552.063    552.208    552.063
 22.970    576.000    553.173     22.827    551.773    553.026    551.773    551.919    551.773
 23.070    549.000    552.977     -3.977    551.481    552.828    551.481    551.630    551.481
 23.170    553.000    552.775      0.225    551.189    552.624    551.189    551.340    551.189
 23.270    567.000    552.587     14.413    550.896    552.434    550.896    551.050    550.896
 23.370    570.624    552.420     18.205    550.602    552.261    550.602    550.760    550.602
 23.470    558.647    552.275      6.372    550.307    552.113    550.307    550.470    550.307
 23.570    606.000    552.160     53.840    550.012    551.996    550.012    550.177    550.012
 23.670    593.662    552.089     41.573    549.717    551.922    549.717    549.885    549.717
 23.770    538.000    552.078    -14.078    549.420    551.908    549.420    549.591    549.420
 23.870    598.000    552.152     45.848    549.123    551.979    549.123    549.298    549.123
 23.970    547.000    552.351     -5.351    548.826    552.175    548.826    549.004    548.826
 24.070    553.000    552.781      0.219    548.528    552.602    548.528    548.709    548.528
 24.170    567.000    553.748     13.252    548.230    553.567    548.230    548.415    548.230
 24.270    580.904    556.165     24.739    547.931    555.981    547.931    548.120    547.931
 24.370    584.000    562.166     21.834    547.632    561.983    547.632    547.824    547.632
 24.470    602.000    575.063     26.937    547.332    574.885    547.332    547.529    547.332
 24.570    593.533    596.927     -3.393    547.032    596.760    547.032    547.233    547.032
 24.670    604.000    623.619    -19.619    546.732    623.468    546.732    546.938    546.732
 24.770    650.697    641.576      9.121    546.431    641.432    546.431    546.642    546.431
 24.870    605.000    637.170    -32.170    546.130    637.019    546.130    546.346    546.130
 24.970    634.015    614.129     19.886    545.828    613.955    545.828    546.050    545.828
 25.070    591.000    587.705      3.295    545.527    587.506    545.527    545.754    545.527
 25.170    595.000    568.312     26.688    545.225    568.093    545.225    545.459    545.225
 25.270    590.788    557.493     33.295    544.922    557.260    544.922    545.163    544.922
 25.370    565.000    552.417     12.583    544.620    552.173    544.620    544.868    544.620
 25.470    525.000    550.110    -25.110    544.317    549.857    544.317    544.573    544.317
 25.570    554.063    548.888      5.176    544.015    548.626    544.015    544.278    544.015
 25.670    543.000    548.071     -5.071    543.712    547.801    543.712    543.984    543.712
 25.770    566.000    547.454     18.546    543.409    547.173    543.409    543.690    543.409
 25.870    549.586    546.959      2.627    543.106    546.669    543.106    543.397    543.106
 25.970    517.000    546.552    -29.552    542.802    546.250    542.802    543.105    542.802
 26.070    585.000    546.211     38.789    542.499    545.897    542.499    542.813    542.499
 26.170    551.114    545.926      5.188    542.196    545.600    542.196    542.522    542.196
 26.270    564.974    545.689     19.285    541.892    545.349    541.892    542.233    541.892
 26.370    544.000    545.499     -1.499    541.589    545.144    541.589    541.944    541.589
 26.470    583.965    545.356     38.609    541.286    544.984    541.286    541.657    541.286
 26.570    545.000    545.263     -0.263    540.982    544.874    540.982    541.372    540.982
 26.670    554.000    545.227      8.773    540.679    544.818    540.679    541.088    540.679
 26.770    543.000    545.258     -2.258    540.376    544.828    540.376    540.806    540.376
 26.870    556.964    545.393     11.571    540.073    544.939    540.073    540.527    540.073
 26.970    618.000    545.623     72.377    539.770    545.143    539.770    540.250    539.770
 27.070    568.742    545.956     22.786    539.467    545.446    539.467    539.977    539.467
 27.170    566.000    546.451     19.549    539.165    545.908    539.165    539.707    539.165
 27.270    583.000    547.168     35.832    538.862    546.588    538.862    539.441    538.862
 27.370    546.000    548.197     -2.197    538.560    547.576    538.560    539.180    538.560
 27.470    583.855    549.703     34.151    538.258    549.035    538.258    538.924    538.258
 27.570    557.000    552.111      4.889    537.956    551.388    537.956    538.676    537.956
 27.670    567.000    556.875     10.125    537.655    556.090    537.655    538.435    537.655
 27.770    618.000    568.741     49.259    537.354    567.882    537.354    538.204    537.354
 27.870    642.000    599.290     42.710    537.053    598.339    537.053    537.985    537.053
 27.970    655.000    665.896    -10.896    536.752    664.829    536.752    537.780    536.752
 28.070    801.092    775.531     25.561    536.452    774.319    536.452    537.593    536.452
 28.170    857.118    897.328    -40.210    536.152    895.954    536.152    537.428    536.152
 28.270   1007.000    957.402     49.598    535.852    955.868    535.852    537.290    535.852
 28.370    884.933    906.765    -21.833    535.553    905.069    535.553    537.189    535.553
 28.470    747.091    797.672    -50.580    535.254    795.765    535.254    537.135    535.254
 28.570    662.805    713.020    -50.214    534.955    710.815    534.955    537.148    534.955
 28.670    703.000    695.722      7.278    534.657    693.107    534.657    537.257    534.657
 28.770    777.000    741.567     35.433    534.360    738.387    534.360    537.520    534.360
 28.870    811.000    810.890      0.110    534.063    806.897    534.063    538.042    534.063
 28.970    814.000    843.682    -29.682    533.766    838.448    533.766    539.002    533.766
 29.070    767.912    804.288    -36.376    533.470    797.099    533.470    540.672    533.470
 29.170    746.000    724.060     21.940    533.175    713.856    533.175    543.390    533.175
 29.270    635.000    651.100    -16.100    532.880    636.519    532.880    547.468    532.880
 29.370    640.000    606.953     33.047    532.585    586.549    532.585    552.990    532.585
 29.470    586.000    588.625     -2.625    532.291    561.452    532.291    559.462    532.291
 29.570    561.089    583.868    -22.779    531.998    550.557    531.998    565.305    531.998
 29.670    548.987    581.878    -32.891    531.705    545.701    531.705    567.878    531.705
 29.770    594.956    577.167     17.788    531.413    543.068    531.413    565.508    531.413
 29.870    591.000    569.700     21.300    531.121    541.342    531.121    559.476    531.121
 29.970    589.997    561.702     28.294    530.830    540.120    530.830    552.410    530.830
 30.070    598.362    554.821     43.541    530.540    539.268    530.540    546.090    530.540
 30.170    561.751    549.679     12.071    530.251    538.758    530.251    541.170    530.251
 30.270    578.000    546.370     31.630    529.962    538.686    529.962    537.643    529.962
 30.370    518.273    545.033    -26.760    529.674    539.478    529.674    535.225    529.674
 30.470    528.000    546.471    -18.471    529.386    542.277    529.386    533.574    529.386
 30.570    532.000    552.578    -20.578    529.100    549.262    529.100    532.403    529.100
 30.670    585.000    565.611     19.389    528.814    562.883    528.814    531.519    528.814
 30.770    561.109    585.484    -24.375    528.528    583.172    528.528    530.804    528.528
 30.870    574.763    606.250    -31.486    528.244    604.247    528.244    530.195    528.244
 30.970    619.000    615.745      3.255    527.960    613.993    527.960    529.657    527.960
 31.070    608.000    605.898      2.102    527.677    604.360    527.677    529.170    527.677
 31.170    539.000    584.200    -45.200    527.395    582.845    527.395    528.722    527.395
 31.270    601.000    562.815     38.185    527.114    561.611    527.114    528.303    527.114
 31.370    507.942    547.939    -39.998    526.834    546.858    526.834    527.907    526.834
 31.470    521.000    539.758    -18.758    526.554    538.777    526.554    527.531    526.554
 31.570    586.000    535.861     50.139    526.276    534.964    526.276    527.169    526.276
 31.670    563.334    534.015     29.319    525.998    533.190    525.998    526.821    525.998
 31.770    538.000    533.003      4.997    525.721    532.239    525.721    526.483    525.721
 31.870    534.000    532.340      1.660    525.445    531.629    525.445    526.154    525.445
 31.970    546.793    531.865     14.928    525.170    531.201    525.170    525.833    525.170
 32.070    550.000    531.526     18.474    524.896    530.902    524.896    525.518    524.896
 32.170    494.000    531.296    -37.296    524.622    530.708    524.622    525.209    524.622
 32.270    513.937    531.167    -17.230    524.350    530.611    524.350    524.905    524.350
 32.370    504.170    531.140    -26.970    524.079    530.612    524.079    524.606    524.079
 32.470    539.000    531.224      7.776    523.809    530.721    523.809    524.310    523.809
 32.570    545.000    531.433     13.567    523.539    530.953    523.539    524.018    523.539
 32.670    507.000    531.792    -24.792    523.271    531.332    523.271    523.730    523.271
 32.770    533.355    532.333      1.021    523.004    531.892    523.004    523.444    523.004
 32.870    578.000    533.111     44.889    522.737    532.686    522.737    523.162    522.737
 32.970    555.000    534.205     20.795    522.472    533.794    522.472    522.882    522.472
 33.070    549.025    535.732     13.293    522.208    535.334    522.208    522.604    522.208
 33.170    538.000    537.902      0.098    521.945    537.516    521.945    522.329    521.945
 33.270    515.110    541.201    -26.091    521.683    540.826    521.683    522.055    521.683
 33.370    553.000    546.972      6.028    521.422    546.607    521.422    521.784    521.422
 33.470    592.987    558.870     34.117    521.162    558.511    521.162    521.515    521.162
 33.570    590.000    585.111      4.889    520.903    584.756    520.903    521.248    520.903
 33.670    679.000    639.191     39.809    520.645    638.834    520.645    520.982    520.645
 33.770    780.144    733.935     46.209    520.389    733.570    520.389    520.719    520.389
 33.870    889.000    866.335     22.665    520.133    865.959    520.133    520.457    520.133
 33.970    985.000   1000.169    -15.169    519.879    999.788    519.879    520.197    519.879
 34.070   1090.000   1065.970     24.030    519.626   1065.604    519.626    519.938    519.626
 34.170   1020.000   1016.451      3.549    519.374   1016.117    519.374    519.681    519.374
 34.270    886.000    888.707     -2.707    519.123    888.402    519.123    519.426    519.123
 34.370    761.000    752.696      8.304    518.873    752.407    518.873    519.172    518.873
 34.470    691.903    650.538     41.364    518.625    650.253    518.625    518.920    518.625
 34.570    591.000    589.757      1.243    518.377    589.472    518.377    518.669    518.377
 34.670    569.000    559.131      9.869    518.131    558.845    518.131    518.420    518.131
 34.770    573.340    544.810     28.530    517.886    544.525    517.886    518.172    517.886
 34.870    510.284    537.698    -27.414    517.643    537.415    517.643    517.926    517.643
 34.970    531.000    533.514     -2.514    517.400    533.233    517.400    517.681    517.400
 35.070    522.000    530.622     -8.622    517.159    530.343    517.159    517.437    517.159
 35.170    516.933    528.431    -11.498    516.919    528.155    516.919    517.196    516.919
 35.270    511.601    526.696    -15.095    516.681    526.421    516.681    516.955    516.681
 35.370    513.000    525.283    -12.283    516.443    525.010    516.443    516.716    516.443
 35.470    520.151    524.109     -3.958    516.207    523.837    516.207    516.479    516.207
 35.570    551.000    523.114     27.886    515.972    522.843    515.972    516.243    515.972
 35.670    483.464    522.258    -38.795    515.739    521.989    515.739    516.008    515.739
 35.770    546.908    521.512     25.396    515.506    521.243    515.506    515.775    515.506
 35.870    489.000    520.853    -31.853    515.275    520.585    515.275    515.543    515.275
 35.970    482.000    520.265    -38.265    515.046    519.997    515.046    515.313    515.046
 36.070    503.314    519.735    -16.421    514.817    519.468    514.817    515.084    514.817
 36.170    554.288    519.255     35.033    514.590    518.988    514.590    514.857    514.590
 36.270    505.000    518.818    -13.818    514.365    518.551    514.365    514.631    514.365
 36.370    492.000    518.419    -26.419    514.140    518.152    514.140    514.407    514.140
 36.470    491.705    518.054    -26.349    513.917    517.787    513.917    514.184    513.917
 36.570    563.068    517.722     45.347    513.696    517.455    513.696    513.962    513.696
 36.670    491.000    517.423    -26.423    513.475    517.156    513.475    513.742    513.475
 36.770    536.000    517.163     18.837    513.256    516.895    513.256    513.524    513.256
 36.870    511.373    516.954     -5.581    513.039    516.687    513.039    513.307    513.039
 36.970    546.852    516.841     30.011    512.823    516.573    512.823    513.091    512.823
 37.070    511.000    516.936     -5.936    512.608    516.667    512.608    512.877    512.608
 37.170    474.886    517.485    -42.599    512.394    517.215    512.394    512.664    512.394
 37.270    553.956    518.873     35.083    512.182    518.603    512.182    512.453    512.182
 37.370    527.000    521.470      5.530    511.972    521.199    511.972    512.243    511.972
 37.470    526.000    525.238      0.762    511.763    524.967    511.763    512.035    511.763
 37.570    523.001    529.292     -6.291    511.555    529.020    511.555    511.829    511.555
 37.670    526.000    531.849     -5.849    511.348    531.579    511.348    511.623    511.348
 37.770    535.000    531.416      3.584    511.143    531.145    511.143    511.420    511.143
 37.870    522.000    528.385     -6.385    510.940    528.116    510.940    511.218    510.940
 37.970    539.000    524.411     14.589    510.738    524.142    510.738    511.017    510.738
 38.070    496.098    520.770    -24.672    510.537    520.500    510.537    510.818    510.537
 38.170    516.961    517.920     -0.959    510.338    517.647    510.338    510.620    510.338
 38.270    523.000    515.887      7.113    510.140    515.609    510.140    510.424    510.140
 38.370    536.000    514.517     21.483    509.944    514.236    509.944    510.230    509.944
 38.470    537.483    513.616     23.868    509.749    513.331    509.749    510.037    509.749
 38.570    540.000    513.017     26.983    509.556    512.728    509.556    509.845    509.556
 38.670    509.000    512.598     -3.598    509.364    512.308    509.364    509.655    509.364
 38.770    501.000    512.280    -11.280    509.173    511.986    509.173    509.467    509.173
 38.870    484.000    512.013    -28.013    508.984    511.717    508.984    509.280    508.984
 38.970    509.000    511.775     -2.775    508.797    511.477    508.797    509.095    508.797
 39.070    488.000    511.556    -23.556    508.611    511.255    508.611    508.912    508.611
 39.170    491.000    511.349    -20.349    508.426    511.047    508.426    508.730    508.426
 39.270    501.000    511.154    -10.154    508.243    510.849    508.243    508.549    508.243
 39.370    539.000    510.968     28.032    508.062    510.660    508.062    508.370    508.062
 39.470    502.000    510.791     -8.791    507.882    510.480    507.882    508.193    507.882
 39.570    542.000    510.621     31.379    507.703    510.308    507.703    508.017    507.703
 39.670    552.728    510.459     42.269    507.526    510.142    507.526    507.843    507.526
 39.770    459.000    510.304    -51.304    507.351    509.984    507.351    507.671    507.351
 39.870    489.000    510.156    -21.156    507.177    509.833    507.177    507.500    507.177
 39.970    475.000    510.015    -35.015    507.004    509.689    507.004    507.331    507.004
 40.070    503.000    509.882     -6.882    506.833    509.553    506.833    507.163    506.833
 40.170    485.000    509.756    -24.756    506.664    509.424    506.664    506.997    506.664
 40.270    489.000    509.639    -20.639    506.496    509.303    506.496    506.833    506.496
 40.370    513.000    509.531      3.469    506.330    509.191    506.330    506.670    506.330
 40.470    489.000    509.433    -20.433    506.165    509.089    506.165    506.509    506.165
 40.570    519.000    509.346      9.654    506.002    508.999    506.002    506.349    506.002
 40.670    534.875    509.272     25.603    505.840    508.920    505.840    506.192    505.840
 40.770    481.000    509.212    -28.212    505.679    508.857    505.679    506.036    505.679
 40.870    525.000    509.170     15.830    505.521    508.810    505.521    505.881    505.521
 40.970    521.029    509.148     11.881    505.364    508.783    505.364    505.729    505.364
 41.070    482.896    509.150    -26.254    505.208    508.781    505.208    505.577    505.208
 41.170    509.000    509.182     -0.182    505.054    508.808    505.054    505.428    505.054
 41.270    499.000    509.252    -10.252    504.901    508.873    504.901    505.281    504.901
 41.370    495.000    509.368    -14.368    504.750    508.985    504.750    505.135    504.750
 41.470    535.000    509.547     25.453    504.601    509.158    504.601    504.990    504.601
 41.570    549.594    509.809     39.785    504.453    509.415    504.453    504.848    504.453
 41.670    509.000    510.193     -1.193    504.307    509.794    504.307    504.707    504.307
 41.770    472.000    510.787    -38.787    504.162    510.382    504.162    504.568    504.162
 41.870    522.000    511.805     10.195    504.019    511.395    504.019    504.431    504.019
 41.970    528.000    513.769     14.231    503.877    513.354    503.877    504.295    503.877
 42.070    524.668    517.767      6.901    503.737    517.347    503.737    504.162    503.737
 42.170    513.502    525.620    -12.118    503.598    525.197    503.598    504.030    503.598
 42.270    499.425    539.522    -40.097    503.461    539.099    503.461    503.900    503.461
 42.370    566.953    560.748      6.205    503.326    560.328    503.326    503.771    503.326
 42.470    583.000    587.634     -4.634    503.192    587.220    503.192    503.645    503.192
 42.570    626.415    613.820     12.594    503.060    613.414    503.060    503.520    503.060
 42.670    628.000    628.852     -0.852    502.929    628.448    502.929    503.397    502.929
 42.770    659.609    624.732     34.877    502.800    624.322    502.800    503.276    502.800
 42.870    591.000    603.903    -12.903    502.672    603.476    502.672    503.157    502.672
 42.970    595.000    576.340     18.660    502.546    575.888    502.546    503.040    502.546
 43.070    509.000    551.115    -42.115    502.421    550.640    502.421    502.925    502.421
 43.170    534.000    532.614      1.386    502.299    532.118    502.299    502.812    502.299
 43.270    529.501    521.118      8.383    502.177    520.605    502.177    502.700    502.177
 43.370    549.634    514.811     34.822    502.057    514.284    502.057    502.591    502.057
 43.470    518.000    511.575      6.425    501.939    511.034    501.939    502.483    501.939
 43.570    496.000    509.880    -13.880    501.822    509.327    501.822    502.378    501.822
 43.670    511.000    508.890      2.110    501.707    508.324    501.707    502.275    501.707
 43.770    482.000    508.225    -26.225    501.594    507.646    501.594    502.174    501.594
 43.870    511.285    507.731      3.555    501.482    507.139    501.482    502.075    501.482
 43.970    479.355    507.344    -27.989    501.371    506.738    501.371    501.978    501.371
 44.070    512.000    507.033      4.967    501.262    506.413    501.262    501.883    501.262
 44.170    520.000    506.781     13.219    501.155    506.146    501.155    501.791    501.155
 44.270    521.000    506.574     14.426    501.049    505.924    501.049    501.700    501.049
 44.370    573.000    506.405     66.595    500.945    505.738    500.945    501.613    500.945
 44.470    525.000    506.267     18.733    500.842    505.582    500.842    501.527    500.842
 44.570    453.000    506.155    -53.155    500.741    505.452    500.741    501.444    500.741
 44.670    508.000    506.066      1.934    500.641    505.344    500.641    501.364    500.641
 44.770    499.000    505.998     -6.998    500.543    505.255    500.543    501.286    500.543
 44.870    487.000    505.948    -18.948    500.447    505.184    500.447    501.211    500.447
 44.970    495.000    505.916    -10.916    500.352    505.129    500.352    501.139    500.352
 45.070    524.479    505.901     18.578    500.259    505.090    500.259    501.070    500.259
 45.170    509.000    505.901      3.099    500.167    505.065    500.167    501.003    500.167
 45.270    521.000    505.918     15.082    500.076    505.055    500.076    500.940    500.076
 45.370    543.000    505.951     37.049    499.988    505.059    499.988    500.880    499.988
 45.470    480.928    506.001    -25.072    499.900    505.077    499.900    500.824    499.900
 45.570    497.000    506.068     -9.068    499.815    505.111    499.815    500.771    499.815
 45.670    510.000    506.153      3.847    499.731    505.162    499.731    500.722    499.731
 45.770    475.108    506.258    -31.150    499.648    505.229    499.648    500.677    499.648
 45.870    516.000    506.384      9.616    499.567    505.314    499.567    500.636    499.567
 45.970    477.000    506.531    -29.531    499.487    505.418    499.487    500.600    499.487
 46.070    499.000    506.706     -7.706    499.409    505.545    499.409    500.569    499.409
 46.170    474.744    506.911    -32.167    499.333    505.700    499.333    500.543    499.333
 46.270    510.390    507.150      3.240    499.258    505.883    499.258    500.523    499.258
 46.370    545.425    507.428     37.997    499.184    506.102    499.184    500.510    499.184
 46.470    498.000    507.753     -9.753    499.112    506.361    499.112    500.503    499.112
 46.570    534.000    508.133     25.867    499.042    506.670    499.042    500.504    499.042
 46.670    495.000    508.583    -13.583    498.973    507.042    498.973    500.513    498.973
 46.770    507.000    509.126     -2.126    498.905    507.499    498.905    500.531    498.905
 46.870    500.000    509.810     -9.810    498.840    508.088    498.840    500.560    498.840
 46.970    524.000    510.745     13.255    498.775    508.917    498.775    500.601    498.775
 47.070    533.000    512.178     20.822    498.712    510.232    498.712    500.655    498.712
 47.170    513.000    514.613     -1.613    498.651    512.535    498.651    500.724    498.651
 47.270    528.000    518.903      9.097    498.591    516.676    498.591    500.810    498.591
 47.370    517.000    526.183     -9.183    498.532    523.785    498.532    500.917    498.532
 47.470    534.000    537.429     -3.429    498.475    534.836    498.475    501.047    498.475
 47.570    550.285    552.659     -2.374    498.420    549.841    498.420    501.205    498.420
 47.670    553.658    570.036    -16.378    498.366    566.961    498.366    501.396    498.366
 47.770    549.546    585.392    -35.846    498.313    582.025    498.313    501.626    498.313
 47.870    610.108    593.135     16.973    498.262    589.436    498.262    501.904    498.262
 47.970    591.000    589.951      1.049    498.213    585.871    498.213    502.240    498.213
 48.070    533.128    578.102    -44.974    498.164    573.574    498.164    502.650    498.164
 48.170    613.000    563.042     49.958    498.118    557.972    498.118    503.157    498.118
 48.270    549.000    549.495     -0.495    498.072    543.752    498.072    503.795    498.072
 48.370    520.461    539.940    -19.479    498.029    533.331    498.029    504.625    498.029
 48.470    519.808    534.894    -15.086    497.986    527.122    497.986    505.751    497.986
 48.570    525.000    533.782     -8.782    497.945    524.366    497.945    507.356    497.945
 48.670    545.000    535.830      9.170    497.906    523.996    497.906    509.736    497.906
 48.770    547.748    540.640      7.108    497.868    525.169    497.868    513.334    497.868
 48.870    525.000    548.336    -23.336    497.831    527.424    497.831    518.738    497.831
 48.970    546.000    559.457    -13.457    497.796    530.644    497.796    526.603    497.796
 49.070    581.000    574.737      6.263    497.762    535.015    497.762    537.477    497.762
 49.170    593.000    594.999     -1.999    497.730    541.195    497.730    551.524    497.730
 49.270    618.000    621.421     -3.421    497.699    550.952    497.699    568.155    497.699
 49.370    651.000    656.625     -5.625    497.669    568.701    497.669    585.574    497.669
 49.470    719.962    707.031     12.930    497.641    604.230    497.641    600.412    497.641
 49.570    773.000    786.567    -13.567    497.615    675.839    497.615    608.291    497.615
 49.670    931.000    919.549     11.451    497.589    810.804    497.589    606.250    497.589
 49.770   1116.000   1135.790    -19.790    497.565   1038.089    497.565    595.141    497.565
 49.870   1437.000   1451.688    -14.688    497.543   1370.237    497.543    578.829    497.543
 49.970   1766.214   1843.535    -77.322    497.521   1779.456    497.521    561.421    497.521
 50.070   2197.000   2230.305    -33.305    497.502   2182.016    497.502    545.647    497.502
 50.170   2565.009   2485.870     79.139    497.483   2450.517    497.483    532.785    497.483
 50.270   2488.000   2499.880    -11.880    497.466   2474.327    497.466    523.090    497.466
 50.370   2262.000   2261.212      0.788    497.450   2242.611    497.450    516.215    497.450
 50.470   1922.000   1869.168     52.832    497.436   1855.253    497.436    511.546    497.436
 50.570   1488.976   1454.978     33.998    497.423   1444.135    497.423    508.443    497.423
 50.670   1044.000   1111.961    -67.961    497.411   1103.137    497.411    506.371    497.411
 50.770    818.000    876.333    -58.333    497.401    868.882    497.401    504.945    497.401
 50.870    713.000    739.261    -26.261    497.392    732.798    497.392    503.919    497.392
 50.970    620.555    670.277    -49.723    497.384    664.566    497.384    503.143    497.384
 51.070    600.000    637.403    -37.403    497.377    632.289    497.377    502.533    497.377
 51.170    594.708    617.834    -23.126    497.372    613.203    497.372    502.039    497.372
 51.270    598.598    600.519     -1.921    497.369    596.285    497.369    501.632    497.369
 51.370    576.000    583.180     -7.180    497.366    579.276    497.366    501.294    497.366
 51.470    593.000    567.206     25.794    497.365    563.579    497.365    501.010    497.365
 51.570    522.355    554.196    -31.842    497.365    550.802    497.365    500.770    497.365
 51.670    567.694    544.784     22.909    497.366    541.590    497.366    500.568    497.366
 51.770    497.230    538.672    -41.442    497.369    535.649    497.369    500.397    497.369
 51.870    578.371    535.082     43.289    497.373    532.205    497.373    500.253    497.373
 51.970    533.000    533.212     -0.212    497.378    530.462    497.378    500.131    497.378
 52.070    552.000    532.488     19.512    497.384    529.845    497.384    500.029    497.384
 52.170    523.000    532.611     -9.611    497.392    530.060    497.392    499.945    497.392
 52.270    542.727    533.526      9.201    497.401    531.053    497.401    499.876    497.401
 52.370    549.000    535.417     13.583    497.411    533.009    497.411    499.820    497.411
 52.470    538.000    538.846     -0.846    497.422    536.493    497.422    499.776    497.422
 52.570    557.000    545.117     11.883    497.435    542.809    497.435    499.744    497.435
 52.670    604.000    556.861     47.139    497.449    554.589    497.449    499.721    497.449
 52.770    580.093    578.687      1.406    497.464    576.442    497.464    499.708    497.464
 52.870    602.259    617.317    -15.058    497.480    615.091    497.480    499.703    497.480
 52.970    637.716    680.347    -42.631    497.497    678.133    497.497    499.706    497.497
 53.070    821.007    772.997     48.010    497.516    770.790    497.516    499.717    497.516
 53.170    944.961    893.286     51.675    497.536    891.081    497.536    499.736    497.536
 53.270   1007.000   1027.358    -20.358    497.557   1025.154    497.557    499.761    497.557
 53.370   1199.970   1147.458     52.512    497.579   1145.253    497.579    499.793    497.579
 53.470   1180.603   1217.139    -36.536    497.602   1214.932    497.602    499.831    497.602
 53.570   1182.000   1209.663    -27.663    497.626   1207.448    497.626    499.876    497.626
 53.670   1059.000   1128.422    -69.422    497.652   1126.188    497.652    499.928    497.652
 53.770    986.000   1003.770    -17.770    497.679   1001.504    497.679    499.986    497.679
 53.870    844.000    871.254    -27.254    497.707    868.946    497.707    500.050    497.707
 53.970    735.000    756.064    -21.064    497.736    753.705    497.736    500.122    497.736
 54.070    677.000    669.579      7.421    497.766    667.164    497.766    500.199    497.766
 54.170    579.000    612.078    -33.078    497.797    609.602    497.797    500.284    497.797
 54.270    633.000    577.600     55.400    497.829    575.060    497.829    500.376    497.829
 54.370    592.566    558.561     34.005    497.863    555.952    497.863    500.476    497.863
 54.470    566.991    548.608     18.383    497.897    545.925    497.897    500.583    497.897
 54.570    543.000    543.537     -0.537    497.933    540.773    497.933    500.698    497.933
 54.670    514.115    541.004    -26.890    497.969    538.153    497.969    500.822    497.969
 54.770    561.000    539.870     21.130    498.007    536.923    498.007    500.956    498.007
 54.870    554.898    539.634     15.263    498.046    536.582    498.046    501.099    498.046
 54.970    532.854    540.095     -7.240    498.086    536.929    498.086    501.253    498.086
 55.070    584.000    541.182     42.818    498.127    537.892    498.127    501.418    498.127
 55.170    549.000    542.895      6.105    498.169    539.469    498.169    501.595    498.169
 55.270    526.891    545.274    -18.383    498.212    541.700    498.212    501.786    498.212
 55.370    577.548    548.408     29.140    498.256    544.673    498.256    501.991    498.256
 55.470    575.000    552.455     22.545    498.301    548.544    498.301    502.213    498.301
 55.570    554.000    557.713     -3.713    498.347    553.608    498.347    502.452    498.347
 55.670    574.000    564.795      9.205    498.394    560.478    498.394    502.710    498.394
 55.770    581.000    575.044      5.956    498.441    570.494    498.441    502.991    498.441
 55.870    646.000    591.350     54.650    498.490    586.543    498.490    503.295    498.490
 55.970    595.739    619.489    -23.749    498.540    614.397    498.540    503.627    498.540
 56.070    652.000    669.749    -17.749    498.591    664.340    498.591    503.990    498.591
 56.170    733.000    757.915    -24.915    498.643    752.150    498.643    504.387    498.643
 56.270    903.000    903.826     -0.826    498.696    897.663    498.696    504.823    498.696
 56.370   1175.906   1125.707     50.199    498.750   1119.101    498.750    505.305    498.750
 56.470   1410.424   1430.010    -19.587    498.804   1422.915    498.804    505.838    498.804
 56.570   1759.000   1799.526    -40.526    498.860   1791.897    498.860    506.431    498.860
 56.670   2100.000   2184.665    -84.665    498.916   2176.457    498.916    507.094    498.916
 56.770   2486.000   2503.630    -17.630    498.974   2494.793    498.974    507.837    498.974
 56.870   2664.000   2662.494      1.506    499.032   2652.959    499.032    508.677    499.032
 56.970   2661.344   2604.786     56.558    499.091   2594.443    499.091    509.630    499.091
 57.070   2360.000   2353.626      6.374    499.151   2342.308    499.151    510.720    499.151
 57.170   2026.000   1992.221     33.779    499.212   1979.716    499.212    511.976    499.212
 57.270   1715.000   1611.449    103.551    499.274   1597.513    499.274    513.440    499.274
 57.370   1260.380   1276.760    -16.379    499.337   1261.106    499.337    515.172    499.337
 57.470   1044.000   1020.081     23.919    499.400   1002.341    499.400    517.269    499.400
 57.570    949.000    845.079    103.921    499.465    824.737    499.465    519.890    499.465
 57.670    764.263    738.327     25.937    499.530    714.603    499.530    523.302    499.530
 57.770    750.000    680.938     69.062    499.596    652.611    499.596    527.948    499.596
 57.870    698.000    656.719     41.281    499.663    621.865    499.663    534.526    499.663
 57.970    703.000    655.711     47.289    499.730    611.382    499.730    544.057    499.730
 58.070    642.974    674.312    -31.338    499.799    616.188    499.799    557.911    499.799
 58.170    699.000    713.445    -14.445    499.868    635.580    499.868    577.710    499.868
 58.270    730.032    776.140    -46.108    499.938    670.961    499.938    605.081    499.938
 58.370    837.000    864.915    -27.915    500.009    723.652    500.009    641.223    500.009
 58.470    989.000    979.317      9.683    500.080    793.004    500.080    686.331    500.080
 58.570   1072.000   1113.873    -41.873    500.153    875.018    500.153    738.940    500.153
 58.670   1283.000   1257.037     25.963    500.226    962.025    500.226    795.170    500.226
 58.770   1416.000   1392.230     23.770    500.299   1044.488    500.299    847.981    500.299
 58.870   1488.000   1501.021    -13.021    500.374   1114.140    500.374    887.209    500.374
 58.970   1623.000   1566.491     56.509    500.449   1164.524    500.449    902.389    500.449
 59.070   1618.000   1577.232     40.768    500.525   1189.057    500.525    888.697    500.525
 59.170   1523.000   1533.095    -10.095    500.602   1183.133    500.602    850.579    500.602
 59.270   1483.000   1447.753     35.247    500.679   1150.090    500.679    798.363    500.679
 59.370   1332.725   1343.544    -10.819    500.757   1102.016    500.757    742.298    500.757
 59.470   1257.000   1242.784     14.216    500.835   1054.031    500.835    689.580    500.835
 59.570   1135.549   1163.737    -28.188    500.915   1020.384    500.915    644.226    500.915
 59.670   1070.462   1121.605    -51.143    500.995   1014.707    500.995    607.808    500.995
 59.770   1127.142   1127.992     -0.850    501.075   1048.738    501.075    580.194    501.075
 59.870   1196.000   1186.162      9.838    501.156   1126.903    501.156    560.224    501.156
 59.970   1329.000   1286.205     42.795    501.238   1240.916    501.238    546.283    501.238
 60.070   1424.045   1403.520     20.525    501.321   1367.816    501.321    536.740    501.321
 60.170   1486.000   1501.498    -15.498    501.404   1472.391    501.404    530.215    501.404
 60.270   1573.000   1541.189     31.811    501.488   1516.735    501.488    525.667    501.488
 60.370   1511.478   1499.799     11.679    501.572   1478.762    501.572    522.389    501.572
 60.470   1310.731   1384.620    -73.889    501.657   1366.194    501.657    519.929    501.657
 60.570   1271.000   1225.690     45.310    501.742   1209.322    501.742    518.017    501.742
 60.670   1112.000   1057.465     54.535    501.828   1042.748    501.828    516.496    501.828
 60.770    880.000    906.494    -26.494    501.914    893.107    501.914    515.280    501.914
 60.870    760.000    787.397    -27.397    502.002    775.071    502.002    514.319    502.002
 60.970    722.391    703.878     18.513    502.089    692.373    502.089    513.590    502.089
 61.070    609.000    652.511    -43.511    502.177    641.603    502.177    513.080    502.177
 61.170    635.000    627.390      7.610    502.266    616.861    502.266    512.783    502.266
 61.270    636.000    623.933     12.067    502.355    613.576    502.355    512.693    502.355
 61.370    621.517    640.948    -19.432    502.445    630.571    502.445    512.791    502.445
 61.470    674.000    680.784     -6.784    502.535    670.227    502.535    513.043    502.535
 61.570    731.000    747.750    -16.750    502.625    736.912    502.625    513.391    502.625
 61.670    795.282    845.128    -49.845    502.716    834.001    502.716    513.740    502.716
 61.770    996.000    971.439     24.561    502.808    960.145    502.808    513.967    502.808
 61.870   1036.000   1117.098    -81.098    502.900   1105.888    502.900    513.945    502.900
 61.970   1250.000   1262.684    -12.684    502.992   1251.889    502.992    513.605    502.992
 62.070   1334.000   1380.167    -46.167    503.085   1370.094    503.085    512.976    503.085
 62.170   1367.301   1439.594    -72.293    503.178   1430.451    503.178    512.164    503.178
 62.270   1397.000   1422.753    -25.753    503.272   1414.621    503.272    511.289    503.272
 62.370   1324.000   1334.676    -10.676    503.366   1327.528    503.366    510.446    503.366
 62.470   1203.000   1200.013      2.987    503.460   1193.752    503.460    509.691    503.460
 62.570   1072.772   1049.060     23.712    503.555   1043.556    503.555    509.056    503.555
 62.670    865.742    906.764    -41.022    503.650    901.879    503.650    508.546    503.650
 62.770    750.196    788.432    -38.235    503.746    784.038    503.746    508.153    503.746
 62.870    664.000    699.741    -35.741    503.841    695.733    503.841    507.862    503.841
 62.970    641.918    639.083      2.835    503.938    635.377    503.938    507.651    503.938
 63.070    630.580    600.851     29.728    504.034    597.386    504.034    507.503    504.034
 63.170    590.000    578.462     11.538    504.131    575.193    504.131    507.400    504.131
 63.270    584.000    566.296     17.704    504.228    563.192    504.228    507.330    504.228
 63.370    576.000    560.503     15.497    504.326    557.540    504.326    507.284    504.326
 63.470    539.439    559.048    -19.609    504.423    556.209    504.423    507.256    504.423
 63.570    617.000    561.450     55.550    504.522    558.720    504.522    507.242    504.522
 63.670    533.909    568.505    -34.596    504.620    565.873    504.620    507.239    504.620
 63.770    590.000    582.044      7.956    504.718    579.498    504.718    507.245    504.718
 63.870    602.000    604.590     -2.590    504.817    602.119    504.817    507.260    504.817
 63.970    586.064    638.753    -52.690    504.916    636.346    504.916    507.281    504.916
 64.070    645.334    686.290    -40.956    505.016    683.936    505.016    507.310    505.016
 64.170    790.000    746.925     43.075    505.115    744.616    505.115    507.344    505.115
 64.270    753.000    817.241    -64.241    505.215    814.971    505.215    507.383    505.215
 64.370    864.431    889.974    -25.543    505.315    887.742    505.315    507.427    505.315
 64.470    901.000    954.281    -53.281    505.415    952.091    505.415    507.476    505.415
 64.570    959.000    998.050    -39.050    505.515    995.909    505.515    507.529    505.515
 64.670   1041.000   1012.656     28.344    505.616   1010.573    505.616    507.585    505.616
 64.770    972.000    996.857    -24.857    505.717    994.839    505.717    507.646    505.717
 64.870    928.000    956.289    -28.289    505.817    954.337    505.817    507.709    505.817
 64.970    908.000    900.411      7.589    505.918    898.523    505.918    507.774    505.918
 65.070    847.000    839.371      7.629    506.019    837.539    506.019    507.843    506.019
 65.170    783.000    781.196      1.804    506.121    779.412    506.121    507.916    506.121
 65.270    757.000    730.290     26.710    506.222    728.544    506.222    507.991    506.222
 65.370    684.000    687.784     -3.784    506.323    686.067    506.323    508.068    506.323
 65.470    642.000    653.076    -11.076    506.425    651.380    506.425    508.148    506.425
 65.570    617.000    625.205     -8.205    506.527    623.525    506.527    508.230    506.527
 65.670    572.000    603.311    -31.311    506.628    601.643    506.628    508.315    506.628
 65.770    561.923    586.605    -24.681    506.730    584.945    506.730    508.402    506.730
 65.870    600.000    574.334     25.666    506.832    572.683    506.832    508.490    506.832
 65.970    564.000    565.792     -1.792    506.934    564.148    506.934    508.581    506.934
 66.070    530.000    560.310    -30.310    507.036    558.673    507.036    508.674    507.036
 66.170    602.404    557.275     45.129    507.138    555.644    507.138    508.768    507.138
 66.270    513.998    556.164    -42.166    507.240    554.538    507.240    508.865    507.240
 66.370    550.931    556.582     -5.651    507.342    554.961    507.342    508.963    507.342
 66.470    548.000    558.314    -10.314    507.444    556.694    507.444    509.063    507.444
 66.570    573.000    561.367     11.633    507.546    559.748    507.546    509.165    507.546
 66.670    554.000    566.075    -12.075    507.648    564.454    507.648    509.269    507.648
 66.770    613.918    573.282     40.636    507.749    571.657    507.749    509.375    507.749
 66.870    546.000    584.679    -38.679    507.851    583.048    507.851    509.483    507.851
 66.970    625.000    603.289     21.711    507.953    601.648    507.953    509.592    507.953
 67.070    617.590    634.011    -16.422    508.055    632.359    508.055    509.704    508.055
 67.170    713.179    684.003     29.176    508.157    682.334    508.157    509.817    508.157
 67.270    753.000    762.476     -9.476    508.258    760.789    508.258    509.933    508.258
 67.370    846.000    879.468    -33.468    508.360    877.760    508.360    510.050    508.360
 67.470   1049.000   1043.271      5.729    508.461   1041.543    508.461    510.170    508.461
 67.570   1233.000   1256.735    -23.735    508.563   1254.991    508.563    510.292    508.563
 67.670   1505.000   1513.259     -8.259    508.664   1511.508    508.664    510.417    508.664
 67.770   1748.000   1793.699    -45.699    508.765   1791.953    508.765    510.544    508.765
 67.870   2062.000   2065.375     -3.375    508.866   2063.649    508.866    510.674    508.866
 67.970   2239.855   2284.700    -44.845    508.967   2283.008    508.967    510.806    508.967
 68.070   2383.000   2406.438    -23.438    509.067   2404.784    509.067    510.942    509.067
 68.170   2418.000   2400.914     17.086    509.168   2399.286    509.168    511.080    509.168
 68.270   2266.000   2269.661     -3.661    509.268   2268.031    509.268    511.222    509.268
 68.370   2059.000   2044.467     14.533    509.368   2042.797    509.368    511.368    509.368
 68.470   1859.000   1770.934     88.066    509.468   1769.190    509.468    511.518    509.468
 68.570   1626.000   1491.911    134.089    509.568   1490.070    509.568    511.672    509.568
 68.670   1221.000   1238.947    -17.947    509.667   1236.994    509.667    511.830    509.667
 68.770   1020.374   1030.037     -9.663    509.767   1027.968    509.767    511.994    509.767
 68.870    872.000    870.836      1.164    509.866    868.651    509.866    512.163    509.866
 68.970    787.685    757.876     29.809    509.964    755.578    509.964    512.338    509.964
 69.070    634.348    682.593    -48.245    510.063    680.185    510.063    512.520    510.063
 69.170    599.588    634.948    -35.359    510.161    632.432    510.161    512.709    510.161
 69.270    563.820    605.874    -42.054    510.259    603.247    510.259    512.906    510.259
 69.370    584.000    588.405     -4.405    510.357    585.663    510.357    513.112    510.357
 69.470    625.000    577.802     47.198    510.455    574.938    510.455    513.328    510.455
 69.570    605.203    571.150     34.054    510.552    568.153    510.552    513.555    510.552
 69.670    570.320    566.792      3.528    510.649    563.652    510.649    513.794    510.649
 69.770    597.944    563.852     34.092    510.745    560.553    510.745    514.047    510.745
 69.870    575.000    561.882     13.118    510.841    558.410    510.841    514.316    510.841
 69.970    614.000    560.662     53.338    510.937    556.998    510.937    514.602    510.937
 70.070    546.000    560.094    -14.094    511.033    556.219    511.033    514.909    511.033
 70.170    572.000    560.147     11.853    511.128    556.037    511.128    515.238    511.128
 70.270    516.426    560.845    -44.419    511.223    556.473    511.223    515.594    511.223
 70.370    598.696    562.289     36.407    511.317    557.624    511.317    515.980    511.317
 70.470    535.000    564.709    -29.709    511.411    559.715    511.411    516.401    511.411
 70.570    541.328    568.558    -27.230    511.505    563.195    511.505    516.863    511.505
 70.670    569.000    574.683     -5.683    511.598    568.900    511.598    517.374    511.598
 70.770    608.000    584.549     23.451    511.691    578.288    511.691    517.942    511.691
 70.870    566.000    600.529    -34.529    511.783    593.715    511.783    518.580    511.783
 70.970    584.000    626.147    -42.147    511.875    618.687    511.875    519.309    511.875
 71.070    673.383    666.154      7.229    511.967    657.925    511.967    520.157    511.967
 71.170    731.000    726.220      4.780    512.058    717.048    512.058    521.171    512.058
 71.270    780.000    812.054    -32.054    512.149    801.689    512.149    522.430    512.149
 71.370    962.000    927.912     34.088    512.239    915.981    512.239    524.058    512.239
 71.470   1091.171   1074.656     16.515    512.329   1060.589    512.329    526.252    512.329
 71.570   1163.000   1247.808    -84.808    512.418   1230.743    512.418    529.310    512.418
 71.670   1361.000   1436.157    -75.157    512.507   1414.813    512.507    533.652    512.507
 71.770   1602.000   1621.411    -19.411    512.595   1593.956    512.595    539.839    512.595
 71.870   1771.000   1779.503     -8.503    512.683   1743.425    512.683    548.553    512.683
 71.970   1961.398   1884.792     76.606    512.770   1836.841    512.770    560.536    512.770
 72.070   1896.000   1918.172    -22.172    512.857   1854.404    512.857    576.474    512.857
 72.170   1946.897   1875.949     70.948    512.943   1791.949    512.943    596.833    512.943
 72.270   1839.728   1771.992     67.736    513.028   1663.294    513.028    621.653    513.028
 72.370   1696.678   1630.566     66.112    513.114   1493.293    513.114    650.341    513.114
 72.470   1578.000   1476.584    101.416    513.198   1308.263    513.198    681.492    513.198
 72.570   1386.542   1329.388     57.153    513.282   1129.903    513.282    712.750    513.282
 72.670   1182.698   1200.380    -17.682    513.365    972.960    513.365    740.771    513.365
 72.770   1069.000   1093.093    -24.093    513.448    845.002    513.448    761.526    513.448
 72.870   1044.335   1005.180     39.156    513.530    747.457    513.530    771.239    513.530
 72.970    856.000    931.719    -75.719    513.612    677.423    513.612    767.893    513.612
 73.070    779.000    868.271    -89.271    513.693    629.701    513.693    752.249    513.693
 73.170    787.633    812.199    -24.566    513.773    598.536    513.773    727.423    513.773
 73.270    752.489    762.402     -9.913    513.853    578.782    513.853    697.461    513.853
 73.370    757.016    718.613     38.403    513.932    566.445    513.932    666.092    513.932
 73.470    632.000    680.904    -48.904    514.010    558.755    514.010    636.154    514.010
 73.570    590.000    649.392    -59.392    514.088    553.973    514.088    609.504    514.088
 73.670    562.000    624.054    -62.054    514.165    551.109    514.165    587.110    514.165
 73.770    606.000    604.621      1.379    514.242    549.651    514.242    569.215    514.242
 73.870    614.558    590.560     23.999    514.318    549.348    514.318    555.537    514.318
 73.970    591.183    581.125     10.058    514.393    550.055    514.393    545.474    514.393
 74.070    573.000    575.441     -2.441    514.467    551.629    514.467    538.296    514.467
 74.170    616.000    572.574     43.426    514.541    553.856    514.541    533.282    514.541
 74.270    664.000    571.585     92.415    514.614    556.419    514.614    529.809    514.614
 74.370    592.000    571.560     20.440    514.686    558.892    514.686    527.389    514.686
 74.470    539.442    571.644    -32.203    514.757    560.774    514.757    525.668    514.757
 74.570    616.000    571.116     44.884    514.828    561.586    514.828    524.402    514.828
 74.670    611.498    569.517     41.981    514.898    561.025    514.898    523.434    514.898
 74.770    634.000    566.760     67.240    514.967    559.103    514.967    522.667    514.967
 74.870    629.000    563.111     65.889    515.036    556.146    515.036    522.039    515.036
 74.970    602.000    559.041     42.959    515.104    552.664    515.104    521.513    515.104
 75.070    566.000    555.081     10.919    515.171    549.211    515.171    521.066    515.171
 75.170    576.000    551.742     24.258    515.237    546.315    515.237    520.683    515.237
 75.270    546.000    549.502     -3.502    515.302    544.465    515.302    520.352    515.302
 75.370    596.000    548.825     47.175    515.367    544.135    515.367    520.064    515.367
 75.470    579.000    550.195     28.805    515.431    545.813    515.431    519.814    515.431
 75.570    591.047    554.129     36.918    515.494    550.023    515.494    519.595    515.494
 75.670    595.000    561.160     33.840    515.556    557.302    515.556    519.405    515.556
 75.770    632.000    571.754     60.246    515.617    568.117    515.617    519.238    515.617
 75.870    634.605    586.171     48.434    515.678    582.733    515.678    519.092    515.678
 75.970    639.000    604.285     34.715    515.737    601.026    515.737    518.964    515.737
 76.070    655.164    625.411     29.753    515.796    622.314    515.796    518.852    515.796
 76.170    645.000    648.186     -3.186    515.854    645.236    515.854    518.754    515.854
 76.270    696.000    670.539     25.461    515.911    667.724    515.911    518.668    515.911
 76.370    719.000    689.803     29.197    515.967    687.114    515.967    518.594    515.967
 76.470    676.000    703.057    -27.057    516.023    700.486    516.023    518.529    516.023
 76.570    719.000    707.853     11.147    516.077    705.395    516.077    518.473    516.077
 76.670    651.000    703.169    -52.169    516.130    700.820    516.130    518.424    516.130
 76.770    681.491    689.908     -8.417    516.183    687.662    516.183    518.382    516.183
 76.870    627.000    670.445    -43.445    516.235    668.295    516.235    518.347    516.235
 76.970    604.000    647.680    -43.680    516.286    645.620    516.286    518.316    516.286
 77.070    651.579    624.290     27.289    516.335    622.313    516.335    518.291    516.335
 77.170    597.000    602.359     -5.359    516.384    600.459    516.384    518.270    516.384
 77.270    589.000    583.254      5.746    516.432    581.424    516.432    518.252    516.432
 77.370    535.000    567.637    -32.637    516.479    565.872    516.479    518.238    516.479
 77.470    581.035    555.583     25.452    516.526    553.877    516.526    518.228    516.526
 77.570    579.000    546.744     32.256    516.571    545.092    516.571    518.220    516.571
 77.670    542.000    540.554      1.446    516.615    538.953    516.615    518.214    516.615
 77.770    536.000    536.381     -0.381    516.658    534.827    516.658    518.211    516.658
 77.870    523.961    533.644     -9.683    516.700    532.134    516.700    518.210    516.700
 77.970    541.000    531.877      9.123    516.742    530.407    516.742    518.210    516.742
 78.070    500.000    530.734    -30.734    516.782    529.303    516.782    518.212    516.782
 78.170    535.000    529.984      5.016    516.821    528.588    516.821    518.216    516.821
 78.270    569.110    529.481     39.629    516.859    528.119    516.859    518.221    516.859
 78.370    510.000    529.137    -19.137    516.897    527.807    516.897    518.227    516.897
 78.470    538.000    528.891      9.109    516.933    527.589    516.933    518.234    516.933
 78.570    543.000    528.734     14.266    516.968    527.460    516.968    518.242    516.968
 78.670    505.794    528.698    -22.903    517.002    527.448    517.002    518.251    517.002
 78.770    529.094    528.767      0.327    517.035    527.541    517.035    518.261    517.035
 78.870    533.000    528.960      4.040    517.068    527.754    517.068    518.273    517.068
 78.970    484.074    529.303    -45.229    517.099    528.115    517.099    518.286    517.099
 79.070    529.000    529.829     -0.829    517.129    528.655    517.129    518.301    517.129
 79.170    553.000    530.574     22.426    517.158    529.411    517.158    518.318    517.158
 79.270    545.627    531.571     14.057    517.185    530.415    517.185    518.339    517.185
 79.370    500.000    532.850    -32.850    517.212    531.696    517.212    518.364    517.212
 79.470    538.485    534.438      4.047    517.238    533.279    517.238    518.394    517.238
 79.570    543.710    536.363      7.346    517.263    535.190    517.263    518.431    517.263
 79.670    550.273    538.667     11.606    517.286    537.472    517.286    518.476    517.286
 79.770    528.000    541.423    -13.423    517.309    540.196    517.309    518.530    517.309
 79.870    527.000    544.758    -17.758    517.330    543.489    517.330    518.593    517.330
 79.970    574.000    548.884     25.116    517.350    547.564    517.350    518.665    517.350
 80.070    536.000    554.124    -18.124    517.370    552.743    517.370    518.746    517.370
 80.170    594.498    560.912     33.585    517.388    559.465    517.388    518.832    517.388
 80.270    531.569    569.748    -38.179    517.405    568.232    517.405    518.920    517.405
 80.370    593.858    581.096     12.762    517.420    579.514    517.420    519.004    517.420
 80.470    656.000    595.262     60.738    517.435    593.624    517.435    519.079    517.435
 80.570    622.000    612.285      9.715    517.449    610.607    517.449    519.136    517.449
 80.670    643.333    631.844     11.489    517.461    630.152    517.461    519.167    517.461
 80.770    620.703    653.216    -32.513    517.472    651.538    517.472    519.170    517.472
 80.870    659.000    675.291    -16.291    517.483    673.657    517.483    519.142    517.483
 80.970    717.738    696.695     21.043    517.492    695.129    517.492    519.090    517.492
 81.070    708.000    715.991     -7.991    517.499    714.510    517.499    519.019    517.499
 81.170    721.000    731.871    -10.871    517.506    730.484    517.506    518.938    517.506
 81.270    750.000    743.273      6.727    517.512    741.983    517.512    518.853    517.512
 81.370    749.000    749.466     -0.466    517.516    748.269    517.516    518.770    517.516
 81.470    774.000    750.136     23.864    517.519    749.026    517.519    518.692    517.519
 81.570    756.000    745.408     10.592    517.521    744.374    517.521    518.622    517.521
 81.670    780.073    735.788     44.284    517.522    734.818    517.522    518.560    517.522
 81.770    759.000    722.136     36.864    517.521    721.219    517.521    518.507    517.521
 81.870    709.809    705.632      4.178    517.520    704.756    517.520    518.462    517.520
 81.970    705.000    687.612     17.388    517.517    686.769    517.517    518.425    517.517
 82.070    702.000    669.290     32.710    517.513    668.471    517.513    518.393    517.513
 82.170    654.822    651.536      3.286    517.508    650.735    517.508    518.367    517.508
 82.270    599.000    634.825    -35.825    517.501    634.037    517.501    518.343    517.501
 82.370    586.000    619.347    -33.347    517.494    618.568    517.494    518.322    517.494
 82.470    612.000    605.184      6.816    517.485    604.410    517.485    518.303    517.485
 82.570    621.000    592.439     28.561    517.475    591.668    517.475    518.284    517.475
 82.670    611.000    581.262     29.738    517.464    580.492    517.464    518.266    517.464
 82.770    575.000    571.817      3.183    517.451    571.046    517.451    518.247    517.451
 82.870    535.000    564.248    -29.248    517.437    563.475    517.437    518.229    517.437
 82.970    546.000    558.663    -12.663    517.422    557.887    517.422    518.209    517.422
 83.070    569.000    555.120     13.880    517.406    554.341    517.406    518.189    517.406
 83.170    534.292    553.615    -19.323    517.389    552.832    517.389    518.169    517.389
 83.270    532.354    554.053    -21.699    517.370    553.265    517.370    518.147    517.370
 83.370    522.000    556.231    -34.231    517.350    555.438    517.350    518.125    517.350
 83.470    560.000    559.825      0.175    517.329    559.028    517.329    518.102    517.329
 83.570    566.000    564.389      1.611    517.306    563.586    517.306    518.078    517.306
 83.670    556.000    569.361    -13.361    517.283    568.554    517.283    518.053    517.283
 83.770    535.000    574.100    -39.100    517.258    573.289    517.258    518.027    517.258
 83.870    568.000    577.928     -9.928    517.231    577.114    517.231    518.001    517.231
 83.970    565.307    580.223    -14.916    517.204    579.408    517.204    517.973    517.204
 84.070    560.000    580.547    -20.547    517.175    579.733    517.175    517.944    517.175
 84.170    540.000    578.770    -38.770    517.145    577.958    517.145    517.915    517.145
 84.270    540.000    575.101    -35.101    517.114    574.293    517.114    517.884    517.114
 84.370    560.000    570.003    -10.003    517.081    569.198    517.081    517.852    517.081
 84.470    526.793    564.046    -37.253    517.047    563.245    517.047    517.820    517.047
 84.570    510.000    557.791    -47.791    517.012    556.994    517.012    517.786    517.012
 84.670    587.485    551.713     35.772    516.976    550.919    516.976    517.752    516.976
 84.770    517.000    546.168    -29.168    516.938    545.376    516.938    517.716    516.938
 84.870    525.570    541.380    -15.810    516.899    540.589    516.899    517.680    516.899
 84.970    505.136    537.452    -32.316    516.859    536.661    516.859    517.642    516.859
 85.070    579.000    534.385     44.615    516.817    533.592    516.817    517.603    516.817
 85.170    563.167    532.107     31.060    516.774    531.313    516.774    517.564    516.774
 85.270    573.851    530.509     43.341    516.730    529.712    516.730    517.523    516.730
 85.370    504.000    529.470    -25.470    516.685    528.669    516.685    517.482    516.685
 85.470    534.000    528.881      5.119    516.638    528.076    516.638    517.439    516.638
 85.570    531.000    528.661      2.339    516.590    527.851    516.590    517.395    516.590
 85.670    541.000    528.764     12.236    516.541    527.949    516.541    517.351    516.541
 85.770    482.433    529.185    -46.752    516.490    528.364    516.490    517.305    516.490
 85.870    499.971    529.962    -29.991    516.438    529.134    516.438    517.259    516.438
 85.970    466.000    531.168    -65.168    516.385    530.333    516.385    517.211    516.385
 86.070    521.000    532.946    -11.946    516.330    532.102    516.330    517.163    516.330
 86.170    549.477    535.467     14.010    516.274    534.614    516.274    517.113    516.274
 86.270    538.000    538.920     -0.920    516.217    538.055    516.217    517.063    516.217
 86.370    547.414    543.505      3.909    516.159    542.628    516.159    517.011    516.159
 86.470    552.000    549.406      2.594    516.099    548.514    516.099    516.959    516.099
 86.570    583.274    556.745     26.529    516.038    555.836    516.038    516.906    516.038
 86.670    573.000    565.540      7.460    515.976    564.612    515.976    516.852    515.976
 86.770    552.601    575.662    -23.061    515.912    574.714    515.912    516.797    515.912
 86.870    563.174    586.797    -23.623    515.847    585.828    515.847    516.741    515.847
 86.970    595.148    598.433     -3.285    515.781    597.441    515.781    516.684    515.781
 87.070    595.000    609.857    -14.857    515.713    608.844    515.713    516.627    515.713
 87.170    631.000    620.195     10.805    515.644    619.163    515.644    516.568    515.644
 87.270    633.000    628.492      4.508    515.574    627.443    515.574    516.509    515.574
 87.370    676.000    633.859     42.141    515.502    632.796    515.502    516.449    515.502
 87.470    696.000    635.679     60.321    515.429    634.607    515.429    516.389    515.429
 87.570    651.000    633.790     17.210    515.355    632.712    515.355    516.327    515.355
 87.670    616.509    628.532    -12.023    515.280    627.452    515.280    516.265    515.280
 87.770    661.784    620.639     41.145    515.203    619.556    515.203    516.203    515.203
 87.870    671.000    611.055     59.945    515.125    609.972    515.125    516.140    515.125
 87.970    638.574    600.783     37.791    515.046    599.697    515.046    516.076    515.046
 88.070    578.162    590.766    -12.604    514.965    589.677    514.965    516.012    514.965
 88.170    590.228    581.820      8.408    514.883    580.727    514.883    515.946    514.883
 88.270    570.000    574.587     -4.587    514.800    573.487    514.800    515.880    514.800
 88.370    587.000    569.504     17.496    514.715    568.394    514.715    515.815    514.715
 88.470    532.000    566.798    -34.798    514.629    565.676    514.629    515.749    514.629
 88.570    569.000    566.496      2.504    514.542    565.360    514.542    515.683    514.542
 88.670    556.503    568.435    -11.932    514.453    567.284    514.453    515.617    514.453
 88.770    529.087    572.285    -43.198    514.364    571.118    514.364    515.551    514.364
 88.870    584.000    577.570      6.430    514.272    576.386    514.272    515.485    514.272
 88.970    597.000    583.694     13.306    514.180    582.490    514.180    515.420    514.180
 89.070    594.000    589.967      4.033    514.086    588.743    514.086    515.354    514.086
 89.170    621.850    595.650     26.200    513.991    594.403    513.991    515.289    513.991
 89.270    609.000    600.012      8.988    513.895    598.739    513.895    515.225    513.895
 89.370    607.000    602.429      4.571    513.798    601.126    513.798    515.161    513.798
 89.470    596.822    602.502     -5.680    513.699    601.165    513.699    515.099    513.699
 89.570    646.930    600.149     46.781    513.599    598.773    513.599    515.037    513.599
 89.670    563.829    595.615    -31.786    513.497    594.196    513.497    514.977    513.497
 89.770    597.000    589.385      7.615    513.395    587.918    513.395    514.918    513.395
 89.870    567.766    582.058    -14.292    513.291    580.539    513.291    514.861    513.291
 89.970    564.000    574.234    -10.234    513.185    572.657    513.185    514.807    513.185
 90.070    591.278    566.443     24.835    513.079    564.805    513.079    514.755    513.079
 90.170    540.000    559.113    -19.113    512.971    557.409    512.971    514.706    512.971
 90.270    566.000    552.545     13.455    512.862    550.771    512.862    514.661    512.862
 90.370    519.000    546.921    -27.921    512.752    545.072    512.752    514.620    512.752
 90.470    518.000    542.310    -24.310    512.640    540.380    512.640    514.584    512.640
 90.570    531.000    538.693     -7.693    512.527    536.676    512.527    514.555    512.527
 90.670    562.838    535.989     26.849    512.413    533.876    512.413    514.533    512.413
 90.770    499.921    534.078    -34.157    512.298    531.860    512.298    514.521    512.298
 90.870    537.000    532.800      4.200    512.181    530.463    512.181    514.522    512.181
 90.970    500.563    532.109    -31.545    512.064    529.635    512.064    514.538    512.064
 91.070    506.000    531.906    -25.906    511.945    529.273    511.945    514.577    511.945
 91.170    547.000    532.124     14.876    511.824    529.302    511.824    514.645    511.824
 91.270    519.000    532.752    -13.752    511.703    529.701    511.703    514.752    511.703
 91.370    497.000    533.825    -36.825    511.580    530.491    511.580    514.911    511.580
 91.470    495.648    535.426    -39.777    511.456    531.737    511.456    515.141    511.456
 91.570    534.000    537.684     -3.684    511.331    533.548    511.331    515.461    511.331
 91.670    489.000    540.776    -51.776    511.205    536.073    511.205    515.901    511.205
 91.770    548.000    544.922      3.078    511.077    539.500    511.077    516.489    511.077
 91.870    572.413    550.376     22.037    510.948    544.048    510.948    517.263    510.948
 91.970    537.978    557.404    -19.425    510.818    549.944    510.818    518.261    510.818
 92.070    520.677    566.264    -45.586    510.687    557.409    510.687    519.521    510.687
 92.170    551.154    577.182    -26.028    510.555    566.632    510.555    521.078    510.555
 92.270    587.615    590.317     -2.702    510.421    577.742    510.421    522.964    510.421
 92.370    636.295    605.726     30.569    510.286    590.779    510.286    525.194    510.286
 92.470    658.000    623.336     34.664    510.150    605.671    510.150    527.768    510.150
 92.570    586.000    642.924    -56.924    510.013    622.211    510.013    530.672    510.013
 92.670    681.000    664.094     16.906    509.875    640.047    509.875    533.860    509.875
 92.770    674.000    686.271    -12.271    509.735    658.680    509.735    537.259    509.735
 92.870    777.000    708.722     68.278    509.595    677.483    509.595    540.760    509.595
 92.970    734.059    730.603      3.455    509.453    695.756    509.453    544.224    509.453
 93.070    738.000    751.072    -13.072    509.310    712.831    509.310    547.471    509.310
 93.170    841.000    769.416     71.584    509.166    728.206    509.166    550.294    509.166
 93.270    780.000    785.160     -5.160    509.021    741.630    509.021    552.471    509.021
 93.370    828.000    798.136     29.864    508.875    753.137    508.875    553.794    508.875
 93.470    863.493    808.442     55.051    508.728    762.974    508.728    554.118    508.728
 93.570    851.000    816.378     34.622    508.579    771.489    508.579    553.393    508.579
 93.670    882.000    822.385     59.615    508.429    779.057    508.429    551.685    508.429
 93.770    833.000    827.023      5.977    508.279    786.082    508.279    549.150    508.279
 93.870    825.000    830.977     -5.977    508.127    793.037    508.127    546.001    508.127
 93.970    868.000    835.024     32.976    507.974    800.474    507.974    542.459    507.974
 94.070    869.161    839.924     29.237    507.820    808.953    507.820    538.729    507.820
 94.170    821.000    846.249    -25.249    507.665    818.868    507.665    534.985    507.665
 94.270    843.000    854.195    -11.195    507.509    830.284    507.509    531.362    507.509
 94.370    817.000    863.472    -46.472    507.352    842.805    507.352    527.963    507.352
 94.470    867.475    873.270     -5.795    507.194    855.555    507.194    524.856    507.194
 94.570    894.000    882.324     11.676    507.034    867.228    507.034    522.082    507.034
 94.670    931.000    889.055     41.945    506.874    876.229    506.874    519.658    506.874
 94.770    948.000    891.796     56.204    506.713    880.896    506.713    517.578    506.713
 94.870    888.000    889.116     -1.116    506.551    879.817    506.551    515.823    506.551
 94.970    879.407    880.152     -0.745    506.387    872.159    506.387    514.363    506.387
 95.070    933.000    864.846     68.154    506.223    857.899    506.223    513.161    506.223
 95.170    825.397    843.965    -18.568    506.058    837.842    506.058    512.179    506.058
 95.270    910.000    818.923     91.077    505.891    813.440    505.891    511.379    505.891
 95.370    811.000    791.511     19.489    505.724    786.519    505.724    510.725    505.724
 95.470    794.000    763.658     30.342    505.556    759.037    505.556    510.188    505.556
 95.570    860.000    737.302    122.698    505.387    732.958    505.387    509.741    505.387
 95.670    685.432    714.224    -28.792    505.216    710.085    505.216    509.364    505.216
 95.770    757.000    696.026     60.974    505.045    692.036    505.045    509.040    505.045
 95.870    656.000    684.110    -28.110    504.873    680.227    504.873    508.757    504.873
 95.970    717.000    679.679     37.321    504.700    675.868    504.700    508.504    504.700
 96.070    708.000    683.737     24.263    504.527    679.973    504.527    508.277    504.527
 96.170    669.000    697.106    -28.106    504.352    693.365    504.352    508.068    504.352
 96.270    696.284    720.402    -24.118    504.176    716.667    504.176    507.876    504.176
 96.370    790.143    754.001     36.143    504.000    750.256    504.000    507.698    504.000
 96.470    780.000    797.957    -17.957    503.822    794.189    503.822    507.532    503.822
 96.570    867.000    851.900     15.100    503.644    848.097    503.644    507.378    503.644
 96.670    872.000    914.924    -42.924    503.465    911.075    503.465    507.234    503.465
 96.770   1020.525    985.489     35.036    503.285    981.583    503.285    507.101    503.285
 96.870   1016.032   1061.351    -45.319    503.104   1057.380    503.104    506.978    503.104
 96.970   1093.000   1139.548    -46.548    502.922   1135.503    502.922    506.865    502.922
 97.070   1196.851   1216.438    -19.588    502.740   1212.312    502.740    506.763    502.740
 97.170   1239.000   1287.828    -48.828    502.557   1283.614    502.557    506.672    502.557
 97.270   1343.000   1349.223     -6.223    502.373   1344.913    502.373    506.593    502.373
 97.370   1411.000   1396.260     14.740    502.188   1391.847    502.188    506.525    502.188
 97.470   1425.000   1425.316     -0.316    502.002   1420.790    502.002    506.471    502.002
 97.570   1366.557   1434.167    -67.610    501.816   1429.515    501.816    506.431    501.816
 97.670   1399.000   1422.440    -23.440    501.629   1417.647    501.629    506.407    501.629
 97.770   1424.807   1391.632     33.175    501.441   1386.679    501.441    506.401    501.441
 97.870   1404.978   1344.711     60.267    501.252   1339.574    501.252    506.414    501.252
 97.970   1296.563   1285.532     11.031    501.063   1280.183    501.063    506.451    501.063
 98.070   1232.980   1218.295     14.685    500.873   1212.701    500.873    506.516    500.873
 98.170   1153.051   1147.161      5.889    500.683   1141.285    500.683    506.615    500.683
 98.270   1175.000   1076.003     98.997    500.491   1069.796    500.491    506.755    500.491
 98.370   1037.000   1008.250     28.750    500.299   1001.655    500.299    506.949    500.299
 98.470    990.000    946.808     43.192    500.107    939.753    500.107    507.212    500.107
 98.570    880.868    894.045    -13.176    499.913    886.439    499.913    507.563    499.913
 98.670    851.000    851.816     -0.816    499.719    843.541    499.719    508.029    499.719
 98.770    782.574    821.521    -38.947    499.525    812.425    499.525    508.646    499.525
 98.870    822.787    804.189     18.598    499.330    794.075    499.330    509.459    499.330
 98.970    854.264    800.547     53.718    499.134    789.163    499.134    510.523    499.134
 99.070    720.000    811.135    -91.135    498.938    798.163    498.938    511.906    498.938
 99.170    783.149    836.294    -53.145    498.741    821.333    498.741    513.689    498.741
 99.270    832.000    876.165    -44.165    498.544    858.723    498.544    515.965    498.544
 99.370    902.270    930.667    -28.398    498.346    910.150    498.346    518.838    498.346
 99.470    944.000    999.408    -55.408    498.147    975.112    498.147    522.415    498.147
 99.570   1079.517   1081.584     -2.066    497.949   1052.693    497.949    526.809    497.949
 99.670   1191.182   1175.869     15.313    497.749   1141.468    497.749    532.124    497.749
 99.770   1296.000   1280.321     15.679    497.549   1239.400    497.549    538.450    497.549
 99.870   1419.152   1392.300     26.853    497.349   1343.789    497.349    545.850    497.349
 99.970   1494.000   1508.444    -14.444    497.148   1451.245    497.148    554.352    497.148
100.070   1678.441   1624.737     53.704    496.947   1557.772    496.947    563.934    496.947
100.170   1744.366   1736.698      7.668    496.745   1658.969    496.745    574.519    496.745
100.270   1926.000   1839.716     86.284    496.543   1750.371    496.543    585.959    496.543
100.370   1872.329   1929.469    -57.140    496.341   1827.875    496.341    598.032    496.341
100.470   2091.696   2002.283     89.413    496.138   1888.110    496.138    610.435    496.138
100.570   2053.000   2055.313     -2.313    495.935   1928.615    495.935    622.781    495.935
100.670   2080.227   2086.526     -6.299    495.731   1947.828    495.731    634.599    495.731
100.770   2094.000   2094.668     -0.668    495.528   1945.040    495.528    645.343    495.528
100.870   2006.490   2079.354    -72.864    495.324   1920.459    495.324    654.420    495.324
100.970   2093.272   2041.341     51.931    495.119   1875.433    495.119    661.237    495.119
101.070   1902.716   1982.787    -80.071    494.914   1812.629    494.914    665.286    494.914
101.170   1929.000   1907.283     21.717    494.710   1735.976    494.710    666.227    494.710
101.270   1836.000   1819.537     16.463    494.504   1650.279    494.504    663.965    494.504
101.370   1742.000   1724.820     17.180    494.299   1560.640    494.299    658.670    494.299
101.470   1569.000   1628.349    -59.349    494.093   1471.880    494.093    650.740    494.093
101.570   1505.000   1534.792    -29.792    493.887   1388.122    493.887    640.718    493.887
101.670   1428.000   1447.920    -19.920    493.681   1312.542    493.681    629.204    493.681
101.770   1412.000   1370.436     41.564    493.475   1247.257    493.475    616.782    493.475
101.870   1327.000   1303.906     23.094    493.269   1193.310    493.269    603.979    493.269
101.970   1248.000   1248.795     -0.795    493.063   1150.716    493.063    591.242    493.063
102.070   1200.911   1204.552     -3.641    492.856   1118.565    492.856    578.934    492.856
102.170   1077.000   1169.761    -92.761    492.649   1095.161    492.649    567.333    492.649
102.270   1171.971   1142.328     29.644    492.443   1078.212    492.443    556.638    492.443
102.370   1095.000   1119.720    -24.720    492.236   1065.058    492.236    546.975    492.236
102.470   1111.000   1099.254     11.746    492.029   1052.954    492.029    538.406    492.029
102.570   1027.805   1078.419    -50.615    491.822   1039.384    491.822    530.936    491.822
102.670   1070.054   1055.202     14.852    491.616   1022.372    491.616    524.525    491.616
102.770    989.011   1028.323    -39.313    491.409   1000.712    491.409    519.102    491.409
102.870   1007.790    997.321     10.468    491.202    974.035    491.202    514.570    491.202
102.970    931.147    962.460    -31.313    490.995    942.713    490.995    510.824    490.995
103.070    923.682    924.532     -0.849    490.789    907.648    490.789    507.751    490.789
103.170    894.881    884.630     10.251    490.582    870.044    490.582    505.243    490.582
103.270    825.000    843.960    -18.960    490.376    831.206    490.376    503.201    490.376
103.370    796.000    803.705     -7.705    490.170    792.405    490.170    501.534    490.170
103.470    749.096    764.928    -15.832    489.963    754.784    489.963    500.165    489.963
103.570    703.000    728.515    -25.515    489.758    719.293    489.758    499.031    489.758
103.670    664.132    695.140    -31.008    489.552    686.657    489.552    498.079    489.552
103.770    686.137    665.265     20.872    489.346    657.383    489.346    497.266    489.346
103.870    664.000    639.112     24.888    489.141    631.723    489.141    496.561    489.141
103.970    615.000    616.706     -1.706    488.936    609.729    488.936    495.938    488.936
104.070    592.000    597.908     -5.908    488.731    591.279    488.731    495.380    488.731
104.170    593.000    582.452     10.548    488.527    576.123    488.527    494.871    488.527
104.270    529.000    569.992    -40.992    488.323    563.924    488.323    494.403    488.323
104.370    554.311    560.142     -5.831    488.119    554.303    488.119    493.966    488.119
104.470    534.000    552.511    -18.511    487.915    546.875    487.915    493.557    487.915
104.570    623.000    546.725     76.275    487.712    541.271    487.712    493.170    487.712
104.670    540.919    542.454     -1.536    487.509    537.163    487.509    492.803    487.509
104.770    577.000    539.416     37.584    487.307    534.271    487.307    492.453    487.307
104.870    528.000    537.385     -9.385    487.105    532.372    487.105    492.118    487.105
104.970    537.981    536.191      1.790    486.904    531.297    486.904    491.797    486.904
105.070    546.560    535.716     10.844    486.703    530.932    486.703    491.483    486.703
105.170    544.000    535.903      8.097    486.503    531.215    486.503    491.186    486.503
105.270    562.000    536.731     25.269    486.303    532.127    486.303    490.900    486.303
105.370    554.228    538.219     16.010    486.104    533.690    486.104    490.625    486.104
105.470    539.000    540.423     -1.423    485.905    535.960    485.905    490.359    485.905
105.570    555.000    543.429     11.571    485.707    539.023    485.707    490.101    485.707
105.670    594.000    547.338     46.662    485.510    542.981    485.510    489.853    485.510
105.770    526.000    552.257    -26.257    485.313    547.941    485.313    489.612    485.313
105.870    554.000    558.283     -4.283    485.117    554.004    485.117    489.377    485.117
105.970    589.000    565.484     23.516    484.921    561.242    484.921    489.141    484.921
106.070    576.000    573.911      2.089    484.727    569.692    484.727    488.921    484.727
106.170    564.170    583.540    -19.370    484.533    579.336    484.533    488.709    484.533
106.270    554.541    594.288    -39.747    484.340    590.093    484.340    488.503    484.340
106.370    584.000    606.006    -22.006    484.147    601.814    484.147    488.304    484.147
106.470    637.056    618.471     18.584    483.956    614.277    483.956    488.111    483.956
106.570    657.000    631.392     25.608    483.765    627.191    483.765    487.925    483.765
106.670    677.297    644.412     32.885    483.575    640.199    483.575    487.744    483.575
106.770    618.000    657.128    -39.128    483.386    652.899    483.386    487.570    483.386
106.870    634.430    669.101    -34.671    483.198    664.852    483.198    487.401    483.198
106.970    659.342    679.893    -20.551    483.011    675.620    483.011    487.239    483.011
107.070    680.000    689.099     -9.099    482.825    684.797    482.825    487.082    482.825
107.170    678.000    696.400    -18.400    482.640    692.066    482.640    486.931    482.640
107.270    691.000    701.620    -10.620    482.456    697.248    482.456    486.787    482.456
107.370    706.000    704.759      1.241    482.273    700.347    482.273    486.649    482.273
107.470    669.000    706.009    -37.009    482.091    701.551    482.091    486.517    482.091
107.570    696.000    705.720     -9.720    481.910    701.211    481.910    486.391    481.910
107.670    724.673    704.344     20.329    481.730    699.778    481.730    486.271    481.730
107.770    672.000    702.364    -30.364    481.551    697.736    481.551    486.159    481.551
107.870    685.000    700.236    -15.236    481.374    695.542    481.374    486.053    481.374
107.970    673.000    698.342    -25.342    481.198    693.574    481.198    485.954    481.198
108.070    747.244    696.952     50.292    481.023    692.105    481.023    485.862    481.023
108.170    693.000    696.214     -3.214    480.849    691.282    480.849    485.778    480.849
108.270    662.000    696.140    -34.140    480.676    691.115    480.676    485.702    480.676
108.370    631.000    696.608    -65.608    480.505    691.484    480.505    485.633    480.505
108.470    738.995    697.373     41.622    480.335    692.142    480.335    485.573    480.335
108.570    686.000    698.086    -12.086    480.167    692.742    480.167    485.522    480.167
108.670    726.261    698.332     27.929    480.000    692.866    480.000    485.480    480.000
108.770    721.000    697.671     23.329    479.834    692.075    479.834    485.447    479.834
108.870    658.258    695.702    -37.444    479.670    689.967    479.670    485.424    479.670
108.970    712.000    692.117     19.883    479.508    686.233    479.508    485.412    479.508
109.070    718.000    686.752     31.248    479.346    680.709    479.346    485.411    479.346
109.170    726.790    679.607     47.183    479.187    673.396    479.187    485.422    479.187
109.270    690.551    670.833     19.717    479.029    664.441    479.029    485.445    479.029
109.370    682.000    660.679     21.321    478.872    654.094    478.872    485.481    478.872
109.470    623.402    649.516    -26.115    478.717    642.725    478.717    485.531    478.717
109.570    641.000    637.739      3.261    478.564    630.728    478.564    485.597    478.564
109.670    603.000    625.704    -22.704    478.413    618.459    478.413    485.678    478.413
109.770    657.651    613.763     43.888    478.263    606.269    478.263    485.776    478.263
109.870    616.000    602.230     13.770    478.115    594.469    478.115    485.893    478.115
109.970    541.309    591.371    -50.062    477.969    583.324    477.969    486.029    477.969
110.070    635.000    581.395     53.605    477.825    573.043    477.825    486.188    477.825
110.170    538.000    572.453    -34.453    477.682    563.774    477.682    486.371    477.682
110.270    595.828    564.641     31.187    477.541    555.610    477.541    486.581    477.541
110.370    539.287    558.001    -18.714    477.403    548.588    477.403    486.821    477.403
110.470    588.000    552.527     35.473    477.266    542.701    477.266    487.095    477.266
110.570    569.087    548.179     20.908    477.131    537.902    477.131    487.409    477.131
110.670    589.259    544.887     44.372    476.998    534.116    476.998    487.769    476.998
110.770    548.000    542.566      5.434    476.867    531.248    476.867    488.184    476.867
110.870    535.000    541.120     -6.120    476.739    529.192    476.739    488.664    476.739
110.970    538.508    540.454     -1.945    476.612    527.838    476.612    489.224    476.612
111.070    579.969    540.477     39.492    476.487    527.080    476.487    489.879    476.487
111.170    562.000    541.111     20.889    476.365    526.817    476.365    490.653    476.365
111.270    548.000    542.291      5.709    476.245    526.959    476.245    491.571    476.245
111.370    552.967    543.971      8.996    476.127    527.424    476.127    492.667    476.127
111.470    534.000    546.122    -12.122    476.011    528.144    476.011    493.981    476.011
111.570    540.000    548.736     -8.736    475.898    529.062    475.898    495.563    475.898
111.670    505.000    551.826    -46.826    475.787    530.132    475.787    497.471    475.787
111.770    565.000    555.424      9.576    475.678    531.319    475.678    499.773    475.678
111.870    526.000    559.587    -33.587    475.572    532.600    475.572    502.549    475.572
111.970    591.000    564.391     26.609    475.468    533.961    475.468    505.888    475.468
112.070    598.082    569.934     28.148    475.367    535.400    475.367    509.890    475.367
112.170    566.000    576.331    -10.331    475.268    536.924    475.268    514.663    475.268
112.270    585.000    583.715      1.285    475.171    538.549    475.171    520.325    475.171
112.370    612.000    592.230     19.770    475.078    540.300    475.078    526.995    475.078
112.470    598.000    602.027     -4.027    474.986    542.207    474.986    534.792    474.986
112.570    625.000    613.262     11.738    474.898    544.312    474.898    543.833    474.898
112.670    611.000    626.088    -15.088    474.812    546.663    474.812    554.221    474.812
112.770    625.000    640.655    -15.655    474.729    549.321    474.729    566.046    474.729
112.870    628.680    657.104    -28.424    474.648    552.365    474.648    579.369    474.648
112.970    710.000    675.568     34.432    474.571    555.897    474.571    594.222    474.571
113.070    721.146    696.171     24.975    474.496    560.049    474.496    610.597    474.496
113.170    756.000    719.034     36.966    474.424    564.994    474.424    628.441    474.424
113.270    734.000    744.279    -10.279    474.355    570.962    474.355    647.647    474.355
113.370    745.000    772.044    -27.044    474.289    578.255    474.289    668.049    474.289
113.470    844.460    802.494     41.966    474.226    587.266    474.226    689.421    474.226
113.570    845.000    835.846      9.154    474.166    598.506    474.166    711.468    474.166
113.670    836.896    872.387    -35.491    474.109    612.626    474.109    733.827    474.109
113.770    931.000    912.507     18.493    474.055    630.447    474.055    756.066    474.055
113.870    975.000    956.725     18.275    474.004    652.990    474.004    777.682    474.004
113.970    969.745   1005.724    -35.980    473.956    681.500    473.956    798.114    473.956
114.070   1063.000   1060.387      2.613    473.911    717.474    473.911    816.746    473.911
114.170   1129.000   1121.833      7.167    473.870    762.669    473.870    832.941    473.870
114.270   1149.013   1191.462    -42.448    473.832    819.112    473.832    846.071    473.832
114.370   1290.000   1270.988     19.012    473.797    889.083    473.797    855.571    473.797
114.470   1335.567   1362.465    -26.898    473.766    975.079    473.766    860.997    473.766
114.570   1423.000   1468.282    -45.282    473.738   1079.757    473.738    862.079    473.738
114.670   1519.732   1591.112    -71.380    473.713   1205.847    473.713    858.761    473.713
114.770   1786.964   1733.801     53.164    473.692   1356.030    473.692    851.207    473.692
114.870   1972.000   1899.197     72.803    473.675   1532.793    473.675    839.780    473.675
114.970   2126.000   2089.934     36.066    473.661   1738.258    473.661    824.991    473.661
115.070   2269.449   2308.176    -38.726    473.650   1973.986    473.650    807.443    473.650
115.170   2530.000   2555.360    -25.360    473.643   2240.778    473.643    787.777    473.643
115.270   2913.941   2831.956     81.985    473.640   2538.472    473.640    766.621    473.640
115.370   3164.639   3137.248     27.392    473.641   2865.764    473.641    744.569    473.641
115.470   3387.802   3469.168    -81.366    473.645   3220.054    473.645    722.153    473.645
115.570   3881.476   3824.177     57.298    473.653   3597.338    473.653    699.841    473.653
115.670   4267.906   4197.211     70.695    473.665   3992.155    473.665    678.031    473.665
115.770   4598.613   4581.689     16.923    473.681   4397.600    473.681    657.053    473.681
115.870   4888.000   4969.599    -81.599    473.700   4805.399    473.700    637.166    473.700
115.970   5155.000   5351.647   -196.647    473.724   5206.067    473.724    618.567    473.724
116.070   5621.926   5717.492    -95.566    473.752   5589.130    473.752    601.391    473.752
116.170   5995.000   6056.062    -61.062    473.783   5943.436    473.783    585.718    473.783
116.270   6337.000   6356.007    -19.007    473.819   6257.606    473.819    571.578    473.819
116.370   6628.778   6606.294     22.483    473.859   6520.619    473.859    558.958    473.859
116.470   6664.887   6796.838   -131.951    473.903   6722.438    473.903    547.811    473.903
116.570   6892.000   6919.381    -27.381    473.952   6854.877    473.952    538.060    473.952
116.670   7004.000   6968.283     35.717    474.004   6912.390    474.004    529.609    474.004
116.770   6997.189   6941.140     56.049    474.061   6892.680    474.061    522.346    474.061
116.870   6791.592   6839.061    -47.469    474.122   6796.968    474.122    516.153    474.122
116.970   6659.763   6666.510     -6.747    474.188   6629.832    474.188    510.911    474.188
117.070   6476.000   6430.770     45.230    474.258   6398.670    474.258    506.499    474.258
117.170   6191.000   6141.182     49.818    474.333   6112.934    474.333    502.807    474.333
117.270   5644.000   5808.330   -164.330    474.412   5783.309    474.412    499.729    474.412
117.370   5334.000   5443.301   -109.301    474.495   5420.976    474.495    497.170    474.495
117.470   4947.176   5057.087   -109.912    474.583   5037.012    474.583    495.045    474.583
117.570   4736.247   4660.121     76.125    474.676   4641.924    474.676    493.283    474.676
117.670   4312.484   4261.935     50.548    474.774   4245.308    474.774    491.818    474.774
117.770   3792.227   3870.912    -78.686    474.876   3855.603    474.876    490.597    474.876
117.870   3501.962   3494.125      7.837    474.984   3479.927    474.984    489.577    474.984
117.970   3272.000   3137.247    134.753    475.096   3123.995    475.096    488.720    475.096
118.070   2995.000   2804.542    190.458    475.212   2792.100    475.212    487.996    475.212
118.170   2525.000   2498.911     26.089    475.334   2487.172    475.334    487.381    475.334
118.270   2290.000   2222.003     67.997    475.461   2210.879    475.461    486.856    475.461
118.370   2005.000   1974.352     30.648    475.593   1963.773    475.593    486.406    475.593
118.470   1855.000   1755.555     99.445    475.730   1745.464    475.730    486.019    475.730
118.570   1607.636   1564.448     43.188    475.872   1554.798    475.872    485.686    475.872
118.670   1364.000   1399.293    -35.293    476.019   1390.047    476.019    485.399    476.019
118.770   1291.682   1257.955     33.727    476.172   1249.080    476.172    485.153    476.172
118.870   1140.000   1138.065      1.935    476.329   1129.535    476.329    484.942    476.329
118.970    993.000   1037.162    -44.162    476.492   1028.953    476.492    484.764    476.492
119.070    933.000    952.808    -19.808    476.661    944.900    476.661    484.616    476.661
119.170    879.486    882.683     -3.196    476.835    875.056    476.835    484.495    476.835
119.270    837.269    824.639     12.630    477.014    817.276    477.014    484.400    477.014
119.370    773.000    776.749     -3.749    477.199    769.633    477.199    484.330    477.199
119.470    732.000    737.316     -5.316    477.389    730.432    477.389    484.283    477.389
119.570    694.000    704.880    -10.880    477.585    698.212    477.585    484.259    477.585
119.670    674.000    678.204     -4.204    477.787    671.738    477.787    484.257    477.787
119.770    695.844    656.258     39.586    477.994    649.977    477.994    484.277    477.994
119.870    663.552    638.194     25.359    478.207    632.083    478.207    484.320    478.207
119.970    559.000    623.322    -64.322    478.426    617.366    478.426    484.384    478.426
120.070    610.000    611.089     -1.089    478.651    605.271    478.651    484.470    478.651
120.170    575.333    601.052    -25.719    478.881    595.356    478.881    484.579    478.881
120.270    556.000    592.859    -36.859    479.118    587.268    479.118    484.711    479.118
120.370    566.000    586.236    -20.236    479.361    580.732    479.361    484.868    479.361
120.470    580.000    580.967     -0.967    479.610    575.530    479.610    485.049    479.610
120.570    531.000    576.882    -45.882    479.864    571.494    479.864    485.256    479.864
120.670    516.000    573.851    -57.851    480.126    568.491    480.126    485.489    480.126
120.770    573.519    571.773      1.746    480.393    566.419    480.393    485.751    480.393
120.870    556.000    570.568    -14.568    480.666    565.198    480.666    486.041    480.666
120.970    600.000    570.173     29.827    480.946    564.764    480.946    486.361    480.946
121.070    590.425    570.536     19.889    481.233    565.064    481.233    486.712    481.233
121.170    530.000    571.611    -41.611    481.525    566.050    481.525    487.094    481.525
121.270    587.000    573.353     13.647    481.824    567.680    481.824    487.508    481.824
121.370    564.612    575.719    -11.106    482.130    569.907    482.130    487.953    482.130
121.470    508.000    578.659    -70.659    482.443    572.685    482.443    488.430    482.443
121.570    622.961    582.121     40.841    482.762    575.959    482.762    488.938    482.762
121.670    592.927    586.041      6.887    483.087    579.669    483.087    489.476    483.087
121.770    626.000    590.349     35.651    483.420    583.746    483.420    490.042    483.420
121.870    628.992    594.963     34.029    483.759    588.110    483.759    490.635    483.759
121.970    581.000    599.794    -18.794    484.105    592.674    484.105    491.250    484.105
122.070    616.000    604.741     11.259    484.458    597.342    484.458    491.885    484.458
122.170    633.000    609.696     23.304    484.818    602.009    484.818    492.536    484.818
122.270    615.000    614.544      0.456    485.185    606.565    485.185    493.198    485.185
122.370    592.000    619.165    -27.165    485.560    610.896    485.560    493.865    485.560
122.470    662.000    623.439     38.561    485.941    614.888    485.941    494.531    485.941
122.570    617.000    627.252    -10.252    486.330    618.431    486.330    495.191    486.330
122.670    628.000    630.496     -2.496    486.725    621.426    486.725    495.838    486.725
122.770    627.127    633.080     -5.953    487.129    623.789    487.129    496.464    487.129
122.870    632.000    634.933     -2.933    487.539    625.456    487.539    497.061    487.539
122.970    647.390    636.012     11.379    487.957    626.392    487.957    497.624    487.957
123.070    649.000    636.302     12.698    488.382    626.586    488.382    498.145    488.382
123.170    613.000    635.815    -22.815    488.816    626.057    488.816    498.620    488.816
123.270    640.000    634.590      5.410    489.256    624.848    489.256    499.045    489.256
123.370    651.812    632.688     19.124    489.704    623.018    489.704    499.419    489.704
123.470    630.000    630.184     -0.184    490.160    620.644    490.160    499.743    490.160
123.570    608.714    627.163    -18.449    490.624    617.807    490.624    500.021    490.624
123.670    651.000    623.716     27.284    491.096    614.595    491.096    500.256    491.096
123.770    573.823    619.937    -46.115    491.575    611.093    491.575    500.455    491.575
123.870    659.300    615.915     43.386    492.063    607.386    492.063    500.625    492.063
123.970    592.681    611.733    -19.052    492.558    603.549    492.558    500.772    492.558
124.070    642.000    607.469     34.531    493.062    599.653    493.062    500.905    493.062
124.170    632.000    603.188     28.812    493.574    595.756    493.574    501.029    493.574
124.270    611.000    598.945     12.055    494.094    591.907    494.094    501.152    494.094
124.370    578.468    594.780    -16.312    494.622    588.140    494.622    501.280    494.622
124.470    595.000    590.731      4.269    495.158    584.487    495.158    501.418    495.158
124.570    607.000    586.816     20.184    495.703    580.962    495.703    501.570    495.703
124.670    571.598    583.045    -11.447    496.257    577.571    496.257    501.741    496.257
124.770    554.200    579.421    -25.221    496.818    574.314    496.818    501.935    496.818
124.870    565.000    575.942    -10.942    497.389    571.185    497.389    502.153    497.389
124.970    547.000    572.602    -25.602    497.968    568.178    497.968    502.398    497.968
