neutron_powder_diffraction_0064
R_wp: 4.169
Temperature (K): 717.216
Counts: 83326.00
Wavelength (Ã…): 2.52098
COMMENTS
Test file for demonstrating the .xyy file format in Reel1.0
END OF HEADER
   tth       Y_obs     Y_calc      Y_res    Background    Phase_1_Nuc    Phase_1_Mag    Phase_2_Nuc    Phase_2_Mag
  9.970    636.000    634.948      1.052    633.818    634.733    634.033    633.818    633.818
 10.070    681.000    635.216     45.784    634.012    634.998    634.229    634.012    634.012
 10.170    630.000    635.485     -5.485    634.198    635.265    634.417    634.198    634.198
 10.270    633.000    635.758     -2.758    634.374    635.535    634.596    634.374    634.374
 10.370    596.137    636.037    -39.900    634.542    635.812    634.767    634.542    634.542
 10.470    667.000    636.325     30.675    634.702    636.097    634.929    634.702    634.702
 10.570    666.000    636.626     29.374    634.854    636.396    635.083    634.854    634.854
 10.670    672.000    636.947     35.053    634.997    636.714    635.229    634.997    634.997
 10.770    670.000    637.293     32.707    635.132    637.058    635.366    635.132    635.132
 10.870    678.000    637.675     40.325    635.259    637.437    635.496    635.259    635.259
 10.970    660.000    638.106     21.894    635.377    637.865    635.617    635.377    635.377
 11.070    694.000    638.609     55.391    635.488    638.365    635.731    635.488    635.488
 11.170    666.000    639.255     26.745    635.591    639.008    635.836    635.591    635.591
 11.270    652.747    640.092     12.655    635.686    639.841    635.934    635.686    635.686
 11.370    689.000    641.023     47.977    635.774    640.769    636.024    635.774    635.774
 11.470    659.000    642.251     16.749    635.853    641.994    636.107    635.853    635.853
 11.570    674.000    644.063     29.937    635.925    643.801    636.182    635.925    635.925
 11.670    632.117    647.175    -15.058    635.990    646.909    636.250    635.990    635.990
 11.770    712.000    653.306     58.694    636.047    653.034    636.310    636.047    636.047
 11.870    782.000    665.648    116.352    636.096    665.365    636.362    636.096    636.096
 11.970    750.000    688.083     61.917    636.139    687.784    636.408    636.139    636.139
 12.070    733.000    721.827     11.173    636.174    721.505    636.446    636.174    636.174
 12.170    799.010    759.801     39.209    636.202    759.455    636.477    636.202    636.202
 12.270    801.000    783.088     17.912    636.222    782.725    636.501    636.222    636.222
 12.370    719.145    774.530    -55.385    636.236    774.169    636.518    636.236    636.236
 12.470    688.355    741.490    -53.134    636.243    741.144    636.529    636.243    636.243
 12.570    646.000    704.377    -58.377    636.243    704.049    636.532    636.243    636.243
 12.670    655.343    676.117    -20.774    636.236    675.802    636.529    636.236    636.236
 12.770    636.957    659.052    -22.095    636.222    658.742    636.518    636.222    636.222
 12.870    641.000    650.176     -9.176    636.201    649.868    636.502    636.201    636.201
 12.970    619.000    645.787    -26.787    636.174    645.477    636.478    636.174    636.174
 13.070    706.000    643.453     62.547    636.140    643.141    636.448    636.140    636.140
 13.170    669.000    642.010     26.990    636.100    641.695    636.412    636.100    636.100
 13.270    636.000    640.995     -4.995    636.053    640.676    636.370    636.053    636.053
 13.370    605.000    640.228    -35.228    636.000    639.906    636.321    636.000    636.000
 13.470    616.000    639.624    -23.624    635.941    639.298    636.266    635.941    635.941
 13.570    598.000    639.134    -41.134    635.876    638.803    636.204    635.876    635.876
 13.670    585.000    638.724    -53.724    635.804    638.390    636.137    635.804    635.804
 13.770    634.000    638.375     -4.375    635.726    638.036    636.063    635.726    635.726
 13.870    596.000    638.071    -42.071    635.642    637.728    635.984    635.642    635.642
 13.970    633.117    637.813     -4.696    635.552    637.465    635.899    635.552    635.552
 14.070    636.000    637.580     -1.580    635.456    637.228    635.808    635.456    635.456
 14.170    686.419    637.353     49.066    635.355    636.995    635.711    635.355    635.355
 14.270    620.000    637.138    -17.138    635.247    636.776    635.609    635.247    635.247
 14.370    583.000    636.934    -53.934    635.134    636.566    635.501    635.134    635.134
 14.470    610.000    636.737    -26.737    635.015    636.365    635.387    635.015    635.015
 14.570    599.000    636.546    -37.546    634.891    636.168    635.268    634.891    634.891
 14.670    631.000    636.359     -5.359    634.761    635.976    635.143    634.761    634.761
 14.770    681.340    636.174     45.166    634.625    635.786    635.013    634.625    634.625
 14.870    670.961    635.991     34.970    634.484    635.597    634.878    634.484    634.484
 14.970    587.634    635.808    -48.174    634.338    635.408    634.738    634.338    634.338
 15.070    621.947    635.625    -13.677    634.187    635.219    634.592    634.187    634.187
 15.170    598.000    635.443    -37.443    634.030    635.031    634.441    634.030    634.030
 15.270    674.889    635.261     39.628    633.868    634.844    634.285    633.868    633.868
 15.370    638.000    635.075      2.925    633.701    634.651    634.124    633.701    633.701
 15.470    591.000    634.886    -43.886    633.529    634.455    633.959    633.529    633.529
 15.570    606.000    634.694    -28.694    633.352    634.257    633.788    633.352    633.352
 15.670    620.223    634.508    -14.285    633.170    634.065    633.613    633.170    633.170
 15.770    611.731    634.388    -22.657    632.983    633.937    633.433    632.983    632.983
 15.870    632.000    634.218     -2.218    632.791    633.758    633.250    632.791    632.791
 15.970    632.000    634.069     -2.069    632.595    633.597    633.066    632.595    632.595
 16.070    632.000    633.869     -1.869    632.393    633.390    632.873    632.393    632.393
 16.170    609.000    633.662    -24.662    632.188    633.175    632.674    632.188    632.188
 16.270    656.631    633.451     23.180    631.977    632.956    632.472    631.977    631.977
 16.370    621.838    633.237    -11.399    631.762    632.734    632.265    631.762    631.762
 16.470    614.000    633.021    -19.021    631.543    632.510    632.053    631.543    631.543
 16.570    632.000    632.807     -0.807    631.319    632.288    631.838    631.319    631.319
 16.670    590.000    632.586    -42.586    631.091    632.058    631.618    631.091    631.091
 16.770    650.281    632.359     17.922    630.858    631.823    631.394    630.858    630.858
 16.870    676.487    632.129     44.359    630.621    631.583    631.167    630.621    630.621
 16.970    602.836    631.895    -29.059    630.380    631.340    630.935    630.380    630.380
 17.070    611.000    631.658    -20.658    630.135    631.094    630.699    630.135    630.135
 17.170    639.000    631.419      7.581    629.886    630.845    630.460    629.886    629.886
 17.270    633.051    631.185      1.865    629.633    630.602    630.216    629.633    629.633
 17.370    544.000    630.944    -86.944    629.376    630.350    629.969    629.376    629.376
 17.470    622.876    630.695     -7.819    629.115    630.091    629.719    629.115    629.115
 17.570    615.298    630.443    -15.145    628.850    629.828    629.465    628.850    628.850
 17.670    637.000    630.188      6.812    628.581    629.562    629.207    628.581    628.581
 17.770    629.305    629.934     -0.629    628.308    629.296    628.946    628.308    628.308
 17.870    631.000    629.698      1.302    628.032    629.049    628.681    628.032    628.032
 17.970    654.136    629.443     24.694    627.752    628.781    628.413    627.752    627.752
 18.070    637.697    629.183      8.513    627.469    628.510    628.142    627.469    627.469
 18.170    664.756    628.921     35.835    627.181    628.235    627.868    627.181    627.181
 18.270    624.451    628.702     -4.251    626.891    628.002    627.591    626.891    626.891
 18.370    570.000    628.440    -58.440    626.597    627.726    627.310    626.597    626.597
 18.470    620.000    628.163     -8.163    626.299    627.435    627.027    626.299    626.299
 18.570    643.614    627.885     15.730    625.999    627.143    626.740    625.999    625.999
 18.670    611.000    627.617    -16.617    625.694    626.859    626.452    625.694    625.694
 18.770    612.000    627.342    -15.342    625.387    626.567    626.161    625.387    625.387
 18.870    626.000    627.056     -1.056    625.077    626.266    625.867    625.077    625.077
 18.970    597.598    626.767    -29.169    624.763    625.961    625.569    624.763    624.763
 19.070    670.458    626.476     43.982    624.446    625.654    625.269    624.446    624.446
 19.170    592.000    626.193    -34.193    624.126    625.353    624.966    624.126    624.126
 19.270    596.123    625.958    -29.835    623.803    625.100    624.661    623.803    623.803
 19.370    588.000    625.669    -37.669    623.477    624.793    624.353    623.477    623.477
 19.470    666.307    625.387     40.920    623.149    624.492    624.044    623.149    623.149
 19.570    583.000    625.106    -42.106    622.817    624.190    623.733    622.817    622.817
 19.670    611.000    624.819    -13.819    622.483    623.883    623.419    622.483    622.483
 19.770    588.000    624.526    -36.526    622.146    623.569    623.103    622.146    622.146
 19.870    606.188    624.224    -18.036    621.806    623.245    622.785    621.806    621.806
 19.970    586.142    623.941    -37.799    621.463    622.940    622.464    621.463    621.463
 20.070    663.458    623.663     39.795    621.118    622.638    622.142    621.118    621.118
 20.170    613.000    623.361    -10.361    620.770    622.312    621.818    620.770    620.770
 20.270    614.000    623.052     -9.052    620.420    621.979    621.493    620.420    620.420
 20.370    606.185    622.744    -16.559    620.067    621.645    621.166    620.067    620.067
 20.470    544.000    622.434    -78.434    619.712    621.308    620.837    619.712    619.712
 20.570    581.350    622.124    -40.774    619.354    620.971    620.507    619.354    619.354
 20.670    627.204    621.817      5.387    618.994    620.635    620.176    618.994    618.994
 20.770    581.000    621.509    -40.509    618.632    620.297    619.844    618.632    618.632
 20.870    657.937    621.202     36.736    618.267    619.958    619.511    618.267    618.267
 20.970    641.951    620.891     21.059    617.901    619.616    619.176    617.901    617.901
 21.070    636.000    620.587     15.413    617.532    619.279    618.840    617.532    617.532
 21.170    613.000    620.279     -7.279    617.161    618.936    618.504    617.161    617.161
 21.270    607.000    619.969    -12.969    616.787    618.590    618.166    616.787    616.787
 21.370    643.000    619.660     23.340    616.412    618.244    617.829    616.412    616.412
 21.470    584.333    619.353    -35.019    616.035    617.897    617.491    616.035    616.035
 21.570    636.000    619.047     16.953    615.656    617.550    617.152    615.656    615.656
 21.670    618.000    618.744     -0.744    615.275    617.205    616.814    615.275    615.275
 21.770    608.948    618.444     -9.496    614.892    616.860    616.475    614.892    614.892
 21.870    617.000    618.145     -1.145    614.507    616.515    616.137    614.507    614.507
 21.970    665.000    617.850     47.150    614.120    616.172    615.799    614.120    614.120
 22.070    650.508    617.557     32.951    613.732    615.828    615.461    613.732    613.732
 22.170    578.000    617.269    -39.269    613.342    615.486    615.124    613.342    613.342
 22.270    631.948    616.985     14.963    612.950    615.147    614.788    612.950    612.950
 22.370    606.409    616.706    -10.297    612.557    614.810    614.453    612.557    612.557
 22.470    608.000    616.433     -8.433    612.162    614.476    614.119    612.162    612.162
 22.570    588.000    616.168    -28.168    611.765    614.146    613.787    611.765    611.765
 22.670    564.000    615.911    -51.911    611.367    613.821    613.456    611.367    611.367
 22.770    642.320    615.665     26.655    610.968    613.504    613.128    610.968    610.968
 22.870    648.000    615.428     32.572    610.567    613.194    612.802    610.567    610.567
 22.970    652.963    615.205     37.757    610.164    612.892    612.478    610.164    610.164
 23.070    610.000    614.998     -4.998    609.761    612.602    612.157    609.761    609.761
 23.170    626.123    614.809     11.314    609.355    612.326    611.839    609.355    609.355
 23.270    627.000    614.642     12.358    608.949    612.066    611.526    608.949    608.949
 23.370    578.000    614.504    -36.504    608.542    611.830    611.216    608.542    608.542
 23.470    613.000    614.397     -1.397    608.133    611.620    610.911    608.133    608.133
 23.570    611.000    614.332     -3.332    607.723    611.445    610.611    607.723    607.723
 23.670    612.000    614.320     -2.320    607.312    611.317    610.316    607.312    607.312
 23.770    646.000    614.377     31.623    606.900    611.250    610.028    606.900    606.900
 23.870    588.854    614.525    -25.670    606.486    611.266    609.746    606.486    606.486
 23.970    618.900    614.799      4.101    606.072    611.400    609.472    606.072    606.072
 24.070    634.000    615.260     18.740    605.657    611.712    609.207    605.657    605.657
 24.170    626.000    616.042      9.958    605.241    612.334    608.952    605.241    605.241
 24.270    646.000    617.454     28.546    604.824    613.575    608.707    604.824    604.824
 24.370    620.000    620.258     -0.258    604.406    616.198    608.472    604.406    604.406
 24.470    648.000    626.001     21.999    603.987    621.747    608.250    603.987    603.987
 24.570    663.169    636.949     26.219    603.567    632.492    608.043    603.567    603.567
 24.670    651.472    654.924     -3.452    603.147    650.251    607.850    603.147    603.147
 24.770    685.000    678.645      6.355    602.726    673.742    607.676    602.726    602.726
 24.870    693.000    700.645     -7.645    602.304    695.492    607.521    602.304    602.304
 24.970    718.000    708.144      9.856    601.881    702.705    607.389    601.881    601.881
 25.070    653.000    694.970    -41.970    601.458    689.208    607.280    601.458    601.458
 25.170    661.000    670.902     -9.902    601.034    664.780    607.199    601.034    601.034
 25.270    698.585    648.294     50.291    600.610    641.783    607.148    600.610    600.610
 25.370    669.000    632.516     36.484    600.185    625.585    607.132    600.185    600.185
 25.470    689.000    623.491     65.509    599.760    616.104    607.156    599.760    599.760
 25.570    641.000    618.994     22.006    599.334    611.108    607.225    599.334    599.334
 25.670    663.000    616.896     46.104    598.908    608.461    607.346    598.908    598.908
 25.770    687.000    615.931     71.069    598.481    606.888    607.526    598.481    598.481
 25.870    624.000    615.529      8.471    598.054    605.809    607.775    598.054    598.054
 25.970    598.319    615.473    -17.154    597.626    604.997    608.103    597.626    597.626
 26.070    637.000    615.685     21.315    597.199    604.360    608.524    597.199    597.199
 26.170    609.000    616.138     -7.138    596.771    603.855    609.053    596.771    596.771
 26.270    621.000    616.828      4.172    596.342    603.459    609.711    596.342    596.342
 26.370    677.000    617.767     59.233    595.914    603.158    610.522    595.914    595.914
 26.470    623.000    618.979      4.021    595.485    602.947    611.517    595.485    595.485
 26.570    662.000    620.504     41.496    595.056    602.826    612.733    595.056    595.056
 26.670    673.000    622.397     50.603    594.627    602.802    614.220    594.627    594.627
 26.770    687.000    624.731     62.269    594.198    602.886    616.042    594.198    594.198
 26.870    597.711    627.609    -29.899    593.769    603.094    618.281    593.769    593.769
 26.970    672.000    631.167     40.833    593.339    603.453    621.050    593.339    593.339
 27.070    616.597    635.590    -18.993    592.910    603.999    624.499    592.910    592.910
 27.170    614.817    641.141    -26.324    592.481    604.781    628.836    592.481    592.481
 27.270    612.985    648.188    -35.202    592.051    605.875    634.360    592.051    592.051
 27.370    698.000    657.290     40.710    591.622    607.390    641.516    591.622    591.622
 27.470    747.000    669.392     77.608    591.193    609.515    651.063    591.193    591.193
 27.570    673.578    686.436    -12.858    590.764    612.634    664.556    590.764    590.764
 27.670    677.493    713.071    -35.578    590.335    617.664    685.728    590.335    590.335
 27.770    827.000    760.401     66.599    589.907    626.788    723.497    589.907    589.907
 27.870    849.000    851.075     -2.075    589.478    644.457    796.056    589.478    589.478
 27.970    976.266   1020.052    -43.787    589.050    677.541    931.489    589.050    589.050
 28.070   1229.000   1300.440    -71.440    588.622    732.554   1156.387    588.622    588.622
 28.170   1597.000   1688.546    -91.546    588.194    808.816   1467.749    588.194    588.194
 28.270   2060.000   2096.098    -36.098    587.767    889.116   1794.543    587.767    587.767
 28.370   2298.000   2332.440    -34.440    587.340    936.281   1983.323    587.340    587.340
 28.470   2296.730   2250.925     45.804    586.913    921.999   1915.751    586.913    586.913
 28.570   1888.866   1949.713    -60.847    586.487    866.307   1669.878    586.487    586.487
 28.670   1684.795   1644.766     40.028    586.061    812.640   1418.199    586.061    586.061
 28.770   1356.000   1477.012   -121.012    585.635    789.519   1273.136    585.635    585.635
 28.870   1540.016   1471.745     68.271    585.210    801.539   1255.411    585.210    585.210
 28.970   1542.000   1560.386    -18.386    584.786    832.214   1312.952    584.786    584.786
 29.070   1662.000   1613.789     48.211    584.362    849.961   1348.206    584.362    584.362
 29.170   1607.000   1531.286     75.714    583.938    830.098   1285.177    583.938    583.938
 29.270   1463.000   1336.003    126.997    583.515    779.699   1139.888    583.515    583.515
 29.370   1088.000   1116.819    -28.819    583.093    722.608    977.367    583.093    583.093
 29.470    898.098    936.017    -37.918    582.671    675.412    843.321    582.671    582.671
 29.570    863.251    811.984     51.267    582.250    643.039    751.223    582.250    582.250
 29.670    761.869    736.725     25.143    581.830    623.432    695.138    581.830    581.830
 29.770    804.000    693.792    110.208    581.410    612.294    662.915    581.410    581.410
 29.870    629.528    668.949    -39.421    580.991    605.901    644.042    580.991    580.991
 29.970    728.000    653.395     74.605    580.572    601.960    632.008    580.572    580.572
 30.070    726.000    642.721     83.279    580.155    599.339    623.537    580.155    580.155
 30.170    646.390    634.971     11.419    579.738    597.562    617.146    579.738    579.738
 30.270    740.000    629.344    110.656    579.322    596.494    612.169    579.322    579.322
 30.370    665.000    625.647     39.353    578.906    596.240    608.309    578.906    578.906
 30.470    716.000    624.193     91.807    578.492    597.187    605.492    578.492    578.492
 30.570    651.000    625.827     25.173    578.078    600.066    603.830    578.078    578.078
 30.670    591.715    631.763    -40.049    577.666    605.856    603.557    577.666    577.666
 30.770    716.000    642.961     73.039    577.254    615.323    604.867    577.254    577.254
 30.870    704.000    658.923     45.077    576.843    628.145    607.585    576.843    576.843
 30.970    731.000    676.016     54.984    576.433    641.662    610.741    576.433    576.433
 31.070    728.764    686.633     42.131    576.024    650.264    612.341    576.024    576.024
 31.170    702.095    683.595     18.500    575.615    648.654    610.510    575.615    575.615
 31.270    611.608    667.854    -56.245    575.208    637.549    605.476    575.208    575.208
 31.370    670.000    647.140     22.860    574.802    622.693    599.224    574.802    574.802
 31.470    701.000    628.295     72.705    574.397    609.163    593.511    574.397    574.397
 31.570    626.235    614.190     12.045    573.993    599.101    589.071    573.993    573.993
 31.670    622.000    604.868     17.132    573.590    592.544    585.906    573.590    573.590
 31.770    634.000    599.133     34.867    573.188    588.616    583.701    573.188    573.188
 31.870    573.691    595.646    -21.956    572.787    586.327    582.102    572.787    572.787
 31.970    610.000    593.424     16.576    572.388    584.957    580.851    572.388    572.388
 32.070    607.000    591.904     15.096    571.989    584.094    579.797    571.989    571.989
 32.170    558.763    590.813    -32.049    571.592    583.540    578.862    571.592    571.592
 32.270    597.000    590.029      6.971    571.196    583.211    578.011    571.196    571.196
 32.370    594.811    589.503      5.308    570.801    583.077    577.225    570.801    570.801
 32.470    639.862    589.216     50.646    570.407    583.129    576.492    570.407    570.407
 32.570    612.198    589.170     23.028    570.014    583.377    575.805    570.014    570.014
 32.670    622.496    589.382     33.115    569.623    583.844    575.159    569.623    569.623
 32.770    620.459    589.885     30.574    569.233    584.565    574.551    569.233    569.233
 32.870    640.402    590.733     49.668    568.844    585.596    573.979    568.844    568.844
 32.970    619.000    592.008     26.992    568.456    587.017    573.445    568.456    568.456
 33.070    592.000    593.831     -1.831    568.070    588.949    572.950    568.070    568.070
 33.170    620.000    596.409     23.591    567.685    591.590    572.500    567.685    567.685
 33.270    584.000    600.118    -16.118    567.302    595.307    572.109    567.302    567.302
 33.370    591.000    605.739    -14.739    566.920    600.850    571.804    566.920    566.920
 33.470    579.172    614.891    -35.719    566.539    609.777    571.645    566.539    566.539
 33.570    648.000    630.675     17.325    566.159    625.073    571.752    566.159    566.159
 33.670    640.101    658.163    -18.063    565.781    651.614    572.314    565.781    565.781
 33.770    761.000    703.871     57.129    565.405    695.670    573.581    565.405    565.405
 33.870    806.156    773.232     32.924    565.030    762.466    575.759    565.030    565.030
 33.970    897.000    865.636     31.364    564.656    851.419    578.824    564.656    564.656
 34.070   1028.000    967.420     60.580    564.284    949.392    582.255    564.284    564.284
 34.170   1094.000   1046.441     47.559    563.913   1025.475    584.826    563.913    563.913
 34.270   1059.200   1063.204     -4.005    563.543   1041.679    585.031    563.543    563.543
 34.370   1043.000   1006.483     36.517    563.176    987.196    582.441    563.176    563.176
 34.470    857.000    907.949    -50.949    562.809    892.485    578.263    562.809    562.809
 34.570    776.000    807.286    -31.286    562.445    795.716    574.009    562.445    562.445
 34.670    707.000    726.145    -19.145    562.081    717.717    570.507    562.081    562.081
 34.770    615.000    669.704    -54.704    561.720    663.471    567.951    561.720    561.720
 34.870    671.000    634.294     36.706    561.359    629.447    566.204    561.359    561.359
 34.970    629.000    613.331     15.669    561.001    609.317    565.013    561.001    561.001
 35.070    646.000    600.906     45.094    560.644    597.394    564.154    560.644    560.644
 35.170    576.000    593.077    -17.077    560.289    589.889    563.475    560.289    560.289
 35.270    618.910    587.674     31.236    559.935    584.713    562.895    559.935    559.935
 35.370    544.624    583.635    -39.011    559.583    580.845    562.372    559.583    559.583
 35.470    576.000    580.452     -4.452    559.232    577.795    561.888    559.232    559.232
 35.570    548.000    577.862    -29.862    558.884    575.311    561.433    558.884    558.884
 35.670    567.000    575.709     -8.709    558.536    573.243    561.001    558.536    558.536
 35.770    573.971    573.891      0.080    558.191    571.493    560.588    558.191    558.191
 35.870    585.000    572.337     12.663    557.847    569.990    560.193    557.847    557.847
 35.970    611.248    570.992     40.256    557.505    568.683    559.813    557.505    557.505
 36.070    536.873    569.818    -32.945    557.165    567.533    559.448    557.165    557.165
 36.170    606.129    568.785     37.344    556.826    566.512    559.099    556.826    556.826
 36.270    560.000    567.869     -7.869    556.489    565.593    558.764    556.489    556.489
 36.370    539.000    567.060    -28.060    556.154    564.768    558.445    556.154    556.154
 36.470    546.000    566.346    -20.346    555.820    564.022    558.144    555.820    555.820
 36.570    549.061    565.719    -16.658    555.489    563.344    557.863    555.489    555.489
 36.670    492.000    565.175    -73.175    555.159    562.729    557.604    555.159    555.159
 36.770    563.226    564.715     -1.489    554.830    562.172    557.373    554.830    554.830
 36.870    557.000    564.345     -7.345    554.504    561.673    557.176    554.504    554.504
 36.970    580.541    564.080     16.461    554.179    561.239    557.020    554.179    554.179
 37.070    564.000    563.956      0.044    553.857    560.892    556.920    553.857    553.857
 37.170    603.885    564.049     39.837    553.536    560.685    556.899    553.536    553.536
 37.270    597.719    564.518     33.201    553.216    560.734    557.001    553.216    553.216
 37.370    509.000    565.658    -56.658    552.899    561.243    557.315    552.899    552.899
 37.470    542.806    567.922    -25.116    552.584    562.488    558.018    552.584    552.584
 37.570    531.000    571.859    -40.859    552.270    564.705    559.424    552.270    552.270
 37.670    539.000    577.912    -38.912    551.958    567.871    562.000    551.958    551.958
 37.770    557.745    586.062    -28.318    551.648    571.422    566.290    551.648    551.648
 37.870    618.776    595.448     23.328    551.340    574.117    572.674    551.340    551.340
 37.970    624.000    604.487     19.513    551.034    574.556    580.967    551.034    551.034
 38.070    553.000    611.584    -58.584    550.729    572.418    589.900    550.729    550.729
 38.170    591.000    615.088    -24.088    550.427    568.772    596.749    550.427    550.427
 38.270    561.557    612.980    -51.424    550.126    564.886    598.229    550.126    550.126
 38.370    578.000    604.924    -26.924    549.828    561.490    593.270    549.828    549.828
 38.470    568.000    593.654    -25.654    549.531    558.870    584.322    549.531    549.531
 38.570    577.000    582.523     -5.523    549.236    557.006    574.758    549.236    549.236
 38.670    572.000    573.407     -1.407    548.943    555.721    566.633    548.943    548.943
 38.770    565.000    566.787     -1.787    548.652    554.817    560.625    548.652    548.652
 38.870    554.000    562.367     -8.367    548.363    554.149    556.583    548.363    548.363
 38.970    519.695    559.548    -39.853    548.076    553.624    554.001    548.076    548.076
 39.070    507.000    557.742    -50.742    547.791    553.184    552.349    547.791    547.791
 39.170    559.000    556.518      2.482    547.508    552.799    551.227    547.508    547.508
 39.270    526.501    555.615    -29.114    547.227    552.449    550.393    547.227    547.227
 39.370    555.000    554.895      0.105    546.947    552.125    549.718    546.947    546.947
 39.470    552.642    554.289     -1.648    546.670    551.821    549.139    546.670    546.670
 39.570    596.563    553.763     42.800    546.395    551.534    548.624    546.395    546.395
 39.670    572.000    553.296     18.704    546.121    551.262    548.156    546.121    546.121
 39.770    539.548    552.878    -13.330    545.850    551.004    547.723    545.850    545.850
 39.870    562.000    552.498      9.502    545.580    550.759    547.319    545.580    545.580
 39.970    542.688    552.152     -9.464    545.313    550.527    546.938    545.313    545.313
 40.070    544.000    551.835     -7.835    545.047    550.308    546.576    545.047    545.047
 40.170    550.000    551.545     -1.545    544.784    550.101    546.229    544.784    544.784
 40.270    557.146    551.279      5.867    544.523    549.907    545.895    544.523    544.523
 40.370    553.543    551.037      2.506    544.263    549.728    545.573    544.263    544.263
 40.470    520.900    550.817    -29.917    544.006    549.563    545.260    544.006    544.006
 40.570    568.540    550.621     17.919    543.750    549.415    544.957    543.750    543.750
 40.670    515.890    550.448    -34.558    543.497    549.284    544.661    543.497    543.497
 40.770    522.000    550.301    -28.301    543.246    549.174    544.372    543.246    543.246
 40.870    537.000    550.181    -13.181    542.996    549.087    544.090    542.996    542.996
 40.970    553.000    550.092      2.908    542.749    549.027    543.814    542.749    542.749
 41.070    524.000    550.037    -26.037    542.503    548.998    543.544    542.503    542.503
 41.170    582.592    550.023     32.569    542.260    549.006    543.279    542.260    542.260
 41.270    534.372    550.057    -15.686    542.019    549.058    543.020    542.019    542.019
 41.370    547.000    550.149     -3.149    541.780    549.164    542.766    541.780    541.780
 41.470    504.938    550.312    -45.374    541.543    549.338    542.518    541.543    541.543
 41.570    532.881    550.564    -17.683    541.307    549.597    542.275    541.307    541.307
 41.670    571.860    550.933     20.926    541.074    549.970    542.040    541.074    541.074
 41.770    504.000    551.468    -47.468    540.843    550.502    541.811    540.843    540.843
 41.870    541.000    552.254    -11.254    540.614    551.278    541.592    540.614    540.614
 41.970    575.541    553.465     22.076    540.387    552.467    541.387    540.387    540.387
 42.070    517.113    555.432    -38.319    540.162    554.394    541.205    540.162    540.162
 42.170    546.000    558.745    -12.745    539.939    557.631    541.059    539.939    539.939
 42.270    538.000    564.309    -26.309    539.719    563.062    540.974    539.719    539.719
 42.370    573.521    573.269      0.252    539.500    571.803    540.977    539.500    539.500
 42.470    620.871    586.668     34.203    539.283    584.872    541.096    539.283    539.283
 42.570    618.761    604.821     13.941    539.068    602.577    541.339    539.068    539.068
 42.670    643.467    626.444     17.023    538.856    623.665    541.672    538.856    538.856
 42.770    608.000    647.698    -39.698    538.645    644.393    541.999    538.645    538.645
 42.870    626.759    662.047    -35.288    538.436    658.389    542.152    538.436    538.436
 42.970    641.000    663.227    -22.227    538.230    659.544    541.974    538.230    538.230
 43.070    634.000    650.537    -16.537    538.026    647.173    541.446    538.026    538.026
 43.170    668.223    629.625     38.598    537.823    626.783    540.712    537.823    537.823
 43.270    564.000    607.384    -43.384    537.623    605.096    539.946    537.623    537.623
 43.370    559.000    588.181    -29.181    537.425    586.371    539.260    537.425    537.425
 43.470    563.187    573.669    -10.481    537.228    572.218    538.695    537.228    537.228
 43.570    511.000    563.734    -52.734    537.034    562.530    538.250    537.034    537.034
 43.670    605.306    557.401     47.905    536.842    556.353    537.898    536.842    536.842
 43.770    555.000    553.507      1.493    536.652    552.553    537.611    536.652    536.652
 43.870    548.950    551.091     -2.141    536.464    550.195    537.364    536.464    536.464
 43.970    533.000    549.512    -16.512    536.278    548.652    537.140    536.278    536.278
 44.070    555.000    548.400      6.600    536.094    547.565    536.931    536.094    536.094
 44.170    561.000    547.563     13.437    535.912    546.746    536.731    535.912    535.912
 44.270    557.000    546.904     10.096    535.732    546.099    536.538    535.732    535.732
 44.370    543.000    546.372     -3.372    535.554    545.576    536.351    535.554    535.554
 44.470    531.897    545.936    -14.039    535.378    545.146    536.169    535.378    535.378
 44.570    534.000    545.577    -11.577    535.205    544.791    535.991    535.205    535.205
 44.670    590.000    545.282     44.718    535.033    544.498    535.818    535.033    535.033
 44.770    508.844    545.040    -36.196    534.863    544.255    535.648    534.863    534.863
 44.870    546.000    544.844      1.156    534.695    544.057    535.482    534.695    534.695
 44.970    572.103    544.688     27.416    534.530    543.898    535.320    534.530    534.530
 45.070    517.570    544.568    -26.999    534.366    543.774    535.161    534.366    534.366
 45.170    554.000    544.482      9.518    534.204    543.681    535.006    534.204    534.204
 45.270    547.615    544.427      3.188    534.045    543.618    534.854    534.045    534.045
 45.370    572.000    544.402     27.598    533.887    543.584    534.705    533.887    533.887
 45.470    562.655    544.406     18.249    533.732    543.577    534.560    533.732    533.732
 45.570    520.486    544.439    -23.952    533.578    543.598    534.419    533.578    533.578
 45.670    545.129    544.501      0.628    533.427    543.646    534.282    533.427    533.427
 45.770    585.000    544.594     40.406    533.277    543.723    534.148    533.277    533.277
 45.870    542.000    544.718     -2.718    533.130    543.829    534.018    533.130    533.130
 45.970    568.000    544.876     23.124    532.984    543.968    533.892    532.984    532.984
 46.070    536.107    545.071     -8.964    532.840    544.140    533.770    532.840    532.840
 46.170    531.000    545.305    -14.305    532.699    544.350    533.653    532.699    532.699
 46.270    593.902    545.583     48.319    532.559    544.601    533.540    532.559    532.559
 46.370    569.000    545.910     23.090    532.422    544.898    533.433    532.422    532.422
 46.470    573.000    546.294     26.706    532.286    545.248    533.331    532.286    532.286
 46.570    542.000    546.742     -4.742    532.152    545.658    533.235    532.152    532.152
 46.670    578.000    547.267     30.733    532.021    546.140    533.146    532.021    532.021
 46.770    521.000    547.885    -26.885    531.891    546.709    533.065    531.891    531.891
 46.870    521.000    548.620    -27.620    531.763    547.389    532.992    531.763    531.763
 46.970    563.000    549.514     13.486    531.637    548.217    532.931    531.637    531.637
 47.070    560.000    550.642      9.358    531.513    549.268    532.885    531.513    531.513
 47.170    569.166    552.148     17.018    531.391    550.674    532.861    531.391    531.391
 47.270    571.000    554.283     16.717    531.271    552.676    532.873    531.271    531.271
 47.370    558.000    557.455      0.545    531.153    555.659    532.941    531.153    531.153
 47.470    525.273    562.234    -36.962    531.037    560.166    533.095    531.037    531.037
 47.570    515.000    569.279    -54.279    530.923    566.820    533.366    530.923    530.923
 47.670    610.021    579.122     30.900    530.811    576.127    533.783    530.811    530.811
 47.770    573.000    591.840    -18.840    530.700    588.159    534.350    530.700    530.700
 47.870    661.000    606.641     54.359    530.592    602.164    535.028    530.592    530.592
 47.970    689.000    621.437     67.563    530.485    616.160    535.713    530.485    530.485
 48.070    631.000    632.749     -1.749    530.381    626.843    536.230    530.381    530.381
 48.170    637.000    636.888      0.112    530.278    630.711    536.398    530.278    530.278
 48.270    658.000    632.664     25.336    530.177    626.633    536.156    530.177    530.177
 48.370    588.391    622.620    -34.228    530.078    617.020    535.635    530.078    530.078
 48.470    615.000    610.776      4.224    529.981    605.687    535.037    529.981    529.981
 48.570    574.000    600.208    -26.208    529.885    595.550    534.520    529.885    529.885
 48.670    613.526    592.520     21.006    529.792    588.128    534.166    529.792    529.792
 48.770    589.000    588.202      0.798    529.700    583.884    534.006    529.700    529.700
 48.870    600.000    587.079     12.921    529.611    582.644    534.036    529.611    529.611
 48.970    590.000    588.708      1.292    529.523    583.983    534.240    529.523    529.523
 49.070    601.137    592.706      8.431    529.437    587.525    534.611    529.437    529.437
 49.170    620.000    598.972     21.028    529.353    593.158    535.160    529.353    529.353
 49.270    615.270    607.919      7.352    529.270    601.239    535.942    529.270    529.270
 49.370    606.000    620.848    -14.848    529.190    612.942    537.086    529.190    529.190
 49.470    623.000    640.710    -17.710    529.111    630.934    538.873    529.111    529.111
 49.570    622.000    673.332    -51.332    529.034    660.493    541.851    529.034    529.034
 49.670    685.000    728.837    -43.837    528.958    710.789    546.971    528.958    528.958
 49.770    757.000    822.255    -65.255    528.885    795.442    555.641    528.885    528.885
 49.870    981.879    971.614     10.264    528.813    930.791    569.551    528.813    528.813
 49.970   1148.379   1191.978    -43.599    528.743   1130.488    590.114    528.743    528.743
 50.070   1423.811   1485.495    -61.684    528.675   1396.493    617.532    528.675    528.675
 50.170   1839.000   1829.774      9.226    528.609   1708.526    649.705    528.609    528.609
 50.270   2135.000   2168.358    -33.358    528.544   2015.440    681.341    528.544    528.544
 50.370   2571.000   2411.927    159.073    528.481   2236.298    704.063    528.481    528.481
 50.470   2634.000   2470.623    163.377    528.420   2289.655    709.436    528.420    528.420
 50.570   2414.034   2318.385     95.649    528.361   2151.874    694.995    528.361    528.361
 50.670   1974.520   2018.853    -44.333    528.303   1880.638    666.673    528.303    528.303
 50.770   1718.000   1670.774     47.226    528.247   1565.488    633.683    528.247    528.247
 50.870   1326.000   1350.745    -24.745    528.193   1275.907    603.157    528.193    528.193
 50.970   1015.000   1098.580    -83.580    528.140   1048.028    578.790    528.140    528.140
 51.070    940.215    923.467     16.748    528.089    890.183    561.445    528.089    528.089
 51.170    829.530    814.815     14.715    528.040    792.702    550.208    528.040    528.040
 51.270    706.000    753.221    -47.221    527.992    737.822    543.438    527.992    527.992
 51.370    672.640    718.814    -46.174    527.946    707.256    539.546    527.946    527.946
 51.470    701.000    696.165      4.835    527.902    686.735    537.370    527.902    527.902
 51.570    659.000    676.604    -17.604    527.859    668.292    536.204    527.859    527.859
 51.670    645.000    657.734    -12.734    527.818    649.901    535.678    527.818    527.818
 51.770    668.000    640.375     27.625    527.779    632.575    535.599    527.779    527.779
 51.870    619.000    625.798     -6.798    527.741    617.727    535.827    527.741    527.741
 51.970    578.878    614.638    -35.760    527.704    606.153    536.199    527.704    527.704
 52.070    591.000    606.770    -15.770    527.670    597.953    536.493    527.670    527.670
 52.170    644.000    601.552     42.448    527.637    592.736    536.456    527.637    527.637
 52.270    560.409    598.258    -37.849    527.605    589.921    535.945    527.605    527.605
 52.370    552.480    596.451    -43.971    527.575    588.991    535.036    527.575    527.575
 52.470    614.000    596.048     17.952    527.547    589.648    533.949    527.547    527.547
 52.570    584.390    597.266    -12.876    527.520    591.899    532.888    527.520    527.520
 52.670    599.440    600.652     -1.212    527.495    596.159    531.988    527.495    527.495
 52.770    648.000    607.251     40.749    527.471    603.407    531.314    527.471    527.471
 52.870    659.169    618.867     40.302    527.449    615.427    530.887    527.449    527.449
 52.970    689.000    638.308     50.692    527.428    635.025    530.709    527.428    527.428
 53.070    709.000    669.401     39.599    527.408    666.025    530.780    527.408    527.408
 53.170    688.016    716.509    -28.493    527.391    712.779    531.115    527.391    527.391
 53.270    800.000    783.340     16.660    527.374    778.980    531.726    527.374    527.374
 53.370    863.000    871.076     -8.076    527.359    865.816    532.610    527.359    527.359
 53.470   1033.765    976.110     57.655    527.346    969.733    533.713    527.346    527.346
 53.570   1120.000   1087.682     32.318    527.334   1080.101    534.906    527.334    527.334
 53.670   1198.000   1186.261     11.739    527.323   1177.621    535.961    527.323    527.323
 53.770   1279.000   1246.173     32.827    527.314   1236.916    536.578    527.314    527.314
 53.870   1214.000   1247.241    -33.241    527.307   1238.041    536.524    527.307    527.307
 53.970   1181.000   1189.202     -8.202    527.300   1180.733    535.794    527.300    527.300
 54.070   1083.000   1091.937     -8.937    527.295   1084.642    534.617    527.295    527.295
 54.170    947.617    981.181    -33.564    527.292    975.213    533.285    527.292    527.292
 54.270    918.193    876.611     41.582    527.290    871.934    531.987    527.290    527.290
 54.370    745.573    789.252    -43.679    527.289    785.634    530.923    527.289    527.289
 54.470    689.000    722.810    -33.810    527.289    719.995    530.116    527.289    527.289
 54.570    647.000    676.150    -29.150    527.291    673.909    529.541    527.291    527.291
 54.670    632.000    645.574    -13.574    527.294    643.721    529.153    527.294    527.294
 54.770    609.286    626.684    -17.399    527.299    625.085    528.901    527.299    527.299
 54.870    638.000    615.599     22.401    527.305    614.166    528.740    527.305    527.305
 54.970    642.584    609.459     33.125    527.312    608.135    528.637    527.312    527.312
 55.070    582.877    606.427    -23.550    527.320    605.179    528.568    527.320    527.320
 55.170    587.000    605.455    -18.455    527.330    604.262    528.522    527.330    527.330
 55.270    646.000    606.009     39.991    527.341    604.858    528.492    527.341    527.341
 55.370    560.000    607.862    -47.862    527.353    606.742    528.473    527.353    527.353
 55.470    654.883    610.969     43.914    527.366    609.872    528.463    527.366    527.366
 55.570    585.000    615.412    -30.412    527.381    614.331    528.462    527.381    527.381
 55.670    607.000    621.414    -14.414    527.397    620.342    528.468    527.397    527.397
 55.770    659.000    629.413     29.587    527.414    628.343    528.481    527.414    527.414
 55.870    635.000    640.239     -5.239    527.432    639.165    528.502    527.432    527.432
 55.970    709.000    655.448     53.552    527.451    654.363    528.532    527.451    527.451
 56.070    676.129    677.844     -1.715    527.472    676.736    528.571    527.472    527.472
 56.170    700.000    712.149    -12.149    527.493    711.006    528.622    527.493    527.493
 56.270    713.617    765.621    -52.004    527.516    764.423    528.691    527.516    527.516
 56.370    841.000    848.147     -7.147    527.540    846.869    528.783    527.540    527.540
 56.470    963.613    971.227     -7.614    527.565    969.838    528.905    527.565    527.565
 56.570   1176.963   1145.320     31.643    527.592   1143.784    529.064    527.592    527.592
 56.670   1262.000   1375.600   -113.600    527.619   1373.883    529.263    527.619    527.619
 56.770   1644.000   1656.759    -12.759    527.647   1654.837    529.498    527.647    527.647
 56.870   1949.493   1967.697    -18.204    527.677   1965.584    529.738    527.677    527.677
 56.970   2300.000   2266.931     33.069    527.707   2264.634    529.997    527.707    527.707
 57.070   2530.000   2492.231     37.769    527.739   2489.797    530.233    527.739    527.739
 57.170   2612.000   2577.620     34.380    527.771   2575.123    530.400    527.771    527.771
 57.270   2444.210   2493.043    -48.833    527.805   2490.547    530.484    527.805    527.805
 57.370   2189.448   2269.161    -79.713    527.840   2266.696    530.506    527.840    527.840
 57.470   1950.610   1972.190    -21.581    527.875   1969.746    530.511    527.875    527.875
 57.570   1596.000   1664.297    -68.297    527.912   1661.829    530.544    527.912    527.912
 57.670   1344.000   1386.912    -42.912    527.949   1384.343    530.647    527.949    527.949
 57.770   1080.000   1161.122    -81.122    527.988   1158.341    530.864    527.988    527.988
 57.870    973.037    992.464    -19.428    528.027    989.301    531.256    528.027    528.027
 57.970    924.538    876.340     48.198    528.068    872.523    531.926    528.068    528.068
 58.070    833.101    803.339     29.762    528.109    798.431    533.041    528.109    528.109
 58.170    736.000    763.601    -27.601    528.151    756.921    534.842    528.151    528.151
 58.270    730.792    749.475    -18.683    528.194    740.030    537.639    528.194    528.194
 58.370    787.000    756.346     30.654    528.238    742.829    541.745    528.238    528.238
 58.470    722.296    782.082    -59.786    528.283    762.972    547.372    528.283    528.283
 58.570    829.000    825.699      3.301    528.329    799.516    554.481    528.329    528.329
 58.670    822.742    885.762    -63.020    528.376    851.460    562.639    528.376    528.376
 58.770    960.000    958.805      1.195    528.423    916.285    570.898    528.423    528.423
 58.870   1005.000   1038.181    -33.181    528.471    988.814    577.793    528.471    528.471
 58.970   1136.000   1114.652     21.348    528.520   1061.475    581.659    528.520    528.520
 59.070   1211.000   1179.715     31.285    528.570   1126.794    581.463    528.570    528.570
 59.170   1263.000   1228.414     34.586    528.621   1179.534    577.486    528.621    528.621
 59.270   1277.000   1257.650     19.350    528.672   1215.302    571.020    528.672    528.672
 59.370   1365.000   1264.187    100.813    528.724   1229.400    563.521    528.724    528.724
 59.470   1260.000   1248.224     11.776    528.777   1220.884    556.132    528.777    528.777
 59.570   1267.000   1217.805     49.195    528.831   1197.038    549.605    528.831    528.831
 59.670   1250.000   1186.154     63.846    528.885   1170.695    544.331    528.885    528.885
 59.770   1193.832   1165.246     28.586    528.940   1153.756    540.385    528.940    528.940
 59.870   1135.000   1162.735    -27.735    528.996   1154.027    537.619    528.996    528.996
 59.970   1204.000   1183.054     20.946    529.052   1176.192    535.786    529.052    529.052
 60.070   1240.440   1228.746     11.694    529.109   1223.045    534.637    529.109    529.109
 60.170   1336.000   1298.807     37.193    529.167   1293.796    533.964    529.167    529.167
 60.270   1501.000   1385.277    115.723    529.226   1380.653    533.602    529.226    529.226
 60.370   1493.764   1471.029     22.735    529.285   1466.626    533.424    529.285    529.285
 60.470   1489.230   1530.868    -41.638    529.344   1526.630    533.325    529.344    529.344
 60.570   1594.000   1539.304     54.696    529.404   1535.255    533.224    529.404    529.404
 60.670   1487.764   1485.017      2.747    529.465   1481.210    533.083    529.465    529.465
 60.770   1433.658   1378.892     54.766    529.526   1375.369    532.904    529.526    529.526
 60.870   1223.000   1245.233    -22.233    529.588   1241.995    532.718    529.588    529.588
 60.970   1102.000   1107.916     -5.916    529.651   1104.931    532.559    529.651    529.651
 61.070   1008.000    983.906     24.094    529.714    981.108    532.456    529.714    529.714
 61.170    884.000    882.799      1.201    529.777    880.101    532.433    529.777    529.777
 61.270    844.968    808.309     36.659    529.841    805.603    532.513    529.841    529.841
 61.370    806.000    760.273     45.727    529.906    757.420    532.727    529.906    529.906
 61.470    772.000    736.808     35.192    529.971    733.625    533.119    529.971    529.971
 61.570    765.000    736.145     28.855    530.036    732.385    533.754    530.036    530.036
 61.670    770.000    757.685     12.315    530.102    753.016    534.717    530.102    530.102
 61.770    857.000    801.999     55.001    530.168    796.000    536.095    530.168    530.168
 61.870    896.000    869.865     26.135    530.235    862.047    537.959    530.235    530.235
 61.970    987.539    960.661     26.879    530.302    950.517    540.326    530.302    530.302
 62.070   1072.000   1070.523      1.477    530.370   1057.623    543.123    530.370    530.370
 62.170   1171.000   1190.663    -19.663    530.438   1174.780    546.150    530.438    530.438
 62.270   1273.298   1306.109    -32.810    530.506   1287.371    549.057    530.506    530.506
 62.370   1348.000   1396.006    -48.006    530.574   1375.045    551.350    530.574    530.574
 62.470   1390.000   1438.435    -48.435    530.643   1416.402    552.510    530.643    530.643
 62.570   1380.508   1420.849    -40.341    530.713   1399.190    552.240    530.713    530.713
 62.670   1275.000   1348.172    -73.172    530.782   1328.203    550.658    530.782    530.782
 62.770   1261.000   1239.193     21.807    530.852   1221.773    548.213    530.852    530.852
 62.870   1071.000   1115.912    -44.912    530.923   1101.368    545.433    530.923    530.923
 62.970    970.000    996.022    -26.022    530.993    984.258    542.740    530.993    530.993
 63.070    846.000    890.804    -44.804    531.064    881.455    540.406    531.064    531.064
 63.170    775.000    805.678    -30.678    531.135    798.248    538.561    531.135    531.135
 63.270    763.462    741.522     21.940    531.206    735.494    537.231    531.206    531.206
 63.370    684.000    696.229    -12.229    531.277    691.133    536.369    531.277    531.277
 63.470    716.462    666.253     50.209    531.349    661.699    535.897    531.349    531.349
 63.570    676.000    647.887     28.113    531.421    643.563    535.735    531.421    531.421
 63.670    613.026    638.110    -25.084    531.493    633.761    535.830    531.493    531.493
 63.770    623.000    634.993    -11.993    531.565    630.378    536.165    531.565    531.565
 63.870    623.908    637.784    -13.875    531.637    632.632    536.770    531.637    531.637
 63.970    668.326    646.793     21.533    531.710    640.742    537.736    531.710    531.710
 64.070    686.000    663.153     22.847    531.782    655.691    539.212    531.782    531.782
 64.170    634.895    688.470    -53.574    531.855    678.874    541.407    531.855    531.855
 64.270    730.127    724.339      5.788    531.928    711.638    544.572    531.928    531.928
 64.370    843.000    771.742     71.258    532.001    754.710    548.958    532.001    532.001
 64.470    855.000    830.343     24.657    532.074    807.573    554.751    532.074    532.074
 64.570    948.000    897.765     50.235    532.147    867.817    561.982    532.147    532.147
 64.670   1014.000    968.930     45.070    532.220    930.583    570.437    532.220    532.220
 64.770   1005.535   1035.797    -30.261    532.293    988.383    579.566    532.293    532.293
 64.870   1101.000   1088.275     12.725    532.366   1032.061    588.438    532.366    532.366
 64.970   1221.000   1117.049    103.951    532.439   1053.586    595.770    532.439    532.439
 65.070   1152.000   1117.207     34.793    532.512   1049.458    600.148    532.512    532.512
 65.170   1139.203   1090.108     49.095    532.585   1022.087    600.518    532.585    532.585
 65.270   1003.062   1042.464    -39.402    532.658    978.306    596.755    532.658    532.658
 65.370    981.488    983.674     -2.187    532.731    926.593    589.775    532.731    532.731
 65.470    912.000    922.650    -10.650    532.804    874.408    581.031    532.804    532.804
 65.570    856.772    865.675     -8.903    532.877    826.654    571.899    532.877    532.877
 65.670    772.000    815.797    -43.797    532.949    785.381    563.379    532.949    532.949
 65.770    760.000    773.511    -13.511    533.022    750.490    556.062    533.022    533.022
 65.870    734.000    738.079     -4.079    533.094    721.002    550.194    533.094    533.094
 65.970    739.000    708.686     30.314    533.167    696.114    545.759    533.167    533.167
 66.070    655.000    684.780    -29.780    533.239    675.459    542.577    533.239    533.239
 66.170    661.000    665.907     -4.907    533.311    658.840    540.391    533.311    533.311
 66.270    677.174    651.577     25.598    533.383    646.030    538.937    533.383    533.383
 66.370    614.588    641.279    -26.691    533.454    636.750    537.987    533.454    533.454
 66.470    590.286    634.532    -44.246    533.526    630.692    537.367    533.526    533.526
 66.570    585.000    630.913    -45.913    533.597    627.554    536.956    533.597    533.597
 66.670    600.000    630.089    -30.089    533.668    627.078    536.678    533.668    533.668
 66.770    591.009    631.874    -40.864    533.739    629.124    536.487    533.739    533.739
 66.870    641.000    636.319      4.681    533.809    633.770    536.358    533.809    533.809
 66.970    619.000    643.868    -24.868    533.879    641.469    536.277    533.879    533.879
 67.070    596.000    655.541    -59.541    533.949    653.247    536.240    533.949    533.949
 67.170    702.000    673.176     28.824    534.019    670.940    536.251    534.019    534.019
 67.270    696.000    699.683     -3.683    534.088    697.446    536.319    534.088    534.088
 67.370    714.000    739.228    -25.228    534.157    736.918    536.458    534.157    534.157
 67.470    853.091    797.215     55.876    534.226    794.736    536.690    534.226    534.226
 67.570    810.000    879.879    -69.879    534.294    877.113    537.041    534.294    534.294
 67.670    965.443    993.364    -27.921    534.362    990.166    537.536    534.362    534.362
 67.770   1101.000   1142.239    -41.239    534.430   1138.449    538.195    534.430    534.430
 67.870   1263.629   1327.624    -63.995    534.497   1323.081    539.021    534.497    534.497
 67.970   1488.000   1545.191    -57.191    534.564   1539.755    539.994    534.564    534.564
 68.070   1758.000   1783.335    -25.335    534.630   1776.924    541.062    534.630    534.630
 68.170   1978.000   2021.703    -43.703    534.696   2014.324    542.136    534.696    534.696
 68.270   2172.385   2230.744    -58.359    534.762   2222.536    543.084    534.762    534.762
 68.370   2399.000   2374.797     24.203    534.827   2366.051    543.749    534.827    534.827
 68.470   2406.000   2422.403    -16.403    534.891   2413.537    543.993    534.891    534.891
 68.570   2358.000   2361.630     -3.630    534.955   2353.099    543.762    534.955    534.955
 68.670   2174.000   2207.452    -33.452    535.019   2199.638    543.122    535.019    535.019
 68.770   2033.000   1992.777     40.223    535.082   1985.919    542.218    535.082    535.082
 68.870   1720.000   1753.032    -33.032    535.145   1747.222    541.204    535.145    535.145
 68.970   1495.558   1516.708    -21.150    535.207   1511.920    540.208    535.207    535.207
 69.070   1240.000   1302.977    -62.977    535.268   1299.105    539.312    535.268    535.268
 69.170   1063.000   1122.398    -59.398    535.329   1119.297    538.563    535.329    535.329
 69.270   1027.463    978.478     48.986    535.389    975.990    537.976    535.389    535.389
 69.370    862.873    869.526     -6.653    535.449    867.502    537.545    535.449    535.449
 69.470    799.000    790.651      8.349    535.508    788.964    537.246    535.508    535.508
 69.570    683.233    735.601    -52.368    535.567    734.150    537.054    535.567    535.567
 69.670    642.862    698.177    -55.314    535.625    696.887    536.939    535.625    535.625
 69.770    685.000    673.078     11.922    535.682    671.897    536.880    535.682    535.682
 69.870    669.996    656.243     13.753    535.739    655.137    536.857    535.739    535.739
 69.970    653.000    644.819      8.181    535.795    643.763    536.859    535.795    535.795
 70.070    643.793    636.941      6.852    535.850    635.919    536.878    535.850    535.850
 70.170    586.000    631.464    -45.464    535.905    630.466    536.907    535.905    535.905
 70.270    635.000    627.723      7.277    535.959    626.740    536.945    535.959    535.959
 70.370    666.313    625.359     40.954    536.012    624.383    536.990    536.012    536.012
 70.470    635.000    624.205     10.795    536.065    623.229    537.040    536.065    536.065
 70.570    640.000    624.236     15.764    536.116    623.253    537.098    536.116    536.116
 70.670    633.355    625.562      7.792    536.167    624.563    537.162    536.167    536.167
 70.770    621.000    628.461     -7.461    536.218    627.437    537.236    536.218    536.218
 70.870    616.601    633.451    -16.850    536.267    632.389    537.321    536.267    536.267
 70.970    630.000    641.404    -11.404    536.316    640.282    537.426    536.316    536.316
 71.070    626.969    653.668    -26.699    536.364    652.457    537.558    536.364    536.364
 71.170    692.000    672.207     19.793    536.411    670.864    537.730    536.411    536.411
 71.270    724.000    699.671     24.329    536.457    698.135    537.960    536.457    536.457
 71.370    765.000    739.353     25.647    536.503    737.542    538.267    536.503    536.503
 71.470    762.000    794.937    -32.937    536.547    792.743    538.677    536.547    536.547
 71.570    888.127    869.988     18.139    536.591    867.282    539.212    536.591    536.591
 71.670    989.000    967.182     21.818    536.634    963.815    539.890    536.634    536.634
 71.770   1106.000   1087.340     18.660    536.676   1083.159    540.717    536.676    536.676
 71.870   1204.000   1228.405    -24.405    536.717   1223.273    541.678    536.717    536.717
 71.970   1455.934   1384.499     71.435    536.757   1378.319    542.738    536.757    536.757
 72.070   1531.246   1545.138    -13.892    536.797   1537.884    543.829    536.797    536.797
 72.170   1719.785   1694.851     24.933    536.835   1686.600    544.852    536.835    536.835
 72.270   1803.000   1814.014    -11.014    536.873   1804.971    545.683    536.873    536.873
 72.370   1970.000   1882.481     87.519    536.909   1872.985    546.191    536.909    536.909
 72.470   1901.000   1886.453     14.547    536.945   1876.927    546.290    536.945    536.945
 72.570   1785.000   1824.972    -39.972    536.979   1815.836    545.973    536.979    536.979
 72.670   1769.000   1710.450     58.550    537.013   1702.038    545.319    537.013    537.013
 72.770   1600.000   1562.678     37.322    537.045   1555.195    544.456    537.045    537.045
 72.870   1330.000   1401.649    -71.649    537.077   1395.169    543.509    537.077    537.077
 72.970   1210.628   1243.442    -32.813    537.107   1237.941    542.579    537.107    537.107
 73.070   1142.000   1099.135     42.865    537.137   1094.522    541.734    537.137    537.137
 73.170    985.740    975.121     10.619    537.166    971.268    541.009    537.166    537.166
 73.270    890.420    873.864     16.556    537.193    870.633    540.419    537.193    537.193
 73.370    843.000    794.844     48.156    537.219    792.099    539.961    537.219    537.219
 73.470    743.549    735.579      7.970    537.245    733.198    539.623    537.245    537.245
 73.570    736.000    692.598     43.402    537.269    690.474    539.390    537.269    537.269
 73.670    757.000    662.240     94.760    537.292    660.281    539.249    537.292    537.292
 73.770    696.000    641.192     54.808    537.314    639.316    539.188    537.314    537.314
 73.870    669.000    626.769     42.231    537.335    624.901    539.201    537.335    537.335
 73.970    607.001    616.978     -9.977    537.355    615.047    539.287    537.355    537.355
 74.070    653.088    610.452     42.636    537.374    608.380    539.448    537.374    537.374
 74.170    641.000    606.300     34.700    537.391    604.008    539.688    537.391    537.391
 74.270    582.000    603.963    -21.963    537.408    601.368    540.012    537.408    537.408
 74.370    563.830    603.073    -39.243    537.423    600.093    540.416    537.423    537.423
 74.470    639.000    603.344     35.656    537.437    599.904    540.895    537.437    537.437
 74.570    638.644    604.495     34.148    537.450    600.540    541.429    537.450    537.450
 74.670    652.234    606.203     46.031    537.461    601.704    541.990    537.461    537.461
 74.770    652.000    608.066     43.934    537.472    603.040    542.533    537.472    537.472
 74.870    665.747    609.607     56.140    537.481    604.123    543.005    537.481    537.481
 74.970    701.000    610.333     90.667    537.489    604.519    543.347    537.489    537.489
 75.070    655.000    609.868     45.132    537.496    603.893    543.516    537.496    537.496
 75.170    653.000    608.113     44.887    537.501    602.155    543.503    537.501    537.501
 75.270    651.000    605.311     45.689    537.506    599.514    543.343    537.506    537.506
 75.370    578.793    601.964    -23.171    537.509    596.404    543.104    537.509    537.509
 75.470    662.000    598.676     63.324    537.510    593.349    542.866    537.510    537.510
 75.570    618.876    596.057     22.819    537.511    590.875    542.714    537.511    537.511
 75.670    676.000    594.693     81.307    537.510    589.488    542.730    537.510    537.510
 75.770    650.000    595.149     54.851    537.508    589.672    542.994    537.508    537.508
 75.870    607.000    597.973      9.027    537.504    591.894    543.585    537.504    537.504
 75.970    624.000    603.678     20.322    537.500    596.592    544.579    537.500    537.500
 76.070    627.933    612.700     15.233    537.494    604.137    546.043    537.494    537.494
 76.170    633.000    625.333      7.667    537.486    614.775    548.022    537.486    537.486
 76.270    669.000    641.633     27.367    537.477    628.554    550.527    537.477    537.477
 76.370    694.944    661.326     33.618    537.467    645.236    553.518    537.467    537.467
 76.470    697.000    683.700     13.300    537.456    664.213    556.894    537.456    537.456
 76.570    741.000    707.525     33.475    537.443    684.435    560.476    537.443    537.443
 76.670    763.000    730.994     32.006    537.429    704.360    563.999    537.429    537.429
 76.770    753.000    751.728      1.272    537.413    721.959    567.113    537.413    537.413
 76.870    753.031    767.004    -13.973    537.396    734.910    569.419    537.396    537.396
 76.970    737.967    774.331    -36.364    537.377    741.088    570.551    537.377    537.377
 77.070    761.000    772.314    -11.314    537.358    739.304    570.303    537.358    537.358
 77.170    745.000    761.261    -16.261    537.336    729.818    568.722    537.336    537.336
 77.270    745.000    743.025      1.975    537.313    714.210    566.080    537.313    537.313
 77.370    777.181    720.235     56.947    537.289    694.719    562.766    537.289    537.289
 77.470    661.275    695.502    -34.227    537.264    673.571    559.162    537.264    537.264
 77.570    667.000    670.978     -3.978    537.237    652.603    555.588    537.237    537.237
 77.670    625.149    648.213    -23.064    537.208    633.133    552.270    537.208    537.208
 77.770    652.000    628.181     23.819    537.178    615.992    549.353    537.178    537.178
 77.870    596.000    611.350    -15.350    537.147    601.580    546.906    537.147    537.147
 77.970    637.484    597.783     39.701    537.114    589.950    544.939    537.114    537.114
 78.070    580.000    587.245     -7.245    537.079    580.901    543.417    537.079    537.079
 78.170    521.000    579.326    -58.326    537.043    574.083    542.282    537.043    537.043
 78.270    615.809    573.537     42.272    537.006    569.079    541.460    537.006    537.006
 78.370    554.684    569.397    -14.713    536.967    565.479    540.882    536.967    536.967
 78.470    533.000    566.480    -33.480    536.926    562.918    540.485    536.926    536.926
 78.570    545.697    564.442    -18.745    536.884    561.103    540.220    536.884    536.884
 78.670    573.000    563.025      9.975    536.840    559.814    540.050    536.840    536.840
 78.770    552.000    562.047    -10.047    536.795    558.894    539.947    536.795    536.795
 78.870    546.000    561.389    -15.389    536.748    558.240    539.895    536.748    536.748
 78.970    589.000    560.977     28.023    536.700    557.790    539.886    536.700    536.700
 79.070    578.423    560.775     17.648    536.650    557.510    539.914    536.650    536.650
 79.170    542.000    560.769    -18.769    536.599    557.388    539.979    536.599    536.599
 79.270    581.495    560.967     20.528    536.546    557.426    540.085    536.546    536.546
 79.370    542.000    561.391    -19.391    536.491    557.640    540.241    536.491    536.491
 79.470    581.476    562.080     19.396    536.435    558.055    540.459    536.435    536.435
 79.570    575.000    563.090     11.910    536.378    558.705    540.760    536.378    536.378
 79.670    566.000    564.496      1.504    536.318    559.636    541.176    536.318    536.318
 79.770    545.488    566.402    -20.914    536.257    560.901    541.755    536.257    536.257
 79.870    536.000    568.946    -32.946    536.195    562.572    542.565    536.195    536.195
 79.970    568.000    572.314     -4.314    536.131    564.738    543.703    536.131    536.131
 80.070    570.000    576.751     -6.751    536.065    567.511    545.299    536.065    536.065
 80.170    542.379    582.566    -40.187    535.997    571.038    547.519    535.997    535.997
 80.270    618.000    590.133     27.867    535.928    575.494    550.559    535.928    535.928
 80.370    548.622    599.871    -51.249    535.858    581.085    554.635    535.858    535.858
 80.470    616.000    612.226      3.774    535.785    588.044    559.957    535.785    535.785
 80.570    613.262    627.625    -14.364    535.711    596.628    566.699    535.711    535.711
 80.670    638.000    646.434     -8.434    535.636    607.103    574.958    535.636    535.636
 80.770    630.000    668.864    -38.864    535.558    619.708    584.707    535.558    535.558
 80.870    723.000    694.851     28.149    535.479    634.579    595.746    535.479    535.479
 80.970    679.000    723.928    -44.928    535.399    651.660    607.665    535.399    535.399
 81.070    744.000    755.112    -11.112    535.316    670.617    619.814    535.316    535.316
 81.170    740.000    786.868    -46.868    535.232    690.799    631.312    535.232    535.232
 81.270    830.000    817.206     12.794    535.147    711.251    641.119    535.147    535.147
 81.370    831.000    843.956    -12.956    535.059    730.831    648.211    535.059    535.059
 81.470    809.000    865.192    -56.192    534.970    748.387    651.812    534.970    534.970
 81.570    926.930    879.574     47.357    534.879    762.923    651.576    534.879    534.879
 81.670    888.000    886.458      1.542    534.787    773.686    647.615    534.787    534.787
 81.770    943.032    885.863     57.170    534.693    780.206    640.413    534.693    534.693
 81.870    832.762    878.399    -45.637    534.597    782.338    630.727    534.597    534.597
 81.970    851.068    865.123    -14.055    534.499    780.215    619.481    534.499    534.499
 82.070    846.000    847.272     -1.272    534.400    774.123    607.625    534.400    534.400
 82.170    793.000    826.056    -33.056    534.299    764.438    595.993    534.299    534.299
 82.270    807.000    802.635      4.365    534.196    751.695    585.212    534.196    534.196
 82.370    797.000    778.166     18.834    534.092    736.655    575.676    534.092    534.092
 82.470    706.116    753.723    -47.607    533.985    720.214    567.566    533.985    533.985
 82.570    746.000    730.137     15.863    533.878    703.191    560.890    533.878    533.878
 82.670    688.000    707.892    -19.892    533.768    686.189    555.533    533.768    533.768
 82.770    681.000    687.200     -6.200    533.656    669.605    551.308    533.656    533.656
 82.870    650.000    668.164    -18.164    533.543    653.751    548.008    533.543    533.543
 82.970    652.000    650.922      1.078    533.428    638.960    545.436    533.428    533.428
 83.070    632.218    635.672     -3.454    533.312    625.592    543.429    533.312    533.312
 83.170    598.035    622.614    -24.578    533.194    613.980    541.858    533.194    533.194
 83.270    578.000    611.899    -33.899    533.073    604.369    540.626    533.073    533.073
 83.370    577.000    603.602    -26.602    532.952    596.905    539.663    532.952    532.952
 83.470    611.000    597.718     13.282    532.828    591.632    538.920    532.828    532.828
 83.570    610.642    594.167     16.476    532.703    588.505    538.363    532.703    532.703
 83.670    540.000    592.787    -52.787    532.576    587.389    537.965    532.576    532.576
 83.770    608.062    593.332     14.730    532.447    588.060    537.702    532.447    532.447
 83.870    560.254    595.466    -35.212    532.316    590.208    537.550    532.316    532.316
 83.970    620.000    598.763     21.237    532.184    593.434    537.481    532.184    532.184
 84.070    568.000    602.705    -34.705    532.050    597.253    537.464    532.050    532.050
 84.170    597.239    606.697     -9.458    531.914    601.104    537.464    531.914    531.914
 84.270    603.349    610.087     -6.738    531.776    604.375    537.442    531.776    531.776
 84.370    604.000    612.237     -8.237    531.637    606.466    537.359    531.637    531.637
 84.470    638.745    612.640     26.106    531.495    606.900    537.187    531.495    531.495
 84.570    616.000    611.057      4.943    531.353    605.452    536.911    531.353    531.353
 84.670    659.681    607.585     52.096    531.208    602.213    536.537    531.208    531.208
 84.770    589.000    602.597    -13.597    531.061    597.532    536.088    531.061    531.061
 84.870    588.665    596.606     -7.942    530.913    591.891    535.594    530.913    530.913
 84.970    582.962    590.121     -7.160    530.763    585.767    535.089    530.763    530.763
 85.070    544.413    583.592    -39.179    530.612    579.576    534.604    530.612    530.612
 85.170    619.913    577.468     42.445    530.458    573.732    534.175    530.458    530.458
 85.270    588.000    571.972     16.028    530.303    568.434    533.824    530.303    530.303
 85.370    507.000    567.269    -60.269    530.146    563.826    533.576    530.146    530.146
 85.470    559.000    563.450     -4.450    529.987    559.973    533.453    529.987    529.987
 85.570    511.641    560.538    -48.896    529.826    556.878    533.476    529.826    529.826
 85.670    532.000    558.505    -26.505    529.664    554.496    533.664    529.664    529.664
 85.770    489.000    557.296    -68.296    529.500    552.755    534.032    529.500    529.500
 85.870    569.000    556.844     12.156    529.334    551.576    534.593    529.334    529.334
 85.970    532.939    557.076    -24.137    529.167    550.886    535.347    529.167    529.167
 86.070    523.777    557.931    -34.153    528.997    550.632    536.285    528.997    528.997
 86.170    565.000    559.357      5.643    528.826    550.788    537.383    528.826    528.826
 86.270    513.000    561.317    -48.317    528.654    551.358    538.599    528.654    528.654
 86.370    562.000    563.786     -1.786    528.479    552.379    539.870    528.479    528.479
 86.470    530.516    566.751    -36.235    528.303    553.923    541.112    528.303    528.303
 86.570    543.261    570.210    -26.949    528.125    556.089    542.224    528.125    528.125
 86.670    557.000    574.165    -17.165    527.945    558.998    543.087    527.945    527.945
 86.770    597.685    578.634     19.051    527.763    562.779    543.587    527.763    527.763
 86.870    634.000    583.656     50.344    527.580    567.560    543.639    527.580    527.580
 86.970    589.000    589.307     -0.307    527.395    573.447    543.211    527.395    527.395
 87.070    589.000    595.680     -6.680    527.208    580.499    542.337    527.208    527.208
 87.170    621.000    602.852     18.148    527.020    588.707    541.104    527.020    527.020
 87.270    594.668    610.827    -16.159    526.830    597.963    539.621    526.830    526.830
 87.370    623.000    619.490      3.510    526.638    608.044    538.001    526.638    526.638
 87.470    622.000    628.579     -6.579    526.444    618.588    536.341    526.444    526.444
 87.570    616.511    637.665    -21.154    526.249    629.089    534.719    526.249    526.249
 87.670    685.370    646.160     39.210    526.052    638.903    533.195    526.052    526.052
 87.770    710.000    653.352     56.648    525.853    647.278    531.806    525.853    525.853
 87.870    709.570    658.499     51.071    525.653    653.453    530.575    525.653    525.653
 87.970    698.000    660.993     37.007    525.451    656.813    529.508    525.451    525.451
 88.070    673.000    660.536     12.464    525.247    657.066    528.599    525.247    525.247
 88.170    670.000    657.239     12.761    525.042    654.337    527.834    525.042    525.042
 88.270    620.741    651.579    -30.838    524.835    649.120    527.196    524.835    524.835
 88.370    624.000    644.263    -20.263    524.626    642.140    526.665    524.626    524.626
 88.470    584.370    636.073    -51.703    524.415    634.196    526.222    524.415    524.415
 88.570    604.818    627.774    -22.956    524.203    626.068    525.853    524.203    524.203
 88.670    644.000    620.051     23.949    523.989    618.454    525.544    523.989    523.989
 88.770    612.000    613.479     -1.479    523.774    611.939    525.284    523.774    523.774
 88.870    611.000    608.490      2.510    523.557    606.962    525.066    523.557    523.557
 88.970    621.000    605.357     15.643    523.338    603.803    524.884    523.338    523.338
 89.070    568.000    604.181    -36.181    523.117    602.569    524.732    523.117    523.117
 89.170    599.000    604.900     -5.900    522.895    603.202    524.605    522.895    522.895
 89.270    597.000    607.290    -10.290    522.672    605.486    524.495    522.672    522.672
 89.370    586.887    610.983    -24.096    522.446    609.061    524.397    522.446    522.446
 89.470    703.000    615.487     87.513    522.219    613.442    524.301    522.219    522.219
 89.570    637.000    620.204     16.796    521.991    618.042    524.197    521.991    521.991
 89.670    645.781    624.464     21.317    521.761    622.204    524.072    521.761    521.761
 89.770    606.575    627.591    -21.016    521.529    625.262    523.914    521.529    521.529
 89.870    644.000    629.000     15.000    521.296    626.642    523.714    521.296    521.296
 89.970    616.000    628.315    -12.315    521.061    625.973    523.465    521.061    521.061
 90.070    596.000    625.456    -29.456    520.825    623.178    523.166    520.825    520.825
 90.170    578.330    620.642    -42.313    520.587    618.467    522.823    520.587    520.587
 90.270    581.000    614.304    -33.304    520.347    612.263    522.446    520.347    520.347
 90.370    596.000    606.967    -10.967    520.106    605.081    522.045    520.106    520.106
 90.470    613.059    599.150     13.909    519.863    597.427    521.633    519.863    519.863
 90.570    592.000    591.307      0.693    519.619    589.748    521.218    519.619    519.619
 90.670    583.618    583.802     -0.184    519.374    582.400    520.810    519.374    519.374
 90.770    577.000    576.907      0.093    519.126    575.649    520.412    519.126    519.126
 90.870    558.545    570.802    -12.256    518.878    569.672    520.030    518.878    518.878
 90.970    575.000    565.585      9.415    518.628    564.565    519.665    518.628    518.628
 91.070    587.000    561.285     25.715    518.376    560.356    519.318    518.376    518.376
 91.170    599.262    557.878     41.384    518.123    557.023    518.988    518.123    518.123
 91.270    563.000    555.306      7.694    517.868    554.506    518.674    517.868    517.868
 91.370    526.000    553.490    -27.490    517.612    552.731    518.375    517.612    517.612
 91.470    559.000    552.353      6.647    517.355    551.621    518.089    517.355    517.355
 91.570    539.000    551.828    -12.828    517.096    551.110    517.813    517.096    517.096
 91.670    557.000    551.872      5.128    516.835    551.157    517.548    516.835    516.835
 91.770    506.670    552.473    -45.802    516.574    551.750    517.293    516.574    516.574
 91.870    577.000    553.652     23.348    516.311    552.909    517.049    516.311    516.311
 91.970    530.000    555.468    -25.468    516.046    554.692    516.815    516.046    516.046
 92.070    585.845    558.015     27.830    515.780    557.192    516.594    515.780    515.780
 92.170    586.000    561.420     24.580    515.513    560.533    516.388    515.513    515.513
 92.270    578.942    565.832     13.109    515.244    564.862    516.200    515.244    515.244
 92.370    583.688    571.420     12.268    514.974    570.345    516.031    514.974    514.974
 92.470    579.153    578.353      0.800    514.703    577.148    515.885    514.703    514.703
 92.570    637.313    586.788     50.525    514.430    585.428    515.763    514.430    514.430
 92.670    623.000    596.854     26.146    514.156    595.311    515.666    514.156    514.156
 92.770    602.744    608.631     -5.886    513.881    606.879    515.594    513.881    513.881
 92.870    621.000    622.135     -1.135    513.604    620.150    515.544    513.604    513.604
 92.970    658.000    637.303     20.697    513.326    635.064    515.513    513.326    513.326
 93.070    643.000    653.974    -10.974    513.047    651.467    515.496    513.047    513.047
 93.170    705.585    671.880     33.704    512.767    669.098    515.484    512.767    512.767
 93.270    679.666    690.637    -10.971    512.485    687.580    515.469    512.485    512.485
 93.370    715.340    709.751      5.589    512.203    706.432    515.443    512.203    512.203
 93.470    716.707    728.659    -11.952    511.919    725.099    515.395    511.919    511.919
 93.570    788.000    746.807     41.193    511.633    743.033    515.320    511.633    511.633
 93.670    734.000    763.764    -29.764    511.347    759.804    515.218    511.347    511.347
 93.770    786.000    779.368      6.632    511.059    775.241    515.096    511.059    511.059
 93.870    812.212    793.732     18.480    510.771    789.440    514.972    510.771    510.771
 93.970    798.790    807.149     -8.359    510.481    802.671    514.870    510.481    510.481
 94.070    799.000    819.986    -20.986    510.190    815.270    514.817    510.190    510.190
 94.170    878.000    832.535     45.465    509.898    827.503    514.842    509.898    509.898
 94.270    882.000    844.948     37.052    509.605    839.499    514.968    509.605    509.605
 94.370    912.000    857.257     54.743    509.310    851.269    515.214    509.310    509.310
 94.470    805.000    869.442    -64.442    509.015    862.789    515.586    509.015    509.015
 94.570    915.000    881.509     33.491    508.719    874.064    516.084    508.719    508.719
 94.670    863.000    893.481    -30.481    508.421    885.135    516.690    508.421    508.421
 94.770    940.000    905.315     34.685    508.123    895.985    517.379    508.123    508.123
 94.870    886.000    916.769    -30.769    507.823    906.415    518.107    507.823    507.823
 94.970    974.000    927.298     46.702    507.523    915.933    518.823    507.523    507.523
 95.070    991.000    936.023     54.977    507.222    923.724    519.460    507.222    507.222
 95.170    928.000    941.793    -13.793    506.919    928.708    519.951    506.919    506.919
 95.270    965.000    943.363     21.637    506.616    929.711    520.224    506.616    506.616
 95.370    932.000    939.668     -7.668    506.312    925.721    520.223    506.312    506.312
 95.470    883.080    930.127    -47.047    506.007    916.192    519.915    506.007    506.007
 95.570    944.000    914.859     29.141    505.701    901.241    519.300    505.701    505.701
 95.670    930.459    894.705     35.754    505.394    881.678    518.410    505.394    505.394
 95.770    878.000    871.058      6.942    505.086    858.839    517.300    505.086    505.086
 95.870    886.437    845.605     40.832    504.778    834.342    516.040    504.778    504.778
 95.970    837.000    820.103     16.897    504.468    809.875    514.698    504.468    504.468
 96.070    843.000    796.241     46.759    504.158    787.063    513.338    504.158    504.158
 96.170    807.000    775.568     31.432    503.847    767.398    512.017    503.847    503.847
 96.270    775.622    759.468     16.154    503.536    752.222    510.779    503.536    503.536
 96.370    788.000    749.157     38.843    503.223    742.715    509.658    503.223    503.223
 96.470    735.000    745.674    -10.674    502.910    739.894    508.677    502.910    502.910
 96.570    738.000    749.883    -11.883    502.597    744.610    507.849    502.597    502.597
 96.670    730.809    762.464    -31.654    502.282    757.537    507.179    502.282    502.282
 96.770    795.657    783.896     11.761    501.967    779.159    506.665    501.967    501.967
 96.870    875.436    814.439     60.998    501.651    809.740    506.301    501.651    501.651
 96.970    835.000    854.094    -19.094    501.335    849.293    506.076    501.335    501.335
 97.070    886.000    902.559    -16.559    501.018    897.528    505.977    501.018    501.018
 97.170   1003.335    959.173     44.162    500.700    953.802    505.989    500.700    500.700
 97.270   1073.000   1022.854     50.146    500.382   1017.051    506.093    500.382    500.382
 97.370   1155.000   1092.051     62.949    500.064   1085.745    506.268    500.064    500.064
 97.470   1121.803   1164.690    -42.888    499.745   1157.838    506.488    499.745    499.745
 97.570   1221.973   1238.155    -16.182    499.425   1230.743    506.724    499.425    499.425
 97.670   1356.000   1309.289     46.711    499.105   1301.337    506.943    499.105    499.105
 97.770   1344.000   1374.473    -30.473    498.784   1366.039    507.108    498.784    498.784
 97.870   1459.710   1429.832     29.878    498.464   1421.012    507.181    498.464    498.464
 97.970   1479.000   1471.626      7.374    498.142   1462.553    507.125    498.142    498.142
 98.070   1602.000   1496.803    105.197    497.820   1487.638    506.911    497.820    497.820
 98.170   1561.000   1503.592     57.408    497.498   1494.510    506.525    497.498    497.498
 98.270   1430.000   1491.868    -61.868    497.176   1483.043    505.966    497.176    497.176
 98.370   1423.000   1463.152    -40.152    496.853   1454.739    505.251    496.853    496.853
 98.470   1405.000   1420.230    -15.230    496.530   1412.355    504.407    496.530    496.530
 98.570   1353.000   1366.633    -13.633    496.207   1359.384    503.471    496.207    496.207
 98.670   1230.536   1306.074    -75.539    495.883   1299.506    502.477    495.883    495.883
 98.770   1227.000   1242.355    -15.355    495.560   1236.488    501.458    495.560    495.560
 98.870   1186.000   1178.773      7.227    495.236   1173.601    500.442    495.236    495.236
 98.970   1102.693   1118.270    -15.577    494.912   1113.764    499.452    494.912    494.912
 99.070   1046.000   1063.351    -17.351    494.587   1059.465    498.505    494.587    494.587
 99.170   1046.476   1016.094     30.382    494.263   1012.771    497.613    494.263    494.263
 99.270   1044.762    978.186     66.576    493.939    975.361    496.784    493.939    493.939
 99.370    946.000    950.964     -4.964    493.614    948.569    496.022    493.614    493.614
 99.470    888.000    935.440    -47.440    493.290    933.410    495.326    493.290    493.290
 99.570    923.000    932.331     -9.331    492.965    930.603    494.692    492.965    492.965
 99.670    981.769    942.069     39.700    492.641    940.585    494.116    492.641    492.641
 99.770   1001.000    964.814     36.186    492.316    963.523    493.591    492.316    492.316
 99.870   1000.000   1000.450     -0.450    491.992    999.311    493.111    491.992    491.992
 99.970   1099.000   1048.584     50.416    491.667   1047.559    492.668    491.667    491.667
100.070   1138.000   1108.511     29.489    491.343   1107.572    492.256    491.343    491.343
100.170   1162.172   1179.175    -17.003    491.019   1178.299    491.869    491.019    491.019
100.270   1237.249   1259.155    -21.905    490.695   1258.325    491.503    490.695    490.695
100.370   1440.000   1346.566     93.434    490.371   1345.769    491.152    490.371    490.371
100.470   1358.249   1439.047    -80.798    490.048   1438.274    490.813    490.048    490.048
100.570   1499.000   1533.764    -34.764    489.725   1533.009    490.485    489.725    489.725
100.670   1671.000   1627.505     43.495    489.402   1626.765    490.164    489.402    489.402
100.770   1727.476   1716.879     10.597    489.079   1716.150    489.849    489.079    489.079
100.870   1804.000   1798.630      5.370    488.757   1797.911    489.539    488.757    488.757
100.970   1867.991   1869.969     -1.978    488.435   1869.255    489.234    488.435    488.435
101.070   1949.348   1928.784     20.564    488.114   1928.073    488.933    488.114    488.114
101.170   1995.000   1973.643     21.357    487.793   1972.928    488.637    487.793    487.793
101.270   1986.000   2003.598    -17.598    487.472   2002.872    488.347    487.472    487.472
101.370   2054.000   2017.958     36.042    487.152   2017.212    488.064    487.152    487.152
101.470   1938.636   2016.203    -77.566    486.832   2015.429    487.787    486.832    486.832
101.570   1992.000   1998.136     -6.136    486.513   1997.325    487.516    486.513    486.513
101.670   1991.000   1964.220     26.780    486.195   1963.361    487.252    486.195    486.195
101.770   1851.374   1915.892    -64.518    485.877   1914.976    486.995    485.877    485.877
101.870   1930.950   1855.667     75.283    485.560   1854.686    486.742    485.560    485.560
101.970   1734.000   1786.918    -52.918    485.243   1785.864    486.493    485.243    485.243
102.070   1713.000   1713.428     -0.428    484.927   1712.297    486.245    484.927    484.927
102.170   1596.798   1638.894    -42.096    484.612   1637.686    485.996    484.612    484.612
102.270   1480.000   1566.544    -86.544    484.298   1565.261    485.744    484.298    484.298
102.370   1433.000   1498.906    -65.906    483.985   1497.556    485.485    483.985    483.985
102.470   1427.578   1437.723    -10.145    483.672   1436.316    485.216    483.672    483.672
102.570   1356.000   1383.944    -27.944    483.360   1382.493    484.936    483.360    483.360
102.670   1290.000   1337.768    -47.768    483.049   1336.288    484.642    483.049    483.049
102.770   1283.725   1298.701    -14.977    482.739   1297.209    484.336    482.739    482.739
102.870   1225.995   1265.645    -39.650    482.430   1264.155    484.016    482.430    482.430
102.970   1254.833   1236.995     17.838    482.122   1235.524    483.684    482.122    482.122
103.070   1206.000   1210.910     -4.910    481.815   1209.472    483.341    481.815    481.815
103.170   1229.000   1185.393     43.607    481.510   1184.002    482.986    481.510    481.510
103.270   1123.000   1158.660    -35.660    481.205   1157.329    482.620    481.205    481.205
103.370   1089.000   1129.394    -40.394    480.901   1128.133    482.246    480.901    480.901
103.470   1055.000   1096.890    -41.890    480.599   1095.708    481.865    480.599    480.599
103.570   1024.000   1061.078    -37.078    480.297   1059.981    481.478    480.297    480.297
103.670   1007.309   1022.413    -15.104    479.997   1021.404    481.089    479.997    479.997
103.770    923.840    981.692    -57.851    479.699    980.770    480.700    479.699    479.699
103.870    940.331    939.867      0.465    479.401    939.031    480.313    479.401    479.401
103.970    811.000    897.912    -86.912    479.105    897.157    479.931    479.105    479.105
104.070    816.688    856.734    -40.046    478.811    856.056    479.555    478.811    478.811
104.170    814.000    817.127     -3.127    478.517    816.519    479.186    478.517    478.517
104.270    796.000    779.750     16.250    478.226    779.205    478.825    478.226    478.226
104.370    727.000    745.113    -18.113    477.935    744.624    478.473    477.935    477.935
104.470    758.000    713.574     44.426    477.647    713.134    478.129    477.647    477.647
104.570    703.000    685.342     17.658    477.360    684.944    477.795    477.360    477.360
104.670    683.000    660.490     22.510    477.074    660.127    477.468    477.074    477.074
104.770    679.000    638.968     40.032    476.790    638.634    477.150    476.790    476.790
104.870    670.000    620.630     49.370    476.508    620.319    476.840    476.508    476.508
104.970    583.289    605.256    -21.967    476.228    604.964    476.537    476.228    476.228
105.070    643.000    592.580     50.420    475.949    592.303    476.240    475.949    475.949
105.170    534.604    582.316    -47.712    475.672    582.048    475.950    475.672    475.672
105.270    629.000    574.172     54.828    475.397    573.911    475.666    475.397    475.397
105.370    587.000    567.879     19.121    475.124    567.620    475.388    475.124    475.124
105.470    607.617    563.193     44.424    474.853    562.933    475.115    474.853    474.853
105.570    549.000    559.907    -10.907    474.584    559.644    474.847    474.584    474.584
105.670    544.000    557.859    -13.859    474.316    557.588    474.586    474.316    474.316
105.770    565.000    556.927      8.073    474.051    556.644    474.330    474.051    474.051
105.870    583.000    557.027     25.973    473.788    556.728    474.080    473.788    473.788
105.970    566.000    558.113      7.887    473.527    557.795    473.837    473.527    473.527
106.070    516.113    560.171    -44.058    473.268    559.828    473.601    473.268    473.268
106.170    567.473    563.207      4.267    473.012    562.833    473.372    473.012    473.012
106.270    575.000    567.245      7.755    472.758    566.835    473.152    472.758    472.758
106.370    558.000    572.321    -14.321    472.506    571.868    472.940    472.506    472.506
106.470    583.000    578.468      4.532    472.256    577.965    472.737    472.256    472.256
106.570    620.738    585.711     35.027    472.009    585.151    472.544    472.009    472.009
106.670    604.606    594.053     10.553    471.764    593.429    472.360    471.764    471.764
106.770    602.876    603.449     -0.573    471.522    602.754    472.184    471.522    471.522
106.870    612.000    613.870     -1.870    471.282    613.098    472.018    471.282    471.282
106.970    634.000    625.198      8.802    471.045    624.344    471.859    471.045    471.045
107.070    648.000    637.261     10.739    470.810    636.321    471.707    470.810    470.810
107.170    691.299    649.842     41.456    470.578    648.814    471.560    470.578    470.578
107.270    641.000    662.669    -21.669    470.349    661.553    471.415    470.349    470.349
107.370    630.136    675.420    -45.283    470.122    674.219    471.271    470.122    470.122
107.470    636.358    687.726    -51.368    469.898    686.447    471.124    469.898    469.898
107.570    698.000    699.191     -1.191    469.677    697.843    470.971    469.677    469.677
107.670    715.000    709.414      5.586    469.459    708.009    470.810    469.459    469.459
107.770    679.292    718.027    -38.735    469.244    716.582    470.636    469.244    469.244
107.870    690.000    724.750    -34.750    469.032    723.283    470.448    469.032    469.032
107.970    702.279    729.436    -27.157    468.823    727.966    470.245    468.823    468.823
108.070    685.283    732.109    -46.826    468.616    730.656    470.025    468.616    468.616
108.170    714.000    732.965    -18.965    468.413    731.547    469.791    468.413    468.413
108.270    686.000    732.345    -46.345    468.214    730.979    469.544    468.214    468.214
108.370    678.811    730.679    -51.868    468.017    729.377    469.286    468.017    468.017
108.470    777.000    728.424     48.576    467.824    727.198    469.022    467.824    467.824
108.570    708.000    726.015    -18.015    467.634    724.871    468.754    467.634    467.634
108.670    705.000    723.821    -18.821    467.447    722.763    468.485    467.447    467.447
108.770    778.126    722.125     56.001    467.263    721.154    468.219    467.263    467.263
108.870    708.000    721.105    -13.105    467.084    720.221    467.957    467.084    467.084
108.970    697.916    720.834    -22.918    466.907    720.032    467.701    466.907    466.907
109.070    701.467    721.273    -19.806    466.734    720.549    467.453    466.734    466.734
109.170    737.000    722.277     14.723    466.565    721.627    467.214    466.565    466.565
109.270    742.000    723.605     18.395    466.400    723.021    466.985    466.400    466.400
109.370    697.000    724.927    -27.927    466.238    724.404    466.766    466.238    466.238
109.470    740.493    725.858     14.635    466.080    725.388    466.556    466.080    466.080
109.570    763.000    725.984     37.016    465.925    725.562    466.357    465.925    465.925
109.670    718.708    724.914     -6.206    465.775    724.536    466.167    465.775    465.775
109.770    698.000    722.337    -24.337    465.628    721.995    465.986    465.628    465.628
109.870    706.000    718.053    -12.053    465.486    717.743    465.813    465.486    465.486
109.970    731.000    712.011     18.989    465.347    711.728    465.648    465.347    465.347
110.070    706.000    704.302      1.698    465.212    704.043    465.491    465.212    465.212
110.170    747.138    695.140     51.998    465.082    694.902    465.341    465.082    465.082
110.270    713.000    684.820     28.180    464.956    684.598    465.197    464.956    464.956
110.370    693.000    673.676     19.324    464.834    673.469    465.060    464.834    464.834
110.470    656.596    662.049     -5.453    464.716    661.855    464.929    464.716    464.716
110.570    602.844    650.267    -47.423    464.603    650.083    464.804    464.603    464.603
110.670    629.555    638.623     -9.068    464.494    638.448    464.684    464.494    464.494
110.770    648.656    627.376     21.280    464.389    627.208    464.571    464.389    464.389
110.870    607.045    616.740     -9.695    464.289    616.579    464.462    464.289    464.289
110.970    576.062    606.889    -30.827    464.193    606.732    464.360    464.193    464.193
111.070    639.000    597.951     41.049    464.102    597.798    464.263    464.102    464.102
111.170    604.000    590.013     13.987    464.016    589.864    464.171    464.016    464.016
111.270    621.000    583.124     37.876    463.934    582.978    464.085    463.934    463.934
111.370    610.000    577.298     32.702    463.858    577.153    464.005    463.858    463.858
111.470    521.318    572.517    -51.199    463.786    572.374    463.929    463.786    463.786
111.570    534.145    568.738    -34.593    463.719    568.596    463.859    463.719    463.719
111.670    537.000    565.899    -28.899    463.657    565.759    463.793    463.657    463.657
111.770    528.744    563.935    -35.191    463.599    563.795    463.735    463.599    463.599
111.870    526.556    562.755    -36.198    463.547    562.615    463.682    463.547    463.547
111.970    529.007    562.277    -33.271    463.500    562.137    463.634    463.500    463.500
112.070    607.179    562.428     44.751    463.459    562.286    463.592    463.459    463.459
112.170    557.325    563.121     -5.796    463.422    562.979    463.555    463.422    463.422
112.270    589.000    564.284     24.716    463.391    564.141    463.524    463.391    463.391
112.370    588.000    565.853     22.147    463.365    565.709    463.499    463.365    463.365
112.470    583.000    567.776     15.224    463.344    567.630    463.479    463.344    463.344
112.570    582.263    570.010     12.253    463.329    569.863    463.464    463.329    463.329
112.670    579.000    572.529      6.471    463.320    572.380    463.456    463.320    463.320
112.770    594.000    575.316     18.684    463.316    575.166    463.453    463.316    463.316
112.870    554.000    578.372    -24.372    463.318    578.221    463.455    463.318    463.318
112.970    560.000    581.712    -21.712    463.325    581.559    463.464    463.325    463.325
113.070    552.534    585.361    -32.827    463.339    585.207    463.479    463.339    463.339
113.170    618.346    589.363     28.983    463.358    589.206    463.500    463.358    463.358
113.270    583.075    593.775    -10.700    463.383    593.615    463.527    463.383    463.383
113.370    611.135    598.672     12.463    463.414    598.508    463.561    463.414    463.414
113.470    582.000    604.149    -22.149    463.451    603.981    463.602    463.451    463.451
113.570    645.298    610.330     34.968    463.494    610.157    463.649    463.494    463.494
113.670    582.979    617.372    -34.393    463.543    617.192    463.704    463.543    463.543
113.770    639.000    625.475     13.525    463.599    625.287    463.766    463.599    463.599
113.870    627.365    634.894     -7.529    463.660    634.696    463.836    463.660    463.660
113.970    595.000    645.952    -50.952    463.728    645.741    463.914    463.728    463.728
114.070    671.000    659.053     11.947    463.803    658.828    464.000    463.803    463.803
114.170    648.000    674.705    -26.705    463.884    674.461    464.095    463.884    463.884
114.270    677.000    693.532    -16.532    463.971    693.266    464.198    463.971    463.971
114.370    730.864    716.296     14.568    464.066    716.004    464.311    464.066    464.066
114.470    709.000    743.915    -34.915    464.166    743.594    464.433    464.166    464.166
114.570    757.000    777.482    -20.482    464.274    777.126    464.565    464.274    464.274
114.670    785.000    818.274    -33.274    464.388    817.877    464.707    464.388    464.388
114.770    832.175    867.760    -35.585    464.510    867.316    464.859    464.510    464.510
114.870    865.906    927.600    -61.694    464.638    927.104    465.022    464.638    464.638
114.970    981.000    999.632    -18.632    464.773    999.077    465.194    464.773    464.773
115.070   1134.000   1085.847     48.153    464.915   1085.225    465.378    464.915    464.915
115.170   1225.369   1188.341     37.027    465.065   1187.647    465.571    465.065    465.065
115.270   1303.000   1309.266     -6.266    465.221   1308.491    465.775    465.221    465.221
115.370   1416.082   1450.742    -34.660    465.385   1449.881    465.988    465.385    465.385
115.470   1679.145   1614.769     64.376    465.556   1613.816    466.211    465.556    465.556
115.570   1855.732   1803.112     52.620    465.735   1802.061    466.444    465.735    465.735
115.670   2160.000   2017.178    142.822    465.921   2016.026    466.685    465.921    465.921
115.770   2328.000   2257.886     70.114    466.115   2256.631    466.934    466.115    466.115
115.870   2535.000   2525.530      9.470    466.316   2524.171    467.190    466.316    466.316
115.970   2961.000   2819.652    141.348    466.525   2818.190    467.454    466.525    466.525
116.070   3143.000   3138.925      4.075    466.742   3137.364    467.724    466.742    466.742
116.170   3525.000   3481.057     43.943    466.967   3479.401    468.001    466.967    466.967
116.270   3905.000   3842.711     62.289    467.199   3840.968    468.282    467.199    467.199
116.370   4285.000   4219.465     65.535    467.440   4217.645    468.570    467.440    467.440
116.470   4526.756   4605.794    -79.039    467.688   4603.907    468.863    467.688    467.688
116.570   4951.000   4995.082    -44.082    467.945   4993.142    469.162    467.945    467.945
116.670   5521.729   5379.676    142.053    468.210   5377.696    469.468    468.210    468.210
116.770   5701.000   5750.981    -49.981    468.483   5748.975    469.782    468.483    468.483
116.870   6144.000   6099.625     44.375    468.765   6097.609    470.105    468.765    468.765
116.970   6524.425   6415.721    108.704    469.055   6413.710    470.436    469.055    469.055
117.070   6680.000   6689.268     -9.268    469.353   6687.277    470.778    469.353    469.353
117.170   7014.000   6910.712    103.288    469.660   6908.755    471.130    469.660    469.660
117.270   7051.000   7071.658    -20.658    469.976   7069.746    471.491    469.976    469.976
117.370   7029.000   7165.646   -136.646    470.300   7163.787    471.863    470.300    470.300
117.470   7180.000   7188.864     -8.864    470.634   7187.063    472.243    470.634    470.634
117.570   7157.000   7140.607     16.393    470.976   7138.864    472.632    470.976    470.976
117.670   6937.743   7023.356    -85.613    471.327   7021.669    473.028    471.327    471.327
117.770   6772.000   6842.435    -70.435    471.687   6840.798    473.430    471.687    471.687
117.870   6399.000   6605.559   -206.559    472.056   6603.965    473.835    472.056    472.056
117.970   6176.834   6321.762   -144.927    472.434   6320.205    474.243    472.434    472.434
118.070   5859.000   6000.834   -141.834    472.822   5999.308    474.651    472.822    472.822
118.170   5524.000   5652.654   -128.654    473.219   5651.156    475.058    473.219    473.219
118.270   5176.381   5286.716   -110.334    473.625   5285.243    475.463    473.625    473.625
118.370   4786.000   4911.812   -125.812    474.041   4910.365    475.865    474.041    474.041
118.470   4406.300   4535.838   -129.538    474.467   4534.418    476.264    474.467    474.467
118.570   4277.552   4165.668    111.884    474.902   4164.277    476.660    474.902    474.902
118.670   3955.000   3807.095    147.905    475.347   3805.735    477.056    475.347    475.347
118.770   3571.000   3464.810    106.190    475.801   3463.486    477.452    475.801    475.801
118.870   3056.877   3142.420    -85.543    476.266   3141.134    477.850    476.266    476.266
118.970   2929.000   2842.496     86.504    476.740   2841.251    478.253    476.740    476.740
119.070   2564.000   2566.657     -2.657    477.225   2565.454    478.662    477.225    477.225
119.170   2330.000   2315.670     14.330    477.720   2314.511    479.079    477.720    477.720
119.270   2010.000   2089.572    -79.572    478.225   2088.458    479.507    478.225    478.225
119.370   1852.000   1887.791    -35.791    478.740   1886.722    479.948    478.740    478.740
119.470   1623.955   1709.276    -85.321    479.266   1708.251    480.402    479.266    479.266
119.570   1470.046   1552.609    -82.563    479.802   1551.625    480.871    479.802    479.802
119.670   1382.000   1416.121    -34.121    480.348   1415.177    481.357    480.348    480.348
119.770   1351.972   1297.988     53.984    480.905   1297.080    481.860    480.905    480.905
119.870   1200.000   1196.324      3.676    481.473   1195.446    482.382    481.473    481.473
119.970   1156.000   1109.246     46.754    482.052   1108.394    482.923    482.052    482.052
120.070   1014.000   1034.946    -20.946    482.642   1034.114    483.483    482.642    482.642
120.170   1029.000    971.725     57.275    483.243    970.906    484.063    483.243    483.243
120.270    929.000    918.031     10.969    483.854    917.219    484.663    483.854    483.854
120.370    876.200    872.473      3.726    484.477    871.661    485.284    484.477    484.477
120.470    791.761    833.829    -42.067    485.111    833.007    485.924    485.111    485.111
120.570    812.169    801.038     11.131    485.757    800.201    486.585    485.757    485.757
120.670    712.831    773.201    -60.369    486.413    772.340    487.266    486.413    486.413
120.770    743.000    749.555     -6.555    487.082    748.663    487.966    487.082    487.082
120.870    772.883    729.469     43.414    487.761    728.537    488.687    487.761    487.761
120.970    717.000    712.419      4.581    488.453    711.440    489.427    488.453    488.453
121.070    651.752    697.975    -46.223    489.156    696.941    490.187    489.156    489.156
121.170    681.000    685.786     -4.786    489.871    684.689    490.966    489.871    489.871
121.270    675.000    675.566     -0.566    490.598    674.397    491.766    490.598    490.598
121.370    693.000    667.079     25.921    491.337    665.831    492.585    491.337    491.337
121.470    649.740    660.135    -10.395    492.088    658.800    493.425    492.088    492.088
121.570    631.049    654.574    -23.525    492.852    653.144    494.285    492.852    492.852
121.670    667.221    650.264     16.958    493.627    648.729    495.166    493.627    493.627
121.770    633.693    647.092    -13.399    494.415    645.445    496.068    494.415    494.415
121.870    682.000    644.960     37.040    495.216    643.191    496.993    495.216    495.216
121.970    618.000    643.782    -25.782    496.029    641.880    497.940    496.029    496.029
122.070    675.607    643.477     32.131    496.855    641.432    498.910    496.855    496.855
122.170    589.576    643.969    -54.392    497.693    641.770    499.904    497.693    497.693
122.270    612.000    645.183    -33.183    498.544    642.820    500.921    498.544    498.544
122.370    613.307    647.044    -33.737    499.408    644.506    501.963    499.408    499.408
122.470    628.000    649.473    -21.473    500.286    646.749    503.028    500.286    500.286
122.570    653.000    652.389      0.611    501.176    649.470    504.116    501.176    501.176
122.670    652.000    655.703     -3.703    502.079    652.580    505.226    502.079    502.079
122.770    708.000    659.323     48.677    502.996    655.990    506.356    502.996    502.996
122.870    666.000    663.147      2.853    503.926    659.599    507.504    503.926    503.926
122.970    636.000    667.069    -31.069    504.870    663.304    508.667    504.870    504.870
123.070    648.000    670.977    -22.977    505.827    666.996    509.843    505.827    505.827
123.170    671.271    674.751     -3.480    506.798    670.559    511.028    506.798    506.798
123.270    702.000    678.272     23.728    507.783    673.876    512.219    507.783    507.783
123.370    731.589    681.419     50.171    508.782    676.832    513.412    508.782    508.782
123.470    664.000    684.076    -20.076    509.794    679.314    514.602    509.794    509.794
123.570    727.688    686.141     41.548    510.821    681.223    515.786    510.821    510.821
123.670    734.530    687.525     47.005    511.862    682.475    516.961    511.862    511.862
123.770    657.000    688.165    -31.165    512.917    683.010    518.123    512.917    512.917
123.870    725.512    688.025     37.487    513.986    682.794    519.270    513.986    513.986
123.970    622.000    687.097    -65.097    515.070    681.819    520.401    515.070    515.070
124.070    648.000    685.401    -37.401    516.169    680.108    521.515    516.169    516.169
124.170    720.000    682.980     37.020    517.282    677.704    522.611    517.282    517.282
124.270    675.000    679.900     -4.900    518.410    674.670    523.692    518.410    518.410
124.370    670.000    676.235     -6.235    519.552    671.083    524.757    519.552    519.552
124.470    687.000    672.072     14.928    520.710    667.024    525.808    520.710    520.710
124.570    693.000    667.498     25.502    521.883    662.581    526.848    521.883    521.883
124.670    707.000    662.603     44.397    523.071    657.842    527.878    523.071    523.071
124.770    674.000    657.473     16.527    524.274    652.889    528.901    524.274    524.274
124.870    690.000    652.176     37.824    525.493    647.789    529.921    525.493    525.493
124.970    632.000    646.809    -14.809    526.727    642.633    530.941    526.727    526.727
