neutron_powder_diffraction_0105
R_wp: 3.948
Temperature (K): 913.583
Counts: 83441.00
Wavelength (Ã…): 2.52098
COMMENTS
Test file for demonstrating the .xyy file format in Reel1.0
END OF HEADER
   tth       Y_obs     Y_calc      Y_res    Background    Phase_1_Nuc    Phase_1_Mag    Phase_2_Nuc    Phase_2_Mag
  9.970    602.000    548.859     53.141    547.663    548.658    547.663    547.863    547.663
 10.070    619.000    549.443     69.557    548.162    549.242    548.162    548.363    548.162
 10.170    562.478    550.029     12.450    548.650    549.826    548.650    548.852    548.650
 10.270    646.000    550.618     95.382    549.127    550.415    549.127    549.330    549.127
 10.370    594.000    551.214     42.786    549.594    551.010    549.594    549.798    549.594
 10.470    572.476    551.822     20.655    550.051    551.617    550.051    550.255    550.051
 10.570    601.000    552.446     48.554    550.497    552.240    550.497    550.702    550.497
 10.670    542.000    553.097    -11.097    550.932    552.890    550.932    551.138    550.932
 10.770    611.000    553.777     57.223    551.358    553.569    551.358    551.565    551.358
 10.870    606.000    554.500     51.500    551.773    554.291    551.773    551.981    551.773
 10.970    557.000    555.285      1.715    552.178    555.074    552.178    552.387    552.178
 11.070    607.000    556.153     50.847    552.573    555.942    552.573    552.783    552.573
 11.170    519.722    557.140    -37.418    552.959    556.928    552.959    553.169    552.959
 11.270    583.087    558.300     24.788    553.334    558.086    553.334    553.545    553.334
 11.370    557.000    559.725     -2.725    553.700    559.510    553.700    553.912    553.700
 11.470    569.264    561.617      7.648    554.055    561.400    554.055    554.269    554.055
 11.570    574.000    564.446      9.554    554.402    564.227    554.402    554.616    554.402
 11.670    612.000    569.276     42.724    554.739    569.053    554.739    554.954    554.739
 11.770    593.000    578.104     14.896    555.066    577.876    555.066    555.282    555.066
 11.870    546.539    593.689    -47.150    555.384    593.451    555.384    555.601    555.384
 11.970    655.786    618.038     37.748    555.693    617.786    555.693    555.911    555.693
 12.070    673.000    649.216     23.784    555.992    648.947    555.992    556.211    555.992
 12.170    722.000    677.491     44.509    556.283    677.205    556.283    556.503    556.283
 12.270    669.000    686.636    -17.636    556.564    686.344    556.564    556.785    556.564
 12.370    683.520    669.396     14.124    556.837    669.113    556.837    557.058    556.837
 12.470    628.107    638.542    -10.435    557.100    638.275    557.100    557.323    557.100
 12.570    627.000    609.586     17.414    557.355    609.334    557.355    557.579    557.355
 12.670    581.000    589.073     -8.073    557.601    588.831    557.601    557.826    557.601
 12.770    576.631    576.929     -0.299    557.838    576.693    557.838    558.064    557.838
 12.870    535.495    570.516    -35.021    558.067    570.282    558.067    558.294    558.067
 12.970    604.000    567.226     36.774    558.288    566.993    558.288    558.515    558.288
 13.070    541.000    565.425    -24.425    558.499    565.192    558.499    558.728    558.499
 13.170    523.613    564.322    -40.709    558.703    564.090    558.703    558.933    558.703
 13.270    529.263    563.589    -34.325    558.898    563.356    558.898    559.129    558.898
 13.370    533.000    563.076    -30.076    559.085    562.842    559.085    559.318    559.085
 13.470    533.000    562.712    -29.712    559.264    562.477    559.264    559.498    559.264
 13.570    542.000    562.454    -20.454    559.435    562.218    559.435    559.670    559.435
 13.670    597.014    562.273     34.741    559.598    562.036    559.598    559.834    559.598
 13.770    559.000    562.147     -3.147    559.753    561.910    559.753    559.990    559.753
 13.870    524.140    562.063    -37.923    559.901    561.825    559.901    560.138    559.901
 13.970    531.495    562.010    -30.515    560.040    561.770    560.040    560.279    560.040
 14.070    569.000    561.980      7.020    560.172    561.739    560.172    560.412    560.172
 14.170    552.000    561.967     -9.967    560.296    561.725    560.296    560.537    560.296
 14.270    550.948    561.966    -11.018    560.413    561.723    560.413    560.655    560.413
 14.370    537.959    561.974    -24.015    560.522    561.730    560.522    560.766    560.522
 14.470    593.602    561.989     31.614    560.624    561.743    560.624    560.869    560.624
 14.570    528.000    562.007    -34.007    560.718    561.761    560.718    560.964    560.718
 14.670    535.000    562.028    -27.028    560.805    561.780    560.805    561.053    560.805
 14.770    552.000    562.050    -10.050    560.885    561.801    560.885    561.134    560.885
 14.870    561.516    562.072     -0.555    560.958    561.821    560.958    561.208    560.958
 14.970    515.000    562.092    -47.092    561.024    561.840    561.024    561.276    561.024
 15.070    521.056    562.111    -41.055    561.083    561.858    561.083    561.336    561.083
 15.170    521.000    562.127    -41.127    561.135    561.873    561.135    561.389    561.135
 15.270    586.021    562.140     23.881    561.180    561.885    561.180    561.436    561.180
 15.370    524.666    562.151    -37.485    561.219    561.894    561.219    561.475    561.219
 15.470    527.000    562.159    -35.159    561.250    561.900    561.250    561.509    561.250
 15.570    528.174    562.161    -33.987    561.275    561.901    561.275    561.535    561.275
 15.670    595.256    562.160     33.095    561.294    561.899    561.294    561.555    561.294
 15.770    487.000    562.166    -75.166    561.306    561.903    561.306    561.568    561.306
 15.870    569.000    562.171      6.829    561.311    561.907    561.311    561.575    561.311
 15.970    543.048    562.157    -19.109    561.311    561.892    561.311    561.576    561.311
 16.070    530.000    562.137    -32.137    561.304    561.870    561.304    561.571    561.304
 16.170    592.000    562.113     29.887    561.290    561.844    561.290    561.559    561.290
 16.270    534.000    562.085    -28.085    561.271    561.814    561.271    561.541    561.271
 16.370    541.000    562.076    -21.076    561.245    561.804    561.245    561.517    561.245
 16.470    563.506    562.135      1.371    561.214    561.861    561.214    561.487    561.214
 16.570    579.319    562.100     17.219    561.176    561.825    561.176    561.451    561.176
 16.670    538.000    562.051    -24.051    561.132    561.775    561.132    561.409    561.132
 16.770    553.000    562.002     -9.002    561.083    561.723    561.083    561.361    561.083
 16.870    589.022    561.943     27.079    561.028    561.663    561.028    561.308    561.028
 16.970    546.000    561.879    -15.879    560.967    561.597    560.967    561.249    560.967
 17.070    585.322    561.810     23.512    560.901    561.526    560.901    561.184    560.901
 17.170    556.000    561.736     -5.736    560.829    561.451    560.829    561.114    560.829
 17.270    548.000    561.657    -13.657    560.751    561.370    560.751    561.038    560.751
 17.370    600.265    561.573     38.691    560.668    561.284    560.668    560.957    560.668
 17.470    545.000    561.485    -16.485    560.579    561.194    560.579    560.870    560.579
 17.570    541.000    561.391    -20.391    560.485    561.099    560.485    560.778    560.485
 17.670    551.000    561.293    -10.293    560.386    560.999    560.386    560.681    560.386
 17.770    585.593    561.190     24.403    560.282    560.894    560.282    560.578    560.282
 17.870    511.000    561.083    -50.083    560.172    560.784    560.172    560.471    560.172
 17.970    538.000    560.971    -22.971    560.058    560.670    560.058    560.358    560.058
 18.070    593.000    560.854     32.146    559.938    560.551    559.938    560.241    559.938
 18.170    600.000    560.733     39.267    559.814    560.428    559.814    560.118    559.814
 18.270    575.000    560.607     14.393    559.684    560.301    559.684    559.991    559.684
 18.370    559.934    560.483     -0.549    559.549    560.174    559.549    559.858    559.549
 18.470    520.000    560.350    -40.350    559.410    560.039    559.410    559.721    559.410
 18.570    558.000    560.211     -2.211    559.266    559.898    559.266    559.580    559.266
 18.670    590.745    560.068     30.676    559.118    559.753    559.118    559.433    559.118
 18.770    576.000    559.928     16.072    558.964    559.611    558.964    559.282    558.964
 18.870    528.000    559.830    -31.830    558.806    559.510    558.806    559.127    558.806
 18.970    557.000    559.696     -2.696    558.644    559.373    558.644    558.967    558.644
 19.070    545.000    559.539    -14.539    558.477    559.214    558.477    558.802    558.477
 19.170    564.000    559.376      4.624    558.306    559.048    558.306    558.633    558.306
 19.270    538.000    559.209    -21.209    558.130    558.879    558.130    558.460    558.130
 19.370    576.000    559.038     16.962    557.950    558.706    557.950    558.283    557.950
 19.470    549.000    558.864     -9.864    557.766    558.529    557.766    558.102    557.766
 19.570    551.000    558.686     -7.686    557.578    558.348    557.578    557.916    557.578
 19.670    526.000    558.505    -32.505    557.385    558.164    557.385    557.726    557.385
 19.770    560.000    558.320      1.680    557.189    557.976    557.189    557.532    557.189
 19.870    568.000    558.131      9.869    556.988    557.785    556.988    557.335    556.988
 19.970    558.000    557.940      0.060    556.783    557.590    556.783    557.133    556.783
 20.070    551.000    557.745     -6.745    556.575    557.392    556.575    556.928    556.575
 20.170    501.000    557.546    -56.546    556.363    557.191    556.363    556.719    556.363
 20.270    530.000    557.345    -27.345    556.147    556.986    556.147    556.506    556.147
 20.370    564.889    557.145      7.744    555.927    556.783    555.927    556.289    555.927
 20.470    537.000    556.980    -19.980    555.703    556.614    555.703    556.069    555.703
 20.570    520.000    556.800    -36.800    555.476    556.431    555.476    555.845    555.476
 20.670    571.000    556.595     14.405    555.245    556.223    555.245    555.617    555.245
 20.770    548.326    556.382     -8.056    555.011    556.006    555.011    555.387    555.011
 20.870    531.000    556.179    -25.179    554.773    555.800    554.773    555.152    554.773
 20.970    543.000    555.972    -12.972    554.531    555.589    554.531    554.915    554.531
 21.070    544.000    555.752    -11.752    554.287    555.365    554.287    554.674    554.287
 21.170    561.000    555.530      5.470    554.039    555.139    554.039    554.430    554.039
 21.270    536.000    555.306    -19.306    553.787    554.911    553.787    554.183    553.787
 21.370    577.000    555.080     21.920    553.533    554.680    553.533    553.932    553.533
 21.470    513.000    554.852    -41.852    553.275    554.448    553.275    553.679    553.275
 21.570    495.000    554.622    -59.622    553.014    554.215    553.014    553.422    553.014
 21.670    548.000    554.394     -6.394    552.750    553.981    552.750    553.163    552.750
 21.770    549.840    554.180     -4.340    552.483    553.763    552.483    552.900    552.483
 21.870    555.330    553.961      1.369    552.213    553.539    552.213    552.635    552.213
 21.970    548.000    553.737     -5.737    551.940    553.310    551.940    552.367    551.940
 22.070    525.000    553.529    -28.529    551.664    553.097    551.664    552.096    551.664
 22.170    547.692    553.326     -5.633    551.385    552.889    551.385    551.823    551.385
 22.270    531.213    553.141    -21.928    551.104    552.698    551.104    551.547    551.104
 22.370    533.000    552.920    -19.920    550.820    552.472    550.820    551.268    550.820
 22.470    550.000    552.699     -2.699    550.533    552.245    550.533    550.987    550.533
 22.570    539.000    552.490    -13.490    550.243    552.030    550.243    550.703    550.243
 22.670    514.063    552.296    -38.233    549.951    551.830    549.951    550.417    549.951
 22.770    548.000    552.132     -4.132    549.656    551.660    549.656    550.129    549.656
 22.870    528.243    551.951    -23.707    549.358    551.472    549.358    549.838    549.358
 22.970    551.000    551.768     -0.768    549.059    551.283    549.059    549.545    549.059
 23.070    572.000    551.595     20.405    548.756    551.103    548.756    549.250    548.756
 23.170    590.000    551.440     38.560    548.452    550.940    548.452    548.952    548.452
 23.270    578.223    551.312     26.911    548.145    550.804    548.145    548.653    548.145
 23.370    546.000    551.220     -5.220    547.835    550.704    547.835    548.352    547.835
 23.470    530.105    551.150    -21.046    547.524    550.627    547.524    548.048    547.524
 23.570    558.000    551.128      6.872    547.210    550.596    547.210    547.743    547.210
 23.670    564.000    551.171     12.829    546.894    550.630    546.894    547.436    546.894
 23.770    549.000    551.296     -2.296    546.576    550.747    546.576    547.128    546.576
 23.870    585.858    551.544     34.314    546.256    550.984    546.256    546.817    546.256
 23.970    536.000    551.976    -15.976    545.933    551.407    545.933    546.505    545.933
 24.070    561.130    552.718      8.412    545.609    552.139    545.609    546.191    545.609
 24.170    566.579    554.075     12.504    545.283    553.487    545.283    545.876    545.283
 24.270    579.250    556.730     22.520    544.955    556.132    544.955    545.560    544.955
 24.370    530.697    561.958    -31.261    544.625    561.352    544.625    545.242    544.625
 24.470    555.419    571.536    -16.118    544.293    570.924    544.293    544.923    544.293
 24.570    609.000    586.839     22.161    543.960    586.225    543.960    544.603    543.960
 24.670    644.000    606.927     37.073    543.624    606.313    543.624    544.282    543.624
 24.770    650.195    626.058     24.137    543.287    625.444    543.287    543.960    543.287
 24.870    676.000    633.537     42.463    542.948    632.913    542.948    543.636    542.948
 24.970    649.000    623.218     25.782    542.608    622.571    542.608    543.313    542.608
 25.070    616.000    602.675     13.325    542.266    601.996    542.266    542.988    542.266
 25.170    579.000    582.453     -3.453    541.923    581.741    541.923    542.663    541.923
 25.270    561.000    567.480     -6.480    541.578    566.737    541.578    542.337    541.578
 25.370    559.223    558.158      1.065    541.231    557.388    541.231    542.011    541.231
 25.470    535.761    552.931    -17.170    540.883    552.135    540.883    541.685    540.883
 25.570    564.000    550.047     13.953    540.534    549.227    540.534    541.359    540.534
 25.670    589.000    548.323     40.677    540.183    547.477    540.183    541.033    540.183
 25.770    563.000    547.155     15.845    539.832    546.282    539.832    540.707    539.832
 25.870    584.000    546.281     37.719    539.478    545.380    539.478    540.382    539.478
 25.970    591.000    545.591     45.409    539.124    544.659    539.124    540.057    539.124
 26.070    545.184    545.030      0.153    538.768    544.066    538.768    539.734    538.768
 26.170    565.000    544.571     20.429    538.411    543.573    538.411    539.411    538.411
 26.270    568.000    544.196     23.804    538.053    543.161    538.053    539.090    538.053
 26.370    540.000    543.895     -3.895    537.694    542.820    537.694    538.770    537.694
 26.470    549.000    543.662      5.338    537.334    542.545    537.334    538.453    537.334
 26.570    564.000    543.497     20.503    536.973    542.333    536.973    538.137    536.973
 26.670    526.462    543.402    -16.940    536.611    542.188    536.611    537.825    536.611
 26.770    499.817    543.386    -43.568    536.248    542.118    536.248    537.516    536.248
 26.870    516.170    543.459    -27.289    535.884    542.133    535.884    537.210    535.884
 26.970    519.365    543.641    -24.276    535.519    542.251    535.519    536.909    535.519
 27.070    512.205    543.957    -31.752    535.153    542.497    535.153    536.613    535.153
 27.170    585.000    544.445     40.555    534.787    542.908    534.787    536.323    534.787
 27.270    544.000    545.159     -1.159    534.419    543.539    534.419    536.039    534.419
 27.370    559.000    546.187     12.813    534.051    544.475    534.051    535.763    534.051
 27.470    591.000    547.683     43.317    533.682    545.870    533.682    535.495    533.682
 27.570    538.656    550.038    -11.382    533.313    548.112    533.313    535.236    533.313
 27.670    556.804    554.472      2.332    532.943    552.422    532.943    534.989    532.943
 27.770    569.000    564.653      4.347    532.572    562.464    532.572    534.754    532.572
 27.870    605.000    589.124     15.876    532.201    586.776    532.201    534.533    532.201
 27.970    610.000    641.035    -31.035    531.829    638.504    531.829    534.327    531.829
 28.070    751.000    728.644     22.356    531.457    725.905    531.457    534.138    531.457
 28.170    790.000    836.579    -46.579    531.084    833.616    531.084    533.969    531.084
 28.270    914.000    915.378     -1.378    530.711    912.188    530.711    533.821    530.711
 28.370    952.000    913.729     38.271    530.337    910.315    530.337    533.695    530.337
 28.470    848.390    839.920      8.470    529.963    836.260    529.963    533.593    529.963
 28.570    723.026    755.147    -32.121    529.588    751.204    529.588    533.517    529.588
 28.670    748.000    712.261     35.739    529.214    707.996    529.214    533.467    529.214
 28.770    689.000    725.355    -36.355    528.839    720.736    528.839    533.441    528.839
 28.870    816.000    773.243     42.757    528.463    768.252    528.463    533.438    528.463
 28.970    829.147    812.436     16.711    528.088    807.064    528.088    533.452    528.088
 29.070    811.707    803.956      7.751    527.712    798.198    527.712    533.475    527.712
 29.170    696.000    748.287    -52.287    527.336    742.140    527.336    533.497    527.336
 29.270    728.000    677.605     50.395    526.960    671.079    526.960    533.501    526.960
 29.370    653.599    619.498     34.101    526.584    612.622    526.584    533.470    526.584
 29.470    573.343    582.673     -9.330    526.207    575.503    526.207    533.384    526.207
 29.570    531.007    563.207    -32.200    525.831    555.819    525.831    533.222    525.831
 29.670    588.000    553.813     34.187    525.455    546.300    525.455    532.969    525.455
 29.770    504.000    549.068    -45.068    525.078    541.532    525.078    532.615    525.078
 29.870    567.093    546.234     20.860    524.702    538.778    524.702    532.158    524.702
 29.970    573.000    544.239     28.761    524.326    536.959    524.326    531.605    524.326
 30.070    545.000    542.728      2.272    523.950    535.707    523.950    530.970    523.950
 30.170    558.000    541.620     16.380    523.573    534.920    523.573    530.273    523.573
 30.270    586.000    541.007     44.993    523.197    534.671    523.197    529.532    523.197
 30.370    582.000    541.247     40.753    522.822    535.298    522.822    528.768    522.822
 30.470    549.000    543.151      5.849    522.446    537.595    522.446    527.997    522.446
 30.570    556.000    548.081      7.919    522.071    542.910    522.071    527.232    522.071
 30.670    552.000    557.521     -5.521    521.695    552.717    521.695    526.483    521.695
 30.770    585.000    571.809     13.191    521.321    567.348    521.321    525.754    521.321
 30.870    550.096    588.268    -38.173    520.946    584.127    520.946    525.050    520.946
 30.970    619.000    600.111     18.889    520.572    596.266    520.572    524.373    520.572
 31.070    582.000    599.895    -17.895    520.198    596.330    520.198    523.722    520.198
 31.170    586.000    587.233     -1.233    519.824    583.930    519.824    523.096    519.824
 31.270    565.000    569.329     -4.329    519.451    566.265    519.451    522.494    519.451
 31.370    596.907    553.245     43.661    519.078    550.396    519.078    521.915    519.078
 31.470    569.000    541.926     27.074    518.706    539.268    518.706    521.357    518.706
 31.570    556.000    535.166     20.834    518.334    532.679    518.334    520.818    518.334
 31.670    528.742    531.494     -2.752    517.963    529.159    517.963    520.295    517.963
 31.770    498.000    529.501    -31.501    517.592    527.302    517.592    519.789    517.592
 31.870    498.387    528.317    -29.930    517.222    526.241    517.222    519.296    517.222
 31.970    495.526    527.531    -32.005    516.852    525.566    516.852    518.816    516.852
 32.070    486.292    526.980    -40.688    516.483    525.115    516.483    518.347    516.483
 32.170    528.000    526.604      1.396    516.114    524.828    516.114    517.889    516.114
 32.270    482.449    526.380    -43.931    515.746    524.686    515.746    517.440    515.746
 32.370    583.000    526.305     56.695    515.379    524.684    515.379    516.999    515.379
 32.470    497.522    526.384    -28.863    515.012    524.831    515.012    516.565    515.012
 32.570    567.000    526.636     40.364    514.646    525.143    514.646    516.139    514.646
 32.670    554.000    527.088     26.912    514.281    525.650    514.281    515.718    514.281
 32.770    535.144    527.783      7.361    513.917    526.396    513.917    515.303    513.917
 32.870    513.189    528.784    -15.595    513.553    527.443    513.553    514.894    513.553
 32.970    533.000    530.184      2.816    513.190    528.884    513.190    514.489    513.190
 33.070    534.000    532.128      1.872    512.828    530.866    512.828    514.088    512.828
 33.170    503.000    534.879    -31.879    512.467    533.652    512.467    513.692    512.467
 33.270    515.626    539.000    -23.373    512.106    537.805    512.106    513.299    512.106
 33.370    580.736    545.799     34.937    511.747    544.633    511.747    512.910    511.747
 33.470    599.573    558.189     41.384    511.388    557.048    511.388    512.524    511.388
 33.570    596.915    581.717     15.198    511.030    580.597    511.030    512.141    511.030
 33.670    623.000    624.653     -1.653    510.673    623.549    510.673    511.761    510.673
 33.770    746.551    695.205     51.346    510.317    694.112    510.317    511.384    510.317
 33.870    751.000    794.684    -43.684    509.962    793.602    509.962    511.009    509.962
 33.970    937.000    907.892     29.108    509.608    906.824    509.608    510.637    509.608
 34.070    955.279    996.588    -41.309    509.255    995.544    509.255    510.268    509.255
 34.170    990.000   1013.884    -23.884    508.903   1012.873    508.903    509.901    508.903
 34.270    912.325    947.602    -35.277    508.552    946.621    508.552    509.536    508.552
 34.370    788.967    836.600    -47.633    508.202    835.638    508.202    509.173    508.202
 34.470    713.000    727.485    -14.485    507.854    726.535    507.854    508.812    507.854
 34.570    593.000    644.310    -51.310    507.506    643.368    507.506    508.454    507.506
 34.670    568.000    590.816    -22.816    507.159    589.881    507.159    508.097    507.159
 34.770    557.000    560.292     -3.292    506.814    559.365    506.814    507.743    506.814
 34.870    547.000    543.827      3.173    506.469    542.907    506.469    507.390    506.469
 34.970    561.866    534.668     27.198    506.126    533.755    506.126    507.040    506.126
 35.070    502.000    529.000    -27.000    505.784    528.094    505.784    506.691    505.784
 35.170    513.000    525.043    -12.043    505.443    524.143    505.443    506.344    505.443
 35.270    518.000    522.035     -4.035    505.104    521.140    505.104    505.999    505.104
 35.370    540.000    519.636     20.364    504.765    518.746    504.765    505.655    504.765
 35.470    532.000    517.669     14.331    504.428    516.783    504.428    505.314    504.428
 35.570    502.000    516.021    -14.021    504.092    515.139    504.092    504.974    504.092
 35.670    544.127    514.619     29.508    503.758    513.740    503.758    504.636    503.758
 35.770    540.000    513.406     26.594    503.424    512.530    503.424    504.300    503.424
 35.870    525.000    512.345     12.655    503.092    511.472    503.092    503.966    503.092
 35.970    470.000    511.406    -41.406    502.762    510.534    502.762    503.633    502.762
 36.070    502.360    510.566     -8.206    502.432    509.696    502.432    503.302    502.432
 36.170    554.000    509.810     44.190    502.104    508.941    502.104    502.973    502.104
 36.270    550.000    509.125     40.875    501.777    508.257    501.777    502.646    501.777
 36.370    491.000    508.501    -17.501    501.452    507.634    501.452    502.320    501.452
 36.470    473.245    507.934    -34.689    501.128    507.066    501.128    501.996    501.128
 36.570    506.605    507.418     -0.812    500.806    506.549    500.806    501.674    500.806
 36.670    529.000    506.952     22.048    500.485    506.083    500.485    501.354    500.485
 36.770    510.000    506.541      3.459    500.165    505.671    500.165    501.035    500.165
 36.870    515.000    506.197      8.803    499.847    505.326    499.847    500.718    499.847
 36.970    474.000    505.950    -31.950    499.530    505.078    499.530    500.403    499.530
 37.070    492.000    505.873    -13.873    499.215    504.999    499.215    500.090    499.215
 37.170    512.000    506.100      5.900    498.901    505.224    498.901    499.779    498.901
 37.270    461.000    506.838    -45.838    498.589    505.959    498.589    499.469    498.589
 37.370    503.000    508.316     -5.316    498.278    507.434    498.278    499.161    498.278
 37.470    475.000    510.659    -35.659    497.969    509.775    497.969    498.855    497.969
 37.570    497.000    513.682    -16.682    497.661    512.796    497.661    498.550    497.661
 37.670    504.000    516.660    -12.660    497.355    515.772    497.355    498.248    497.355
 37.770    530.000    518.320     11.680    497.050    517.430    497.050    497.947    497.050
 37.870    518.000    517.705      0.295    496.747    516.812    496.747    497.648    496.747
 37.970    525.000    515.193      9.807    496.446    514.297    496.446    497.351    496.446
 38.070    483.133    511.894    -28.761    496.146    510.994    496.146    497.056    496.146
 38.170    480.000    508.637    -28.637    495.847    507.732    495.847    496.763    495.847
 38.270    523.000    505.825     17.175    495.551    504.914    495.551    496.471    495.551
 38.370    513.265    503.620      9.645    495.256    502.701    495.256    496.182    495.256
 38.470    493.000    502.012     -9.012    494.962    501.085    494.962    495.894    494.962
 38.570    501.612    500.873      0.740    494.671    499.938    494.671    495.609    494.671
 38.670    497.000    500.057     -3.057    494.380    499.115    494.380    495.325    494.380
 38.770    502.212    499.449      2.763    494.092    498.499    494.092    495.043    494.092
 38.870    477.518    498.965    -21.446    493.805    498.008    493.805    494.763    493.805
 38.970    448.000    498.554    -50.554    493.520    497.591    493.520    494.485    493.520
 39.070    503.000    498.189      4.811    493.237    497.218    493.237    494.209    493.237
 39.170    506.000    497.853      8.147    492.955    496.874    492.955    493.935    492.955
 39.270    488.000    497.539     -9.539    492.675    496.552    492.675    493.663    492.675
 39.370    491.837    497.243     -5.406    492.397    496.247    492.397    493.393    492.397
 39.470    521.164    496.961     24.203    492.120    495.957    492.120    493.125    492.120
 39.570    462.000    496.692    -34.692    491.845    495.680    491.845    492.859    491.845
 39.670    471.656    496.436    -24.780    491.572    495.414    491.572    492.595    491.572
 39.770    477.000    496.191    -19.191    491.301    495.160    491.301    492.333    491.301
 39.870    482.000    495.958    -13.958    491.031    494.917    491.031    492.073    491.031
 39.970    493.662    495.736     -2.074    490.764    494.685    490.764    491.815    490.764
 40.070    526.000    495.525     30.475    490.498    494.463    490.498    491.560    490.498
 40.170    522.000    495.325     26.675    490.233    494.254    490.233    491.306    490.233
 40.270    469.087    495.139    -26.052    489.971    494.056    489.971    491.055    489.971
 40.370    534.200    494.965     39.235    489.710    493.871    489.710    490.806    489.710
 40.470    504.000    494.806      9.194    489.452    493.700    489.452    490.558    489.452
 40.570    489.000    494.664     -5.664    489.195    493.545    489.195    490.314    489.195
 40.670    505.389    494.539     10.850    488.939    493.408    488.939    490.071    488.939
 40.770    468.000    494.435    -26.435    488.686    493.292    488.686    489.831    488.686
 40.870    526.059    494.355     31.704    488.434    493.199    488.434    489.592    488.434
 40.970    493.773    494.304     -0.531    488.185    493.133    488.185    489.356    488.185
 41.070    492.000    494.285     -2.285    487.937    493.101    487.937    489.123    487.937
 41.170    490.000    494.308     -4.308    487.691    493.109    487.691    488.892    487.691
 41.270    490.754    494.380     -3.626    487.447    493.166    487.447    488.663    487.447
 41.370    480.000    494.514    -14.514    487.205    493.285    487.205    488.436    487.205
 41.470    486.000    494.728     -8.728    486.964    493.483    486.964    488.212    486.964
 41.570    480.310    495.048    -14.738    486.726    493.786    486.726    487.990    486.726
 41.670    492.000    495.517     -3.517    486.489    494.238    486.489    487.770    486.489
 41.770    524.000    496.221     27.779    486.254    494.925    486.254    487.553    486.254
 41.870    519.000    497.340     21.660    486.021    496.027    486.021    487.339    486.021
 41.970    519.127    499.248     19.878    485.790    497.917    485.790    487.127    485.790
 42.070    558.000    502.646     55.354    485.561    501.297    485.561    486.917    485.561
 42.170    532.000    508.656     23.344    485.334    507.289    485.334    486.710    485.334
 42.270    518.529    518.695     -0.167    485.109    517.313    485.109    486.506    485.109
 42.370    558.879    533.972     24.907    484.886    532.575    484.886    486.304    484.886
 42.470    564.000    554.550      9.450    484.664    553.142    484.664    486.105    484.664
 42.570    562.000    578.195    -16.195    484.445    576.776    484.445    485.909    484.445
 42.670    617.000    599.314     17.686    484.227    597.884    484.227    485.716    484.227
 42.770    553.000    609.660    -56.660    484.011    608.212    484.011    485.525    484.011
 42.870    561.159    603.884    -42.725    483.798    602.410    483.798    485.337    483.798
 42.970    563.540    585.110    -21.570    483.586    583.601    483.586    485.152    483.586
 43.070    541.218    561.337    -20.118    483.376    559.787    483.376    484.970    483.376
 43.170    507.000    539.158    -32.158    483.168    537.567    483.168    484.791    483.168
 43.270    496.000    521.815    -25.815    482.962    520.184    482.962    484.615    482.962
 43.370    524.000    509.877     14.123    482.758    508.207    482.758    484.443    482.758
 43.470    509.000    502.408      6.592    482.556    500.700    482.556    484.273    482.556
 43.570    472.000    497.994    -25.994    482.356    496.249    482.356    484.107    482.356
 43.670    470.618    495.398    -24.781    482.157    493.617    482.157    483.944    482.157
 43.770    468.000    493.789    -25.789    481.961    491.969    481.961    483.784    481.961
 43.870    477.488    492.698    -15.209    481.767    490.839    481.767    483.628    481.767
 43.970    490.000    491.893     -1.893    481.574    489.994    481.574    483.476    481.574
 44.070    507.000    491.265     15.735    481.384    489.324    481.384    483.328    481.384
 44.170    518.000    490.759     27.241    481.196    488.774    481.196    483.183    481.196
 44.270    494.748    490.344      4.404    481.009    488.313    481.009    483.042    481.009
 44.370    482.000    490.001     -8.001    480.825    487.922    480.825    482.905    480.825
 44.470    484.000    489.716     -5.716    480.642    487.587    480.642    482.773    480.642
 44.570    485.000    489.481     -4.481    480.461    487.299    480.461    482.645    480.461
 44.670    488.000    489.287     -1.287    480.283    487.050    480.283    482.521    480.283
 44.770    505.000    489.130     15.870    480.106    486.835    480.106    482.403    480.106
 44.870    485.000    489.006     -4.006    479.931    486.649    479.931    482.289    479.931
 44.970    510.000    488.911     21.089    479.759    486.490    479.759    482.180    479.759
 45.070    496.000    488.844      7.156    479.588    486.356    479.588    482.077    479.588
 45.170    493.140    488.803      4.337    479.419    486.244    479.419    481.980    479.419
 45.270    485.212    488.789     -3.577    479.252    486.154    479.252    481.888    479.252
 45.370    513.000    488.800     24.200    479.087    486.085    479.087    481.803    479.087
 45.470    479.000    488.837     -9.837    478.925    486.037    478.925    481.724    478.925
 45.570    467.458    488.900    -21.441    478.764    486.011    478.764    481.653    478.764
 45.670    503.820    488.991     14.829    478.605    486.007    478.605    481.589    478.605
 45.770    482.048    489.111     -7.062    478.448    486.026    478.448    481.533    478.448
 45.870    476.000    489.262    -13.262    478.293    486.070    478.293    481.485    478.293
 45.970    503.000    489.448     13.552    478.140    486.141    478.140    481.447    478.140
 46.070    480.000    489.671     -9.671    477.988    486.241    477.988    481.419    477.988
 46.170    470.413    489.935    -19.522    477.839    486.374    477.839    481.401    477.839
 46.270    536.000    490.247     45.753    477.692    486.546    477.692    481.394    477.692
 46.370    519.535    490.613     28.921    477.547    486.760    477.547    481.400    477.547
 46.470    498.000    491.042      6.958    477.404    487.026    477.404    481.420    477.404
 46.570    517.907    491.546     26.361    477.262    487.354    477.262    481.454    477.262
 46.670    467.000    492.140    -25.140    477.123    487.758    477.123    481.505    477.123
 46.770    490.845    492.852     -2.007    476.985    488.263    476.985    481.574    476.985
 46.870    535.571    493.727     41.844    476.850    488.913    476.850    481.663    476.850
 46.970    457.982    494.855    -36.873    476.716    489.797    476.716    481.773    476.716
 47.070    488.000    496.413     -8.413    476.585    491.088    476.585    481.908    476.585
 47.170    501.000    498.720      2.280    476.455    493.101    476.455    482.070    476.455
 47.270    503.000    502.291      0.709    476.327    496.351    476.327    482.262    476.327
 47.370    504.923    507.825     -2.902    476.202    501.530    476.202    482.488    476.202
 47.470    492.000    516.049    -24.049    476.078    509.361    476.078    482.751    476.078
 47.570    555.414    527.386     28.029    475.956    520.264    475.956    483.056    475.956
 47.670    481.000    541.497    -60.497    475.836    533.894    475.836    483.408    475.836
 47.770    565.000    556.780      8.220    475.718    548.647    475.718    483.811    475.718
 47.870    556.000    570.009    -14.009    475.602    561.291    475.602    484.271    475.602
 47.970    540.949    576.946    -35.998    475.488    567.589    475.488    484.795    475.488
 48.070    585.809    575.090     10.719    475.375    565.031    475.375    485.387    475.375
 48.170    534.786    566.084    -31.297    475.265    555.254    475.265    486.056    475.265
 48.270    592.796    554.039     38.756    475.157    542.361    475.157    486.806    475.157
 48.370    517.000    542.585    -25.585    475.050    529.972    475.050    487.644    475.050
 48.470    508.056    533.787    -25.732    474.945    520.148    474.945    488.573    474.945
 48.570    515.000    528.342    -13.342    474.843    513.581    474.843    489.597    474.843
 48.670    504.000    526.054    -22.054    474.742    510.078    474.742    490.714    474.742
 48.770    460.000    526.322    -66.322    474.643    509.045    474.643    491.919    474.643
 48.870    491.010    528.524    -37.515    474.546    509.869    474.546    493.202    474.546
 48.970    510.051    532.228    -22.176    474.450    512.139    474.450    494.540    474.450
 49.070    536.713    537.286     -0.573    474.357    515.742    474.357    495.902    474.357
 49.170    533.000    543.971    -10.971    474.265    520.994    474.265    497.245    474.265
 49.270    512.418    553.316    -40.898    474.176    528.984    474.176    498.510    474.176
 49.370    578.000    568.015      9.985    474.088    542.475    474.088    499.628    474.088
 49.470    594.000    594.155     -0.155    474.002    567.625    474.002    500.527    474.002
 49.570    671.000    643.511     27.489    473.918    616.278    473.918    501.137    473.918
 49.670    795.000    734.967     60.033    473.836    707.367    473.836    501.404    473.836
 49.770    924.557    892.023     32.534    473.756    864.420    473.756    501.302    473.756
 49.870   1124.226   1133.396     -9.170    473.677   1106.153    473.677    500.836    473.677
 49.970   1512.816   1457.181     55.635    473.600   1430.636    473.600    500.041    473.600
 50.070   1834.000   1824.833      9.167    473.525   1799.281    473.525    498.977    473.525
 50.170   2066.481   2154.984    -88.503    473.452   2130.664    473.452    497.716    473.452
 50.270   2340.000   2341.210     -1.210    473.381   2318.291    473.381    496.331    473.381
 50.370   2272.000   2308.548    -36.548    473.312   2287.104    473.312    494.887    473.312
 50.470   2169.000   2072.112     96.888    473.244   2052.118    473.244    493.438    473.244
 50.570   1684.799   1723.297    -38.498    473.178   1704.670    473.178    492.025    473.178
 50.670   1351.000   1365.193    -14.193    473.114   1347.828    473.114    490.676    473.114
 50.770   1028.000   1067.886    -39.886    473.052   1051.684    473.052    489.408    473.052
 50.870    852.000    858.555     -6.555    472.991    843.426    472.991    488.232    472.991
 50.970    780.474    731.119     49.355    472.933    716.980    472.933    487.151    472.933
 51.070    699.000    662.804     36.196    472.876    649.575    472.876    486.164    472.876
 51.170    610.000    628.474    -18.474    472.820    616.074    472.820    485.270    472.820
 51.270    564.155    608.748    -44.593    472.767    597.096    472.767    484.462    472.767
 51.370    602.994    592.825     10.169    472.715    581.842    472.715    483.736    472.715
 51.470    624.000    577.346     46.654    472.665    566.958    472.665    483.085    472.665
 51.570    540.000    562.739    -22.739    472.617    552.879    472.617    482.502    472.617
 51.670    554.000    550.164      3.836    472.570    540.770    472.570    481.983    472.570
 51.770    545.000    540.325      4.675    472.525    531.343    472.525    481.522    472.525
 51.870    517.000    533.340    -16.340    472.482    524.721    472.482    481.112    472.482
 51.970    492.000    528.902    -36.902    472.441    520.602    472.441    480.750    472.441
 52.070    517.772    526.525     -8.753    472.401    518.504    472.401    480.430    472.401
 52.170    567.000    525.760     41.240    472.363    517.981    472.363    480.149    472.363
 52.270    537.000    526.323     10.677    472.327    518.753    472.327    479.903    472.327
 52.370    564.000    528.187     35.813    472.292    520.796    472.292    479.689    472.292
 52.470    571.000    531.652     39.348    472.259    524.412    472.259    479.504    472.259
 52.570    561.000    537.509     23.491    472.228    530.395    472.228    479.346    472.228
 52.670    527.825    547.320    -19.495    472.198    540.309    472.198    479.213    472.198
 52.770    601.000    563.734     37.266    472.170    556.806    472.170    479.103    472.170
 52.870    629.000    590.658     38.342    472.143    583.792    472.143    479.015    472.143
 52.970    649.957    632.928     17.028    472.118    626.107    472.118    478.946    472.118
 53.070    671.929    695.177    -23.247    472.095    688.383    472.095    478.897    472.095
 53.170    786.000    779.770      6.230    472.073    772.990    472.073    478.866    472.073
 53.270    924.000    884.165     39.835    472.053    877.386    472.053    478.852    472.053
 53.370    973.079    998.181    -25.102    472.035    991.389    472.035    478.855    472.035
 53.470   1163.197   1102.096     61.101    472.018   1095.281    472.018    478.874    472.018
 53.570   1129.000   1168.786    -39.786    472.003   1161.935    472.003    478.910    472.003
 53.670   1238.598   1175.292     63.307    471.989   1168.387    471.989    478.962    471.989
 53.770   1119.194   1119.125      0.069    471.977   1112.144    471.977    479.029    471.977
 53.870   1027.000   1020.546      6.454    471.966   1013.466    471.966    479.113    471.966
 53.970    923.000    907.315     15.685    471.957    900.117    471.957    479.212    471.957
 54.070    800.947    800.953     -0.005    471.949    793.619    471.949    479.328    471.949
 54.170    669.062    713.272    -44.209    471.943    705.788    471.943    479.461    471.943
 54.270    603.318    647.992    -44.674    471.939    640.344    471.939    479.610    471.939
 54.370    568.376    603.418    -35.041    471.935    595.592    471.935    479.778    471.935
 54.470    605.000    575.141     29.859    471.934    567.124    471.934    479.964    471.934
 54.570    561.000    558.241      2.759    471.934    550.015    471.934    480.169    471.934
 54.670    568.000    548.596     19.404    471.935    540.144    471.935    480.395    471.935
 54.770    513.684    543.331    -29.647    471.938    534.634    471.938    480.642    471.938
 54.870    557.000    540.699     16.301    471.942    531.736    471.942    480.911    471.942
 54.970    580.224    539.756     40.468    471.948    530.505    471.948    481.205    471.948
 55.070    601.000    540.040     60.960    471.955    530.476    471.955    481.525    471.955
 55.170    571.000    541.355     29.645    471.963    531.452    471.963    481.872    471.963
 55.270    583.000    543.649     39.351    471.973    533.380    471.973    482.249    471.973
 55.370    533.900    546.966    -13.066    471.985    536.299    471.985    482.659    471.985
 55.470    557.000    551.439      5.561    471.997    540.340    471.997    483.104    471.997
 55.570    510.617    557.339    -46.721    472.011    545.770    472.011    483.587    472.011
 55.670    546.000    565.201    -19.201    472.027    553.123    472.027    484.112    472.027
 55.770    562.000    576.096    -14.096    472.044    563.463    472.044    484.684    472.044
 55.870    627.909    592.120     35.789    472.062    578.883    472.062    485.307    472.062
 55.970    609.000    617.163     -8.163    472.081    603.265    472.081    485.986    472.081
 56.070    662.000    657.831      4.169    472.102    643.211    472.102    486.728    472.102
 56.170    720.000    724.119     -4.119    472.124    708.706    472.124    487.540    472.124
 56.270    774.000    829.043    -55.043    472.148    812.761    472.148    488.430    472.148
 56.370    858.000    986.326   -128.326    472.173    969.091    472.173    489.406    472.173
 56.470   1177.000   1205.657    -28.657    472.199   1187.379    472.199    490.479    472.199
 56.570   1463.000   1486.140    -23.140    472.226   1466.722    472.226    491.659    472.226
 56.670   1805.222   1809.553     -4.332    472.255   1788.891    472.255    492.958    472.255
 56.770   2098.000   2135.267    -37.267    472.284   2113.248    472.284    494.391    472.284
 56.870   2340.568   2400.016    -59.448    472.316   2376.513    472.316    495.972    472.316
 56.970   2478.000   2532.284    -54.284    472.348   2507.147    472.348    497.715    472.348
 57.070   2482.000   2489.050     -7.050    472.381   2462.089    472.381    499.640    472.381
 57.170   2292.000   2286.923      5.077    472.416   2257.908    472.416    501.762    472.416
 57.270   1962.000   1988.553    -26.553    472.452   1957.227    472.452    504.102    472.452
 57.370   1724.000   1663.765     60.235    472.489   1629.862    472.489    506.678    472.489
 57.470   1342.000   1364.781    -22.781    472.527   1328.032    472.527    509.508    472.527
 57.570   1120.000   1120.623     -0.623    472.567   1080.753    472.567    512.612    472.567
 57.670    890.808    940.261    -49.453    472.607    896.989    472.607    516.005    472.607
 57.770    864.301    818.848     45.452    472.649    771.885    472.649    519.698    472.649
 57.870    695.000    744.738    -49.738    472.692    693.789    472.692    523.699    472.692
 57.970    704.000    705.425     -1.425    472.736    650.196    472.736    528.003    472.736
 58.070    701.000    691.181      9.819    472.781    631.393    472.781    532.594    472.781
 58.170    702.000    696.280      5.720    472.827    631.685    472.827    537.437    472.827
 58.270    666.752    718.443    -51.691    472.875    648.851    472.875    542.473    472.875
 58.370    762.000    757.341      4.659    472.923    682.649    472.923    547.613    472.923
 58.470    816.000    812.796      3.204    472.972    733.025    472.972    552.734    472.972
 58.570    909.000    883.111     25.889    473.023    798.446    473.023    557.675    473.023
 58.670    975.000    963.831     11.169    473.074    874.649    473.074    562.244    473.074
 58.770   1057.155   1047.521      9.634    473.127    954.415    473.127    566.226    473.127
 58.870   1102.000   1125.429    -23.429    473.180   1029.211    473.180    569.404    473.180
 58.970   1221.165   1190.065     31.100    473.235   1091.738    473.235    571.582    473.235
 59.070   1256.000   1235.592     20.408    473.290   1136.301    473.290    572.617    473.290
 59.170   1239.286   1256.697    -17.410    473.347   1157.653    473.347    572.440    473.347
 59.270   1267.000   1250.799     16.201    473.404   1153.191    473.404    571.071    473.404
 59.370   1250.000   1222.636     27.364    473.463   1127.546    473.463    568.609    473.463
 59.470   1236.000   1184.101     51.899    473.522   1092.441    473.522    565.223    473.522
 59.570   1217.000   1148.756     68.244    473.582   1061.232    473.582    561.121    473.582
 59.670   1101.529   1127.800    -26.271    473.644   1044.902    473.644    556.521    473.644
 59.770   1103.464   1130.300    -26.836    473.706   1052.313    473.706    551.632    473.706
 59.870   1238.000   1163.430     74.570    473.769   1090.459    473.769    546.633    473.769
 59.970   1264.000   1229.104     34.896    473.832   1161.114    473.832    541.671    473.832
 60.070   1413.000   1319.793     93.207    473.897   1256.643    473.897    536.855    473.897
 60.170   1447.871   1416.991     30.880    473.963   1358.474    473.963    532.260    473.963
 60.270   1513.000   1493.116     19.884    474.029   1438.983    474.029    527.937    474.029
 60.370   1514.608   1518.915     -4.307    474.096   1468.896    474.096    523.911    474.096
 60.470   1493.000   1477.571     15.429    474.164   1431.380    474.164    520.194    474.164
 60.570   1354.000   1375.135    -21.135    474.233   1332.473    474.233    516.785    474.233
 60.670   1244.000   1235.094      8.906    474.303   1195.656    474.303    513.676    474.303
 60.770   1052.104   1084.583    -32.479    474.373   1048.074    474.373    510.852    474.373
 60.870    913.000    945.187    -32.187    474.445    911.326    474.445    508.297    474.445
 60.970    854.919    830.089     24.830    474.516    798.615    474.516    505.992    474.516
 61.070    707.546    744.610    -37.065    474.589    715.287    474.589    503.916    474.589
 61.170    682.000    688.440     -6.440    474.663    661.052    474.663    502.051    474.663
 61.270    711.000    658.590     52.410    474.737    632.945    474.737    500.376    474.737
 61.370    628.000    652.107    -24.107    474.811    628.032    474.811    498.873    474.811
 61.470    690.000    667.736     22.264    474.887    645.075    474.887    497.522    474.887
 61.570    687.000    706.177    -19.177    474.963    684.792    474.963    496.307    474.963
 61.670    822.602    769.017     53.585    475.040    748.788    475.040    495.211    475.040
 61.770    845.217    856.703    -11.486    475.117    837.524    475.117    494.217    475.117
 61.870    994.076    966.194     27.882    475.196    947.975    475.196    493.314    475.196
 61.970   1096.000   1088.934      7.066    475.274   1071.605    475.274    492.487    475.274
 62.070   1169.000   1209.657    -40.657    475.354   1193.159    475.354    491.727    475.354
 62.170   1262.000   1307.029    -45.029    475.434   1291.319    475.434    491.026    475.434
 62.270   1342.000   1358.199    -16.199    475.514   1343.242    475.514    490.375    475.514
 62.370   1403.683   1348.576     55.108    475.595   1334.337    475.595    489.771    475.595
 62.470   1319.991   1280.563     39.429    475.677   1267.001    475.677    489.210    475.677
 62.570   1223.003   1171.834     51.169    475.759   1158.903    475.759    488.688    475.759
 62.670    958.000   1045.368    -87.368    475.842   1033.021    475.842    488.203    475.842
 62.770    854.000    920.969    -66.969    475.925    909.162    475.925    487.754    475.925
 62.870    819.066    811.901      7.165    476.009    800.593    476.009    487.340    476.009
 62.970    650.000    724.699    -74.699    476.093    713.855    476.093    486.957    476.093
 63.070    664.000    660.377      3.623    476.178    649.965    476.178    486.605    476.178
 63.170    591.000    616.296    -25.296    476.263    606.286    476.263    486.282    476.263
 63.270    601.000    588.143     12.857    476.349    578.510    476.349    485.987    476.349
 63.370    591.029    571.546     19.483    476.435    562.265    476.435    485.718    476.435
 63.470    581.000    563.051     17.949    476.521    554.098    476.521    485.473    476.521
 63.570    593.000    560.529     32.471    476.608    551.883    476.608    485.250    476.608
 63.670    587.742    563.192     24.549    476.695    554.831    476.695    485.049    476.695
 63.770    592.000    571.410     20.590    476.783    563.314    476.783    484.868    476.783
 63.870    654.000    586.426     67.574    476.871    578.574    476.871    484.706    476.871
 63.970    593.000    609.967    -16.967    476.960    602.339    476.960    484.560    476.960
 64.070    617.104    643.715    -26.611    477.048    636.294    477.048    484.432    477.048
 64.170    705.000    688.632     16.368    477.137    681.401    477.137    484.318    477.137
 64.270    801.000    744.193     56.807    477.227    737.137    477.227    484.218    477.227
 64.370    798.000    807.642     -9.642    477.317    800.748    477.317    484.132    477.317
 64.470    912.300    873.417     38.883    477.407    866.675    477.407    484.058    477.407
 64.570    878.702    933.109    -54.407    477.497    926.515    477.497    483.996    477.497
 64.670    974.590    976.834     -2.243    477.587    970.386    477.587    483.945    477.587
 64.770    978.203    996.521    -18.318    477.678    990.218    477.678    483.904    477.678
 64.870    977.704    989.353    -11.649    477.769    983.192    477.769    483.873    477.769
 64.970    964.844    958.517      6.327    477.861    952.492    477.861    483.851    477.861
 65.070    956.441    911.301     45.139    477.952    905.402    477.952    483.838    477.952
 65.170    850.000    856.377     -6.377    478.044    850.593    478.044    483.833    478.044
 65.270    810.000    801.308      8.692    478.136    795.629    478.136    483.836    478.136
 65.370    738.066    750.997    -12.931    478.228    745.409    478.228    483.847    478.228
 65.470    675.280    707.497    -32.217    478.320    701.990    478.320    483.865    478.320
 65.570    634.286    670.935    -36.649    478.412    665.497    478.412    483.889    478.412
 65.670    667.000    640.717     26.283    478.505    635.338    478.505    483.921    478.505
 65.770    561.000    616.231    -55.231    478.597    610.901    478.597    483.958    478.597
 65.870    561.000    596.908    -35.908    478.690    591.620    478.690    484.002    478.690
 65.970    583.074    582.135      0.939    478.783    576.885    478.783    484.052    478.783
 66.070    573.000    571.280      1.720    478.876    566.062    478.876    484.108    478.876
 66.170    580.000    563.756     16.244    478.969    558.565    478.969    484.170    478.969
 66.270    551.000    559.062     -8.062    479.062    553.895    479.062    484.237    479.062
 66.370    590.000    556.796     33.204    479.155    551.648    479.155    484.310    479.155
 66.470    552.000    556.661     -4.661    479.248    551.528    479.248    484.388    479.248
 66.570    517.619    558.517    -40.897    479.341    553.392    479.341    484.472    479.341
 66.670    594.000    562.457     31.543    479.434    557.337    479.434    484.561    479.434
 66.770    585.372    568.953     16.419    479.527    563.832    479.527    484.656    479.527
 66.870    565.000    579.057    -14.057    479.620    573.930    479.620    484.756    479.620
 66.970    593.000    594.677     -1.677    479.713    589.536    479.713    484.861    479.713
 67.070    569.000    618.899    -49.899    479.805    613.740    479.805    484.973    479.805
 67.170    640.815    656.258    -15.443    479.898    651.075    479.898    485.090    479.898
 67.270    735.171    712.770     22.401    479.991    707.558    479.991    485.213    479.991
 67.370    742.776    795.508    -52.733    480.084    790.262    480.084    485.342    480.084
 67.470    891.013    911.499    -20.486    480.176    906.217    480.176    485.477    480.176
 67.570   1046.000   1065.900    -19.900    480.269   1060.583    480.269    485.618    480.269
 67.670   1226.000   1259.660    -33.660    480.361   1254.311    480.361    485.766    480.361
 67.770   1538.947   1487.096     51.851    480.453   1481.721    480.453    485.921    480.453
 67.870   1761.000   1733.916     27.084    480.545   1728.520    480.545    486.083    480.545
 67.970   2030.927   1976.133     54.794    480.637   1970.725    480.637    486.253    480.637
 68.070   2186.536   2180.826      5.710    480.728   2175.407    480.728    486.431    480.728
 68.170   2332.000   2311.197     20.803    480.820   2305.760    480.820    486.616    480.820
 68.270   2377.000   2338.388     38.612    480.911   2332.907    480.911    486.811    480.911
 68.370   2222.537   2255.646    -33.108    481.002   2250.083    481.002    487.015    481.002
 68.470   2167.000   2082.448     84.552    481.092   2076.756    481.092    487.229    481.092
 68.570   1845.608   1853.843     -8.235    481.183   1847.982    481.183    487.454    481.183
 68.670   1676.000   1605.872     70.128    481.273   1599.811    481.273    487.690    481.273
 68.770   1393.000   1367.152     25.848    481.363   1360.869    481.363    487.938    481.363
 68.870   1165.000   1156.550      8.450    481.452   1150.032    481.452    488.200    481.452
 68.970    965.951    983.650    -17.699    481.542    976.889    481.542    488.476    481.542
 69.070    878.000    850.372     27.628    481.631    843.361    481.631    488.768    481.631
 69.170    789.000    753.236     35.764    481.719    745.969    481.719    489.076    481.719
 69.270    669.000    685.811    -16.811    481.807    678.278    481.807    489.404    481.807
 69.370    659.000    640.830     18.170    481.895    633.019    481.895    489.752    481.895
 69.470    649.000    611.650     37.350    481.983    603.543    481.983    490.123    481.983
 69.570    591.190    592.973     -1.783    482.070    584.549    482.070    490.519    482.070
 69.670    546.502    581.000    -34.498    482.157    572.234    482.157    490.943    482.157
 69.770    529.184    573.231    -44.047    482.243    564.092    482.243    491.398    482.243
 69.870    558.000    568.135    -10.135    482.329    558.589    482.329    491.889    482.329
 69.970    598.884    564.833     34.051    482.414    554.840    482.414    492.420    482.414
 70.070    570.000    562.849      7.151    482.499    552.363    482.499    492.996    482.499
 70.170    547.426    561.943    -14.516    482.584    550.913    482.584    493.623    482.584
 70.270    576.000    562.025     13.975    482.668    550.394    482.668    494.308    482.668
 70.370    560.787    563.118     -2.331    482.752    550.818    482.752    495.059    482.752
 70.470    545.583    565.360    -19.777    482.835    552.315    482.835    495.885    482.835
 70.570    573.000    569.059      3.941    482.917    555.183    482.917    496.797    482.917
 70.670    536.000    574.776    -38.776    482.999    559.972    482.999    497.806    482.999
 70.770    578.519    583.466     -4.946    483.081    567.622    483.081    498.926    483.081
 70.870    632.565    596.637     35.928    483.162    579.626    483.162    500.171    483.162
 70.970    616.000    616.520     -0.520    483.242    598.200    483.242    501.556    483.242
 71.070    635.777    646.172    -10.395    483.322    626.384    483.322    503.099    483.322
 71.170    651.916    689.412    -37.496    483.401    667.976    483.401    504.818    483.401
 71.270    796.000    750.493     45.507    483.480    727.211    483.480    506.731    483.480
 71.370    795.712    833.426    -37.714    483.558    808.082    483.558    508.857    483.558
 71.470    985.873    940.969     44.903    483.635    913.328    483.635    511.216    483.635
 71.570   1014.000   1073.402    -59.402    483.712   1043.212    483.712    513.825    483.712
 71.670   1287.977   1227.301     60.676    483.788   1194.297    483.788    516.699    483.788
 71.770   1436.000   1394.548     41.452    483.863   1358.456    483.863    519.850    483.863
 71.870   1567.000   1561.738      5.262    483.938   1522.281    483.938    523.284    483.938
 71.970   1746.000   1710.297     35.703    484.012   1667.204    484.012    526.999    484.012
 72.070   1827.770   1818.405      9.364    484.085   1771.421    484.085    530.980    484.085
 72.170   1869.000   1866.386      2.614    484.158   1815.287    484.158    535.196    484.158
 72.270   1823.000   1844.768    -21.768    484.230   1789.380    484.230    539.593    484.230
 72.370   1737.000   1759.169    -22.169    484.301   1699.391    484.301    544.088    484.301
 72.470   1632.249   1627.146      5.103    484.372   1562.988    484.372    548.566    484.372
 72.570   1450.000   1470.335    -20.335    484.441   1401.957    484.441    552.872    484.441
 72.670   1300.000   1308.205     -8.205    484.510   1235.958    484.510    556.820    484.510
 72.770   1186.275   1155.371     30.904    484.578   1079.817    484.578    560.196    484.578
 72.870    980.000   1021.118    -41.118    484.645    943.036    484.645    562.787    484.645
 72.970    876.000    909.867    -33.867    484.712    830.225    484.712    564.407    484.712
 73.070    835.000    822.118     12.882    484.778    742.011    484.778    564.930    484.778
 73.170    742.000    755.661    -13.661    484.842    676.223    484.842    564.318    484.842
 73.270    668.337    706.820    -38.483    484.906    629.132    484.906    562.625    484.906
 73.370    661.000    671.531    -10.531    484.970    596.534    484.970    559.992    484.970
 73.470    649.000    646.071      2.929    485.032    574.515    485.032    556.610    485.032
 73.570    624.837    627.449     -2.612    485.093    559.865    485.093    552.697    485.093
 73.670    595.920    613.495    -17.575    485.154    550.207    485.154    548.460    485.154
 73.770    628.000    602.774     25.226    485.213    543.922    485.213    544.084    485.213
 73.870    599.000    594.407      4.593    485.272    539.985    485.272    539.713    485.272
 73.970    599.000    587.889     11.111    485.330    537.781    485.330    535.459    485.330
 74.070    612.327    582.922     29.404    485.387    536.936    485.387    531.397    485.387
 74.170    602.000    579.295     22.705    485.443    537.189    485.443    527.577    485.443
 74.270    576.013    576.795     -0.782    485.498    538.299    485.498    524.026    485.498
 74.370    610.159    575.157     35.002    485.552    539.989    485.552    520.757    485.552
 74.470    530.899    574.031    -43.133    485.605    541.909    485.605    517.770    485.605
 74.570    625.000    572.984     52.016    485.657    543.630    485.657    515.059    485.657
 74.670    605.996    571.532     34.465    485.708    544.681    485.708    512.609    485.708
 74.770    594.000    569.255     24.745    485.758    544.659    485.758    510.406    485.758
 74.870    656.000    565.955     90.045    485.807    543.383    485.807    508.431    485.807
 74.970    639.000    561.751     77.249    485.855    540.989    485.855    506.665    485.855
 75.070    560.062    557.034      3.028    485.902    537.889    485.902    505.089    485.902
 75.170    585.000    552.312     32.688    485.947    534.611    485.947    503.686    485.947
 75.270    576.000    548.113     27.887    485.992    531.700    485.992    502.435    485.992
 75.370    607.000    544.945     62.055    486.036    529.682    486.036    501.322    486.036
 75.470    503.289    543.295    -40.006    486.079    529.060    486.079    500.330    486.079
 75.570    507.632    543.640    -36.008    486.120    530.325    486.120    499.445    486.120
 75.670    554.765    546.444      8.321    486.161    533.954    486.161    498.654    486.161
 75.770    578.000    552.133     25.867    486.200    540.384    486.200    497.946    486.200
 75.870    597.000    561.045     35.955    486.238    549.963    486.238    497.310    486.238
 75.970    581.000    573.343      7.657    486.275    562.864    486.275    496.738    486.275
 76.070    623.343    588.917     34.425    486.311    578.983    486.311    496.222    486.311
 76.170    610.000    607.277      2.723    486.346    597.838    486.346    495.754    486.346
 76.270    665.000    627.468     37.532    486.379    618.481    486.379    495.329    486.379
 76.370    690.794    648.012     42.782    486.412    639.438    486.412    494.942    486.412
 76.470    667.000    666.913      0.087    486.443    658.720    486.443    494.589    486.443
 76.570    718.000    681.796     36.204    486.473    673.955    486.473    494.264    486.473
 76.670    681.946    690.317     -8.371    486.502    682.804    486.502    493.966    486.502
 76.770    708.000    690.861     17.139    486.530    683.653    486.530    493.692    486.530
 76.870    638.000    683.204    -45.204    486.556    676.282    486.556    493.438    486.556
 76.970    679.000    668.619     10.381    486.581    661.963    486.581    493.203    486.581
 77.070    653.000    649.317      3.683    486.605    642.910    486.605    492.985    486.605
 77.170    657.412    627.700     29.712    486.628    621.526    486.628    492.782    486.628
 77.270    639.865    605.857     34.008    486.649    599.898    486.649    492.593    486.649
 77.370    587.000    585.357      1.643    486.670    579.600    486.670    492.416    486.670
 77.470    568.000    567.227      0.773    486.689    561.657    486.689    492.251    486.689
 77.570    579.762    551.991     27.771    486.706    546.597    486.706    492.096    486.706
 77.670    553.704    539.757     13.947    486.723    534.526    486.723    491.950    486.723
 77.770    537.043    530.324      6.719    486.738    525.246    486.738    491.814    486.738
 77.870    532.000    523.304      8.696    486.751    518.370    486.751    491.685    486.751
 77.970    502.000    518.230    -16.230    486.764    513.430    486.764    491.563    486.764
 78.070    494.000    514.638    -20.638    486.775    509.965    486.775    491.448    486.775
 78.170    482.000    512.125    -30.125    486.784    507.570    486.784    491.339    486.784
 78.270    489.000    510.367    -21.367    486.793    505.924    486.793    491.236    486.793
 78.370    504.383    509.127     -4.744    486.800    504.789    486.800    491.138    486.800
 78.470    498.000    508.240    -10.240    486.806    504.001    486.806    491.045    486.806
 78.570    539.083    507.599     31.484    486.810    503.453    486.810    490.956    486.810
 78.670    544.850    507.142     37.708    486.813    503.084    486.813    490.872    486.813
 78.770    480.378    506.836    -26.458    486.814    502.860    486.814    490.791    486.814
 78.870    512.000    506.668      5.332    486.814    502.770    486.814    490.714    486.814
 78.970    479.000    506.642    -27.642    486.813    502.816    486.813    490.640    486.813
 79.070    488.000    506.770    -18.770    486.811    503.012    486.811    490.569    486.811
 79.170    485.000    507.074    -22.074    486.807    503.381    486.807    490.500    486.807
 79.270    509.882    507.584      2.298    486.801    503.950    486.801    490.435    486.801
 79.370    506.000    508.332     -2.332    486.794    504.755    486.794    490.371    486.794
 79.470    544.468    509.360     35.108    486.786    505.834    486.786    490.310    486.786
 79.570    506.000    510.715     -4.715    486.776    507.238    486.776    490.251    486.776
 79.670    530.000    512.460     17.540    486.765    509.029    486.765    490.194    486.765
 79.770    534.996    514.680     20.316    486.752    511.292    486.752    490.138    486.752
 79.870    539.361    517.491     21.871    486.738    514.142    486.738    490.084    486.738
 79.970    518.174    521.047     -2.874    486.722    517.737    486.722    490.030    486.722
 80.070    515.000    525.552    -10.552    486.705    522.277    486.705    489.978    486.705
 80.170    544.458    531.242     13.216    486.686    528.001    486.686    489.926    486.686
 80.270    524.000    538.483    -14.483    486.666    535.274    486.666    489.874    486.666
 80.370    579.665    547.650     32.015    486.645    544.474    486.645    489.822    486.645
 80.470    528.154    559.092    -30.939    486.622    555.948    486.622    489.769    486.622
 80.570    585.264    573.071     12.193    486.597    569.959    486.597    489.716    486.597
 80.670    618.938    589.648     29.290    486.571    586.568    486.571    489.662    486.571
 80.770    617.931    608.596      9.335    486.543    605.550    486.543    489.606    486.543
 80.870    614.000    629.347    -15.347    486.514    626.335    486.514    489.548    486.514
 80.970    693.701    650.990     42.710    486.483    648.014    486.483    489.489    486.483
 81.070    681.000    672.346      8.654    486.451    669.405    486.451    489.428    486.451
 81.170    663.342    692.124    -28.782    486.417    689.220    486.417    489.365    486.417
 81.270    718.666    709.105      9.561    486.382    706.237    486.382    489.300    486.382
 81.370    721.937    722.275     -0.338    486.345    719.443    486.345    489.233    486.345
 81.470    732.614    730.901      1.713    486.306    728.105    486.306    489.165    486.306
 81.570    752.000    734.594     17.406    486.266    731.833    486.266    489.096    486.266
 81.670    781.068    733.321     47.747    486.225    730.593    486.225    489.026    486.225
 81.770    746.000    727.337     18.663    486.181    724.640    486.181    488.956    486.181
 81.870    710.000    717.124     -7.124    486.137    714.455    486.137    488.884    486.137
 81.970    720.000    703.415     16.585    486.090    700.773    486.090    488.812    486.090
 82.070    692.000    687.212      4.788    486.042    684.593    486.042    488.740    486.042
 82.170    630.000    669.634    -39.634    485.993    667.035    485.993    488.667    485.993
 82.270    641.840    651.681     -9.841    485.941    649.100    485.941    488.594    485.941
 82.370    682.114    634.061     48.053    485.889    631.496    485.889    488.521    485.889
 82.470    659.000    617.196     41.804    485.834    614.645    485.834    488.448    485.834
 82.570    568.000    601.339    -33.339    485.778    598.799    485.778    488.374    485.778
 82.670    628.000    586.706     41.294    485.721    584.176    485.721    488.300    485.721
 82.770    537.796    573.535    -35.739    485.661    571.014    485.661    488.225    485.661
 82.870    599.622    562.077     37.545    485.600    559.561    485.600    488.151    485.600
 82.970    532.000    552.538    -20.538    485.538    550.027    485.538    488.075    485.538
 83.070    536.150    545.065     -8.915    485.474    542.558    485.474    488.000    485.474
 83.170    500.000    539.732    -39.732    485.408    537.227    485.408    487.924    485.408
 83.270    495.000    536.535    -41.535    485.341    534.032    485.341    487.847    485.341
 83.370    520.000    535.385    -15.385    485.271    532.882    485.271    487.770    485.271
 83.470    565.770    536.097     29.673    485.201    533.592    485.201    487.693    485.201
 83.570    536.000    538.384     -2.384    485.128    535.877    485.128    487.615    485.128
 83.670    533.000    541.856     -8.856    485.054    539.347    485.054    487.536    485.054
 83.770    545.621    546.027     -0.406    484.979    543.515    484.979    487.456    484.979
 83.870    510.972    550.329    -39.357    484.901    547.814    484.901    487.376    484.901
 83.970    499.000    554.143    -55.143    484.822    551.626    484.822    487.295    484.822
 84.070    500.000    556.855    -56.855    484.742    554.337    484.742    487.214    484.742
 84.170    536.000    557.957    -21.957    484.659    555.438    484.659    487.131    484.659
 84.270    581.000    557.160     23.840    484.575    554.642    484.575    487.048    484.575
 84.370    547.000    554.476     -7.476    484.490    551.959    484.490    486.964    484.490
 84.470    523.095    550.189    -27.093    484.402    547.674    484.402    486.879    484.402
 84.570    527.000    544.757    -17.757    484.313    542.244    484.313    486.794    484.313
 84.670    539.077    538.688      0.389    484.223    536.175    484.223    486.707    484.223
 84.770    551.238    532.454     18.785    484.130    529.941    484.130    486.620    484.130
 84.870    538.000    526.446     11.554    484.036    523.932    484.036    486.532    484.036
 84.970    491.000    520.955    -29.955    483.940    518.438    483.940    486.443    483.940
 85.070    470.000    516.168    -46.168    483.843    513.647    483.843    486.353    483.843
 85.170    533.212    512.177     21.035    483.744    509.649    483.744    486.262    483.744
 85.270    497.000    508.994    -11.994    483.643    506.459    483.643    486.171    483.643
 85.370    495.000    506.574    -11.574    483.541    504.030    483.541    486.079    483.541
 85.470    504.000    504.839     -0.839    483.436    502.285    483.436    485.985    483.436
 85.570    514.670    503.698     10.972    483.331    501.132    483.331    485.891    483.331
 85.670    516.000    503.066     12.934    483.223    500.488    483.223    485.797    483.223
 85.770    530.776    502.883     27.893    483.114    500.290    483.114    485.701    483.114
 85.870    537.177    503.113     34.063    483.003    500.506    483.003    485.604    483.003
 85.970    518.000    503.761     14.239    482.890    501.137    482.890    485.507    482.890
 86.070    547.176    504.865     42.311    482.776    502.223    482.776    485.409    482.776
 86.170    503.000    506.502     -3.502    482.660    503.840    482.660    485.311    482.660
 86.270    516.161    508.778      7.383    482.542    506.095    482.542    485.211    482.542
 86.370    479.000    511.826    -32.826    482.423    509.120    482.423    485.111    482.423
 86.470    518.000    515.788      2.212    482.302    513.057    482.302    485.010    482.302
 86.570    494.000    520.799    -26.799    482.179    518.041    482.179    484.909    482.179
 86.670    516.000    526.967    -10.967    482.055    524.180    482.055    484.807    482.055
 86.770    508.924    534.344    -25.420    481.929    531.525    481.929    484.705    481.929
 86.870    515.516    542.898    -27.382    481.801    540.045    481.801    484.602    481.801
 86.970    581.000    552.481     28.519    481.671    549.593    481.671    484.498    481.671
 87.070    593.000    562.813     30.187    481.540    559.886    481.540    484.394    481.540
 87.170    601.000    573.458     27.542    481.407    570.494    481.407    484.290    481.407
 87.270    565.000    583.837    -18.837    481.273    580.834    481.273    484.185    481.273
 87.370    551.038    593.227    -42.189    481.137    590.185    481.137    484.080    481.137
 87.470    598.000    600.835     -2.835    480.999    597.757    480.999    483.975    480.999
 87.570    618.000    605.918     12.082    480.859    602.805    480.859    483.870    480.859
 87.670    585.217    607.953    -22.736    480.718    604.806    480.718    483.765    480.718
 87.770    646.000    606.795     39.205    480.575    603.617    480.575    483.659    480.575
 87.870    590.517    602.723    -12.206    480.431    599.515    480.431    483.554    480.431
 87.970    557.549    596.354    -38.805    480.285    593.116    480.285    483.449    480.285
 88.070    550.210    588.483    -38.273    480.137    585.213    480.137    483.345    480.137
 88.170    621.000    579.951     41.049    479.987    576.649    479.987    483.240    479.987
 88.270    529.137    571.560    -42.423    479.836    568.221    479.836    483.137    479.836
 88.370    573.538    564.010      9.529    479.683    560.632    479.683    483.034    479.683
 88.470    572.969    557.864     15.105    479.529    554.445    479.529    482.932    479.529
 88.570    561.000    553.521      7.479    479.373    550.056    479.373    482.830    479.373
 88.670    538.000    551.202    -13.202    479.215    547.688    479.215    482.731    479.215
 88.770    566.017    550.946     15.071    479.056    547.380    479.056    482.632    479.056
 88.870    583.956    552.623     31.333    478.895    549.001    478.895    482.535    478.895
 88.970    587.000    555.944     31.056    478.732    552.263    478.732    482.440    478.732
 89.070    587.535    560.483     27.052    478.568    556.737    478.568    482.347    478.568
 89.170    575.498    565.697      9.801    478.402    561.884    478.402    482.257    478.402
 89.270    562.000    570.960     -8.960    478.234    567.074    478.234    482.169    478.234
 89.370    539.219    575.595    -36.376    478.065    571.631    478.065    482.085    478.065
 89.470    607.000    578.945     28.055    477.895    574.897    477.895    482.004    477.895
 89.570    541.582    580.467    -38.885    477.722    576.327    477.722    481.927    477.722
 89.670    562.000    579.838    -17.838    477.548    575.599    477.548    481.854    477.548
 89.770    574.000    577.029     -3.029    477.373    572.682    477.373    481.786    477.373
 89.870    544.000    572.291    -28.291    477.196    567.827    477.196    481.724    477.196
 89.970    546.302    566.069    -19.766    477.017    561.479    477.017    481.667    477.017
 90.070    607.000    558.890     48.110    476.837    554.165    476.837    481.617    476.837
 90.170    541.222    551.274    -10.052    476.655    546.404    476.655    481.575    476.655
 90.270    530.000    543.678    -13.678    476.472    538.653    476.472    481.540    476.472
 90.370    527.000    536.470     -9.470    476.287    531.279    476.287    481.514    476.287
 90.470    533.000    529.922      3.078    476.100    524.555    476.100    481.497    476.100
 90.570    558.000    524.210     33.790    475.912    518.657    475.912    481.490    475.912
 90.670    539.000    519.424     19.576    475.723    513.672    475.723    481.494    475.723
 90.770    485.381    515.579    -30.198    475.532    509.615    475.532    481.511    475.532
 90.870    480.000    512.636    -32.636    475.339    506.448    475.339    481.539    475.339
 90.970    528.000    510.522     17.478    475.145    504.094    475.145    481.582    475.145
 91.070    488.000    509.148    -21.148    474.950    502.465    474.950    481.638    474.950
 91.170    505.000    508.429     -3.429    474.753    501.475    474.753    481.711    474.753
 91.270    527.093    508.295     18.798    474.554    501.053    474.554    481.799    474.554
 91.370    466.000    508.704    -42.704    474.354    501.155    474.354    481.904    474.354
 91.470    537.000    509.639     27.361    474.152    501.765    474.152    482.027    474.152
 91.570    503.000    511.136     -8.136    473.950    502.917    473.950    482.168    473.950
 91.670    555.632    513.284     42.348    473.745    504.699    473.745    482.328    473.745
 91.770    549.000    516.175     32.825    473.539    507.203    473.539    482.507    473.539
 91.870    534.000    519.946     14.054    473.332    510.567    473.332    482.705    473.332
 91.970    560.106    524.763     35.343    473.123    514.954    473.123    482.923    473.123
 92.070    524.143    530.802     -6.659    472.913    520.544    472.913    483.159    472.913
 92.170    503.000    538.241    -35.241    472.701    527.514    472.701    483.413    472.701
 92.270    513.000    547.239    -34.239    472.488    536.025    472.488    483.683    472.488
 92.370    547.000    557.918    -10.918    472.274    546.200    472.274    483.968    472.274
 92.470    609.000    570.343     38.657    472.058    558.109    472.058    484.263    472.058
 92.570    615.928    584.502     31.426    471.841    571.742    471.841    484.566    471.841
 92.670    632.000    600.290     31.710    471.622    587.001    471.622    484.872    471.622
 92.770    659.423    617.494     41.929    471.403    603.677    471.403    485.174    471.403
 92.870    617.000    635.784    -18.784    471.181    621.448    471.181    485.466    471.181
 92.970    662.000    654.711      7.289    470.959    639.875    470.959    485.739    470.959
 93.070    705.083    673.730     31.353    470.735    658.420    470.735    485.986    470.735
 93.170    696.000    692.248      3.752    470.510    676.500    470.510    486.195    470.510
 93.270    706.000    709.716     -3.716    470.283    693.578    470.283    486.358    470.283
 93.370    723.747    725.745     -1.998    470.056    709.272    470.056    486.466    470.056
 93.470    752.000    740.181     11.819    469.827    723.436    469.827    486.510    469.827
 93.570    784.000    753.104     30.896    469.596    736.158    469.596    486.483    469.596
 93.670    787.000    764.745     22.255    469.365    747.672    469.365    486.380    469.365
 93.770    830.000    775.363     54.637    469.132    758.239    469.132    486.201    469.132
 93.870    749.046    785.173    -36.127    468.898    768.075    468.898    485.944    468.898
 93.970    861.000    794.335     66.665    468.663    777.335    468.663    485.615    468.663
 94.070    822.000    803.005     18.995    468.426    786.170    468.426    485.217    468.426
 94.170    765.360    811.400    -46.040    468.189    794.788    468.189    484.759    468.189
 94.270    828.000    819.791      8.209    467.950    803.453    467.950    484.250    467.950
 94.370    842.000    828.405     13.595    467.710    812.381    467.710    483.699    467.710
 94.470    888.000    837.277     50.723    467.469    821.598    467.469    483.116    467.469
 94.570    871.057    846.134     24.923    467.227    830.820    467.227    482.512    467.227
 94.670    907.623    854.344     53.279    466.983    839.409    466.983    481.894    466.983
 94.770    879.000    860.959     18.041    466.739    846.408    466.739    481.271    466.739
 94.870    860.000    864.825     -4.825    466.493    850.656    466.493    480.650    466.493
 94.970    894.000    864.773     29.227    466.247    850.978    466.247    480.035    466.247
 95.070    887.000    859.870     27.130    465.999    846.437    465.999    479.433    465.999
 95.170    862.703    849.644     13.059    465.750    836.555    465.750    478.847    465.750
 95.270    839.226    834.381      4.844    465.500    821.617    465.500    478.280    465.500
 95.370    844.243    814.912     29.331    465.249    802.448    465.249    477.734    465.249
 95.470    786.664    792.525     -5.861    464.998    780.336    464.998    477.211    464.998
 95.570    771.000    768.785      2.215    464.745    756.843    464.745    476.712    464.745
 95.670    745.000    745.339     -0.339    464.491    733.618    464.491    476.238    464.491
 95.770    709.161    723.814    -14.653    464.236    712.284    464.236    475.790    464.236
 95.870    740.000    705.736     34.264    463.981    694.371    463.981    475.367    463.981
 95.970    740.429    692.482     47.947    463.724    681.252    463.724    474.970    463.724
 96.070    693.000    685.266      7.734    463.466    674.145    463.466    474.599    463.466
 96.170    724.000    685.124     38.876    463.208    674.084    463.208    474.254    463.208
 96.270    738.785    692.898     45.887    462.949    681.911    462.949    473.935    462.949
 96.370    747.258    709.225     38.033    462.688    698.263    462.688    473.642    462.688
 96.470    728.543    734.515     -5.971    462.427    723.552    462.427    473.375    462.427
 96.570    819.000    768.924     50.076    462.166    757.933    462.166    473.135    462.166
 96.670    767.649    812.303    -44.655    461.903    801.258    461.903    472.920    461.903
 96.770    842.000    864.144    -22.144    461.640    853.018    461.640    472.733    461.640
 96.870    901.000    923.513    -22.513    461.375    912.280    461.375    472.573    461.375
 96.970    997.000    988.998      8.002    461.110    977.631    461.110    472.441    461.110
 97.070   1052.311   1058.665     -6.354    460.845   1047.137    460.845    472.337    460.845
 97.170   1168.000   1130.039     37.961    460.578   1118.322    460.578    472.263    460.578
 97.270   1216.000   1200.118     15.882    460.311   1188.186    460.311    472.219    460.311
 97.370   1194.000   1265.447    -71.447    460.044   1253.269    460.044    472.207    460.044
 97.470   1326.000   1322.286      3.714    459.775   1309.831    459.775    472.229    459.775
 97.570   1438.699   1366.936     71.764    459.506   1354.173    459.506    472.285    459.506
 97.670   1387.081   1396.229     -9.147    459.236   1383.121    459.236    472.378    459.236
 97.770   1322.000   1408.082    -86.082    458.966   1394.592    458.966    472.509    458.966
 97.870   1403.000   1401.923      1.077    458.695   1388.008    458.695    472.682    458.695
 97.970   1444.000   1378.779     65.221    458.424   1364.392    458.424    472.898    458.424
 98.070   1396.255   1341.005     55.250    458.152   1326.097    458.152    473.159    458.152
 98.170   1267.000   1291.806    -24.806    457.879   1276.323    457.879    473.469    457.879
 98.270   1239.784   1234.754      5.030    457.606   1218.641    457.606    473.831    457.606
 98.370   1146.000   1173.433    -27.433    457.333   1156.631    457.333    474.246    457.333
 98.470   1056.779   1111.215    -54.436    457.059   1093.663    457.059    474.719    457.059
 98.570   1028.454   1051.141    -22.687    456.785   1032.774    456.785    475.251    456.785
 98.670   1022.186    995.861     26.325    456.510    976.615    456.510    475.848    456.510
 98.770    980.797    947.616     33.181    456.235    927.423    456.235    476.510    456.235
 98.870    918.000    908.311      9.689    455.959    887.100    455.959    477.242    455.959
 98.970    805.000    879.441    -74.441    455.683    857.140    455.683    478.045    455.683
 99.070    847.000    862.156    -15.156    455.407    838.691    455.407    478.923    455.407
 99.170    853.000    857.291     -4.291    455.131    832.587    455.131    479.878    455.131
 99.270    860.000    865.384     -5.384    454.854    839.363    454.854    480.911    454.854
 99.370    865.000    886.694    -21.694    454.577    859.279    454.577    482.024    454.577
 99.470    922.000    921.214      0.786    454.300    892.326    454.300    483.217    454.300
 99.570    916.000    968.652    -52.652    454.022    938.215    454.022    484.489    454.022
 99.670   1022.000   1028.412     -6.412    453.745    996.352    453.745    485.840    453.745
 99.770   1158.000   1099.546     58.454    453.467   1065.790    453.467    487.265    453.467
 99.870   1168.268   1180.704    -12.436    453.189   1145.186    453.189    488.761    453.189
 99.970   1240.475   1270.085    -29.610    452.911   1232.744    452.911    490.321    452.911
100.070   1384.302   1365.394     18.907    452.633   1326.181    452.633    491.935    452.633
100.170   1416.000   1463.840    -47.840    452.355   1422.716    452.355    493.590    452.355
100.270   1579.000   1562.185     16.815    452.077   1519.128    452.077    495.272    452.077
100.370   1603.000   1656.905    -53.905    451.798   1611.910    451.798    496.962    451.798
100.470   1781.000   1744.440     36.560    451.520   1697.523    451.520    498.635    451.520
100.570   1846.000   1821.503     24.497    451.242   1772.708    451.242    500.266    451.242
100.670   1827.785   1885.340    -57.555    450.964   1834.740    450.964    501.824    450.964
100.770   1968.000   1933.829     34.171    450.686   1881.529    450.686    503.274    450.686
100.870   1965.000   1965.426     -0.426    450.408   1911.565    450.408    504.580    450.408
100.970   2033.000   1979.060     53.940    450.130   1923.814    450.130    505.706    450.130
101.070   1946.958   1974.147    -27.189    449.853   1917.728    449.853    506.615    449.853
101.170   1985.000   1950.811     34.189    449.576   1893.463    449.576    507.276    449.576
101.270   1887.000   1910.147    -23.147    449.299   1852.140    449.299    507.660    449.299
101.370   1909.000   1854.419     54.581    449.022   1796.044    449.022    507.747    449.022
101.470   1836.000   1786.967     49.033    448.745   1728.526    448.745    507.528    448.745
101.570   1672.000   1711.823    -39.823    448.469   1653.618    448.469    507.001    448.469
101.670   1620.000   1633.191    -13.191    448.193   1575.519    448.193    506.174    448.193
101.770   1534.000   1554.971    -20.971    447.918   1498.110    447.918    505.067    447.918
101.870   1490.681   1480.429     10.252    447.643   1424.633    447.643    503.705    447.643
101.970   1409.000   1412.021     -3.021    447.368   1357.514    447.368    502.121    447.368
102.070   1341.000   1351.342    -10.342    447.094   1298.311    447.094    500.349    447.094
102.170   1223.000   1299.135    -76.135    446.820   1247.734    446.820    498.427    446.820
102.270   1270.000   1255.348     14.652    446.547   1205.692    446.547    496.392    446.547
102.370   1215.419   1219.211     -3.792    446.274   1171.384    446.274    494.277    446.274
102.470   1223.738   1189.350     34.388    446.002   1143.403    446.002    492.114    446.002
102.570   1137.000   1163.928    -26.928    445.731   1119.883    445.731    489.932    445.731
102.670   1184.000   1140.847     43.153    445.460   1098.705    445.460    487.753    445.460
102.770   1083.747   1118.001    -34.254    445.190   1077.739    445.190    485.598    445.190
102.870   1042.000   1093.545    -51.545    444.920   1055.125    444.920    483.484    444.920
102.970   1115.000   1066.190     48.810    444.652   1029.561    444.652    481.422    444.652
103.070   1020.000   1035.295    -15.295    444.384   1000.393    444.384    479.423    444.384
103.170   1001.000   1000.854      0.146    444.117    967.611    444.117    477.494    444.117
103.270    962.000    963.390     -1.390    443.850    931.729    443.850    475.640    443.850
103.370    966.441    923.751     42.690    443.585    893.593    443.585    473.865    443.585
103.470    846.269    882.934    -36.665    443.320    854.199    443.320    472.170    443.320
103.570    851.000    841.954      9.046    443.057    814.561    443.057    470.556    443.057
103.670    850.000    801.758     48.242    442.794    775.627    442.794    469.023    442.794
103.770    779.000    763.179     15.821    442.533    738.230    442.533    467.570    442.533
103.870    783.000    726.901     56.099    442.272    703.057    442.272    466.194    442.272
103.970    658.000    693.448    -35.448    442.012    670.635    442.012    464.895    442.012
104.070    662.000    663.174     -1.174    441.754    641.320    441.754    463.669    441.754
104.170    608.645    636.271    -27.625    441.497    615.307    441.497    462.513    441.497
104.270    598.329    612.780    -14.451    441.241    592.641    441.241    461.425    441.241
104.370    592.000    592.618     -0.618    440.986    573.240    440.986    460.401    440.986
104.470    576.000    575.598      0.402    440.732    556.923    440.732    459.439    440.732
104.570    604.000    561.468     42.532    440.480    543.439    440.480    458.535    440.480
104.670    574.613    549.930     24.683    440.228    532.495    440.228    457.686    440.228
104.770    523.000    540.678    -17.678    439.979    523.785    439.979    456.889    439.979
104.870    516.422    533.407    -16.986    439.730    517.011    439.730    456.141    439.730
104.970    568.521    527.843     40.678    439.483    511.899    439.483    455.439    439.483
105.070    553.000    523.742     29.258    439.238    508.209    439.238    454.780    439.238
105.170    572.000    520.907     51.093    438.994    505.746    438.994    454.162    438.994
105.270    582.000    519.184     62.816    438.751    504.359    438.751    453.581    438.751
105.370    589.000    518.463     70.537    438.511    503.940    438.511    453.036    438.511
105.470    557.000    518.678     38.322    438.271    504.426    438.271    452.525    438.271
105.570    568.000    519.798     48.202    438.034    505.786    438.034    452.045    438.034
105.670    529.000    521.824      7.176    437.798    508.025    437.798    451.594    437.798
105.770    536.995    524.781     12.214    437.563    511.169    437.563    451.170    437.563
105.870    491.220    528.713    -37.494    437.331    515.264    437.331    450.773    437.331
105.970    567.024    533.671     33.353    437.100    520.361    437.100    450.401    437.100
106.070    530.000    539.704     -9.704    436.871    526.512    436.871    450.051    436.871
106.170    532.849    546.845    -13.997    436.644    533.752    436.644    449.724    436.644
106.270    575.000    555.102     19.898    436.419    542.087    436.419    449.417    436.419
106.370    578.000    564.443     13.557    436.196    551.489    436.196    449.131    436.196
106.470    531.214    574.793    -43.579    435.975    561.882    435.975    448.864    435.975
106.570    583.000    586.024     -3.024    435.756    573.139    435.756    448.615    435.756
106.670    579.004    597.955    -18.951    435.539    585.081    435.539    448.385    435.539
106.770    565.478    610.350    -44.872    435.324    597.473    435.324    448.172    435.324
106.870    611.293    622.923    -11.630    435.112    610.027    435.112    447.976    435.112
106.970    675.569    635.343     40.226    434.901    622.414    434.901    447.797    434.901
107.070    666.000    647.243     18.757    434.693    634.269    434.693    447.634    434.693
107.170    695.787    658.243     37.545    434.487    645.209    434.487    447.488    434.487
107.270    664.000    667.972     -3.972    434.283    654.866    434.283    447.358    434.283
107.370    681.000    676.116      4.884    434.082    662.923    434.082    447.244    434.082
107.470    612.000    682.454    -70.454    433.883    669.163    433.883    447.147    433.883
107.570    702.000    686.909     15.091    433.687    673.506    433.687    447.066    433.687
107.670    726.000    689.562     36.438    433.493    676.033    433.493    447.002    433.493
107.770    659.000    690.645    -31.645    433.301    676.976    433.301    446.955    433.301
107.870    686.824    690.506     -3.682    433.113    676.682    433.113    446.925    433.113
107.970    665.000    689.552    -24.552    432.927    675.559    432.927    446.913    432.927
108.070    702.000    688.197     13.803    432.743    674.020    432.743    446.919    432.743
108.170    641.425    686.820    -45.394    432.563    672.441    432.563    446.943    432.563
108.270    673.000    685.716    -12.716    432.385    671.119    432.385    446.987    432.385
108.370    664.000    685.088    -21.088    432.209    670.257    432.209    447.051    432.209
108.470    663.000    685.033    -22.033    432.037    669.949    432.037    447.136    432.037
108.570    704.000    685.536     18.464    431.868    670.181    431.868    447.242    431.868
108.670    701.000    686.472     14.528    431.702    670.825    431.702    447.371    431.702
108.770    639.000    687.610    -48.610    431.538    671.651    431.538    447.523    431.538
108.870    648.384    688.626    -40.242    431.378    672.333    431.378    447.700    431.378
108.970    645.000    689.150    -44.150    431.221    672.499    431.221    447.904    431.221
109.070    727.000    688.780     38.220    431.066    671.748    431.066    448.134    431.066
109.170    673.375    687.140    -13.764    430.916    669.699    430.916    448.394    430.916
109.270    700.383    683.938     16.445    430.768    666.062    430.768    448.684    430.768
109.370    704.914    679.015     25.899    430.624    660.674    430.624    449.006    430.624
109.470    648.329    672.364    -24.036    430.482    653.526    430.482    449.362    430.482
109.570    704.000    664.125     39.875    430.345    644.757    430.345    449.755    430.345
109.670    656.000    654.550      1.450    430.211    634.616    430.211    450.186    430.211
109.770    648.000    643.963      4.037    430.080    623.426    430.080    450.657    430.080
109.870    673.000    632.717     40.283    429.953    611.536    429.953    451.172    429.953
109.970    670.608    621.164     49.444    429.829    599.297    429.829    451.732    429.829
110.070    657.297    609.634     47.664    429.709    587.036    429.709    452.340    429.709
110.170    573.158    598.420    -25.263    429.593    575.044    429.593    453.000    429.593
110.270    609.000    587.776     21.224    429.480    563.569    429.480    453.714    429.480
110.370    562.000    577.907    -15.907    429.371    552.816    429.371    454.486    429.371
110.470    562.000    568.973     -6.973    429.266    542.941    429.266    455.319    429.266
110.570    585.850    561.088     24.762    429.165    534.055    429.165    456.217    429.165
110.670    560.000    554.321      5.679    429.068    526.223    429.068    457.183    429.068
110.770    557.352    548.701      8.651    428.975    519.469    428.975    458.220    428.975
110.870    567.000    544.220     22.780    428.886    513.783    428.886    459.334    428.886
110.970    554.000    540.843     13.157    428.801    509.125    428.801    460.528    428.801
111.070    556.688    538.509     18.178    428.720    505.431    428.720    461.805    428.720
111.170    535.000    537.145     -2.145    428.644    502.623    428.644    463.170    428.644
111.270    497.087    536.664    -39.578    428.571    500.611    428.571    464.628    428.571
111.370    550.687    536.979     13.709    428.503    499.302    428.503    466.182    428.503
111.470    582.000    537.999     44.001    428.439    498.604    428.439    467.835    428.439
111.570    544.000    539.642      4.358    428.380    498.429    428.380    469.593    428.380
111.670    562.878    541.828     21.050    428.325    498.693    428.325    471.459    428.325
111.770    513.292    544.490    -31.198    428.275    499.326    428.275    473.437    428.275
111.870    530.000    547.566    -17.566    428.230    500.264    428.230    475.530    428.230
111.970    522.000    551.009    -29.009    428.189    501.454    428.189    477.741    428.189
112.070    581.000    554.781     26.219    428.152    502.858    428.152    480.072    428.152
112.170    508.000    558.854    -50.854    428.121    504.445    428.121    482.527    428.121
112.270    563.583    563.216      0.367    428.094    506.200    428.094    485.106    428.094
112.370    580.000    567.862     12.138    428.072    508.120    428.072    487.811    428.072
112.470    580.000    572.803      7.197    428.055    510.213    428.055    490.641    428.055
112.570    551.000    578.057    -27.057    428.043    512.500    428.043    493.596    428.043
112.670    585.000    583.653      1.347    428.036    515.012    428.036    496.674    428.036
112.770    558.000    589.634    -31.634    428.034    517.794    428.034    499.871    428.034
112.870    530.000    596.051    -66.051    428.038    520.904    428.038    503.181    428.038
112.970    580.000    602.974    -22.974    428.046    524.417    428.046    506.598    428.046
113.070    607.000    610.490     -3.490    428.060    528.432    428.060    510.114    428.060
113.170    623.325    618.713      4.612    428.079    533.073    428.079    513.715    428.079
113.270    631.481    627.792      3.689    428.104    538.502    428.104    517.388    428.104
113.370    647.096    637.917      9.179    428.134    544.929    428.134    521.114    428.134
113.470    633.000    649.337    -16.337    428.170    552.624    428.170    524.875    428.170
113.570    622.249    662.372    -40.123    428.211    561.929    428.211    528.643    428.211
113.670    683.000    677.429      5.571    428.257    573.281    428.257    532.392    428.257
113.770    607.000    695.023    -88.023    428.310    587.227    428.310    536.089    428.310
113.870    712.000    715.797     -3.797    428.368    604.446    428.368    539.698    428.368
113.970    708.784    740.545    -31.761    428.432    625.771    428.432    543.180    428.432
114.070    705.000    770.228    -65.228    428.502    652.206    428.502    546.492    428.502
114.170    805.000    805.995     -0.995    428.578    684.942    428.578    549.590    428.578
114.270    817.000    849.180    -32.180    428.660    725.361    428.660    552.428    428.660
114.370    916.000    901.332     14.668    428.748    775.055    428.748    554.962    428.748
114.470    979.000    964.271     14.729    428.842    835.888    428.842    557.148    428.842
114.570    984.000   1039.903    -55.903    428.943    909.803    428.943    558.949    428.943
114.670   1213.000   1130.313     82.687    429.049    998.920    429.049    560.330    429.049
114.770   1224.000   1237.685    -13.685    429.162   1105.448    429.162    561.265    429.162
114.870   1412.000   1364.224     47.776    429.282   1231.610    429.282    561.739    429.282
114.970   1534.000   1512.064     21.936    429.407   1379.548    429.407    561.742    429.407
115.070   1618.008   1683.150    -65.142    429.540   1551.205    429.540    561.277    429.540
115.170   1916.000   1879.109     36.891    429.679   1748.196    429.679    560.357    429.679
115.270   2025.132   2101.108    -75.976    429.824   1971.669    429.824    559.003    429.824
115.370   2386.000   2349.704     36.296    429.977   2222.150    429.977    557.246    429.977
115.470   2613.000   2624.700    -11.700    430.136   2499.409    430.136    555.121    430.136
115.570   2953.000   2925.014     27.986    430.302   2802.323    430.302    552.669    430.302
115.670   3279.000   3248.563     30.437    430.475   3128.768    430.475    549.935    430.475
115.770   3688.079   3592.187     95.892    430.655   3475.538    430.655    546.965    430.655
115.870   3961.686   3951.600     10.087    430.842   3838.304    430.842    543.802    430.842
115.970   4236.829   4321.383    -84.554    431.036   4211.606    431.036    540.491    431.036
116.070   4637.012   4695.028    -58.017    431.237   4588.895    431.237    537.074    431.237
116.170   5174.569   5065.017    109.552    431.446   4962.615    431.446    533.587    431.446
116.270   5457.000   5422.959     34.041    431.661   5324.343    431.661    530.066    431.661
116.370   5728.000   5759.785    -31.785    431.885   5664.979    431.885    526.541    431.885
116.470   6006.000   6066.021    -60.021    432.116   5975.023    432.116    523.039    432.116
116.570   6341.099   6332.169      8.930    432.354   6244.951    432.354    519.582    432.354
116.670   6586.000   6549.196     36.804    432.600   6465.709    432.600    516.190    432.600
116.770   6676.000   6709.145    -33.145    432.854   6629.324    432.854    512.879    432.854
116.870   6757.122   6805.803    -48.680    433.115   6729.562    433.115    509.663    433.115
116.970   6936.000   6835.310    100.690    433.384   6762.552    433.384    506.551    433.384
117.070   6863.000   6796.592     66.408    433.661   6727.204    433.661    503.553    433.661
117.170   6782.000   6691.475     90.525    433.947   6625.335    433.947    500.674    433.947
117.270   6704.000   6524.471    179.529    434.240   6461.450    434.240    497.919    434.240
117.370   6232.000   6302.278    -70.278    434.541   6242.242    434.541    495.290    434.541
117.470   5911.000   6033.135   -122.135    434.851   5975.946    434.851    492.790    434.851
117.570   5727.863   5726.159      1.704    435.168   5671.681    435.168    490.419    435.168
117.670   5337.000   5390.770    -53.770    435.495   5338.866    435.495    488.177    435.495
117.770   5033.000   5036.224     -3.224    435.829   4986.760    435.829    486.062    435.829
117.870   4615.000   4671.277    -56.277    436.172   4624.122    436.172    484.074    436.172
117.970   4255.000   4303.931    -48.931    436.524   4258.960    436.524    482.208    436.524
118.070   3909.687   3941.272    -31.586    436.884   3898.363    436.884    480.463    436.884
118.170   3468.000   3589.349   -121.349    437.253   3548.386    437.253    478.836    437.253
118.270   3329.000   3253.118     75.882    437.631   3213.992    437.631    477.324    437.631
118.370   3062.000   2936.435    125.565    438.018   2899.040    438.018    475.922    438.018
118.470   2712.708   2642.085     70.623    438.413   2606.324    438.413    474.627    438.413
118.570   2410.000   2371.855     38.145    438.818   2337.635    438.818    473.435    438.818
118.670   2198.821   2126.635     72.186    439.232   2093.867    439.232    472.342    439.232
118.770   1772.000   1906.532   -134.532    439.654   1875.134    439.654    471.344    439.654
118.870   1635.690   1710.996    -75.306    440.087   1680.891    440.087    470.437    440.087
118.970   1594.062   1538.955     55.107    440.528   1510.068    440.528    469.618    440.528
119.070   1335.000   1388.937    -53.937    440.979   1361.200    440.979    468.882    440.979
119.170   1222.000   1259.194    -37.194    441.440   1232.542    441.440    468.226    441.440
119.270   1142.939   1147.816     -4.877    441.910   1122.187    441.910    467.646    441.910
119.370   1048.000   1052.826     -4.826    442.389   1028.163    442.389    467.138    442.389
119.470    960.573    972.267    -11.694    442.879    948.514    442.879    466.699    442.879
119.570    930.000    904.263     25.737    443.378    881.367    443.378    466.325    443.378
119.670    918.000    847.067     70.933    443.887    824.980    443.887    466.014    443.887
119.770    797.000    799.093     -2.093    444.406    777.768    444.406    465.762    444.406
119.870    755.000    758.930     -3.930    444.935    738.323    444.935    465.567    444.935
119.970    674.970    725.345    -50.374    445.475    705.414    445.475    465.425    445.475
120.070    737.000    697.280     39.720    446.024    677.987    446.024    465.334    446.024
120.170    658.000    673.840    -15.840    446.584    655.146    446.584    465.292    446.584
120.270    639.000    654.275    -15.275    447.154    636.145    447.154    465.296    447.154
120.370    635.000    637.964     -2.964    447.735    620.366    447.735    465.345    447.735
120.470    615.000    624.400     -9.400    448.326    607.302    448.326    465.435    448.326
120.570    638.994    613.167     25.827    448.928    596.540    448.928    465.566    448.928
120.670    564.182    603.932    -39.749    449.541    587.748    449.541    465.736    449.541
120.770    616.345    596.421     19.924    450.164    580.655    450.164    465.942    450.164
120.870    578.000    590.418    -12.418    450.798    575.044    450.798    466.184    450.798
120.970    608.000    585.743     22.257    451.444    570.740    451.444    466.459    451.444
121.070    565.000    582.254    -17.254    452.100    567.600    452.100    466.768    452.100
121.170    588.908    579.831      9.077    452.767    565.505    452.767    467.107    452.767
121.270    578.000    578.374     -0.374    453.446    564.358    453.446    467.477    453.446
121.370    560.673    577.797    -17.125    454.136    564.075    454.136    467.875    454.136
121.470    588.185    578.026     10.159    454.838    564.579    454.838    468.302    454.838
121.570    526.000    578.986    -52.986    455.551    565.800    455.551    468.756    455.551
121.670    569.000    580.582    -11.582    456.275    567.643    456.275    469.236    456.275
121.770    600.000    582.804     17.196    457.012    570.098    457.012    469.741    457.012
121.870    566.262    585.566    -19.304    457.760    573.081    457.760    470.270    457.760
121.970    552.522    588.788    -36.266    458.519    576.512    458.519    470.823    458.519
122.070    576.767    592.390    -15.623    459.291    580.314    459.291    471.398    459.291
122.170    618.884    596.292     22.592    460.075    584.404    460.075    471.996    460.075
122.270    610.000    600.403      9.597    460.871    588.696    460.871    472.614    460.871
122.370    621.000    604.628     16.372    461.679    593.094    461.679    473.252    461.679
122.470    591.000    608.868    -17.868    462.500    597.500    462.500    473.910    462.500
122.570    661.000    613.017     47.983    463.333    601.808    463.333    474.586    463.333
122.670    615.000    616.967     -1.967    464.178    605.913    464.178    475.280    464.178
122.770    595.469    620.611    -25.142    465.036    609.706    465.036    475.991    465.036
122.870    620.867    623.844     -2.977    465.907    613.085    465.907    476.718    465.907
122.970    645.000    626.570     18.430    466.790    615.954    466.790    477.461    466.790
123.070    650.000    628.706     21.294    467.686    618.232    467.686    478.218    467.686
123.170    672.724    630.190     42.535    468.595    619.855    468.595    478.989    468.595
123.270    617.000    630.978    -13.978    469.518    620.782    469.518    479.773    469.518
123.370    665.649    631.054     34.595    470.453    620.997    470.453    480.570    470.453
123.470    610.000    630.426    -20.426    471.402    620.509    471.402    481.379    471.402
123.570    643.000    629.124     13.876    472.364    619.347    472.364    482.200    472.364
123.670    636.000    627.195      8.805    473.339    617.560    473.339    483.032    473.339
123.770    617.425    624.702     -7.277    474.328    615.210    474.328    483.876    474.328
123.870    624.000    621.715      2.285    475.331    612.369    475.331    484.731    475.331
123.970    614.269    618.310     -4.041    476.347    609.112    476.347    485.597    476.347
124.070    624.625    614.565     10.059    477.377    605.516    477.377    486.475    477.377
124.170    600.155    610.557    -10.403    478.421    601.660    478.421    487.365    478.421
124.270    607.870    606.360      1.510    479.479    597.615    479.479    488.266    479.479
124.370    609.000    602.043      6.957    480.551    593.454    480.551    489.180    480.551
124.470    606.000    597.671      8.329    481.637    589.238    481.637    490.107    481.637
124.570    560.000    593.302    -33.302    482.738    585.025    482.738    491.048    482.738
124.670    612.164    588.986     23.179    483.853    580.866    483.853    492.002    483.853
124.770    545.460    584.765    -39.305    484.982    576.804    484.982    492.970    484.982
124.870    533.024    580.676    -47.652    486.126    572.872    486.126    493.954    486.126
124.970    607.000    576.747     30.253    487.285    569.100    487.285    494.952    487.285
