neutron_powder_diffraction_0042
R_wp: 3.765
Temperature (K): 603.090
Counts: 83376.00
Wavelength (Ã…): 2.52098
COMMENTS
Test file for demonstrating the .xyy file format in Reel1.0
END OF HEADER
   tth       Y_obs     Y_calc      Y_res    Background    Phase_1_Nuc    Phase_1_Mag    Phase_2_Nuc    Phase_2_Mag
  9.970    698.000    684.442     13.558    682.876    683.977    683.341    682.876    682.876
 10.070    700.000    683.786     16.214    682.126    683.316    682.595    682.126    682.126
 10.170    722.063    683.144     38.919    681.377    682.669    681.852    681.377    681.377
 10.270    697.000    682.518     14.482    680.630    682.038    681.109    680.630    680.630
 10.370    723.000    681.912     41.088    679.884    681.426    680.369    679.884    679.884
 10.470    717.000    681.329     35.671    679.141    680.838    679.631    679.141    679.141
 10.570    638.777    680.775    -41.998    678.399    680.279    678.894    678.399    678.399
 10.670    634.291    680.255    -45.965    677.658    679.753    678.159    677.658    677.658
 10.770    644.156    679.779    -35.623    676.920    679.271    677.426    676.920    676.920
 10.870    666.000    679.356    -13.356    676.183    678.843    676.695    676.183    676.183
 10.970    722.000    679.004     42.996    675.449    678.484    675.966    675.449    675.449
 11.070    714.000    678.742     35.258    674.715    678.217    675.239    674.715    674.715
 11.170    700.240    678.603     21.637    673.984    678.071    674.514    673.984    673.984
 11.270    745.000    678.626     66.374    673.255    678.088    673.791    673.255    673.255
 11.370    667.000    678.889    -11.889    672.527    678.344    673.069    672.527    672.527
 11.470    700.305    679.536     20.769    671.802    678.984    672.350    671.802    671.802
 11.570    656.460    680.877    -24.417    671.078    680.318    671.632    671.078    671.078
 11.670    731.000    683.584     47.416    670.356    683.016    670.917    670.356    670.356
 11.770    724.371    688.940     35.432    669.636    688.362    670.203    669.636    669.636
 11.870    757.000    698.893     58.107    668.918    698.304    669.492    668.918    668.918
 11.970    728.298    715.473     12.825    668.201    714.867    668.782    668.201    668.201
 12.070    823.000    739.141     83.859    667.487    738.515    668.075    667.487    667.487
 12.170    786.592    765.988     20.604    666.775    765.340    667.370    666.775    666.775
 12.270    807.000    785.320     21.680    666.064    784.654    666.666    666.064    666.064
 12.370    773.000    784.992    -11.992    665.356    784.319    665.965    665.356    665.356
 12.470    772.950    764.715      8.235    664.650    764.045    665.266    664.650    664.650
 12.570    755.626    736.483     19.143    663.945    735.820    664.569    663.945    663.945
 12.670    740.000    711.220     28.780    663.243    710.563    663.875    663.243    663.243
 12.770    648.000    693.016    -45.016    662.542    692.360    663.182    662.542    662.542
 12.870    675.000    681.489     -6.489    661.844    680.832    662.492    661.844    661.844
 12.970    701.561    674.630     26.931    661.147    673.967    661.803    661.147    661.147
 13.070    626.000    670.468    -44.468    660.453    669.799    661.117    660.453    660.453
 13.170    649.000    667.702    -18.702    659.761    667.025    660.433    659.761    659.761
 13.270    594.000    665.643    -71.643    659.071    664.958    659.752    659.071    659.071
 13.370    656.000    663.974     -7.974    658.383    663.281    659.073    658.383    658.383
 13.470    653.000    662.550     -9.550    657.696    661.848    658.395    657.696    657.696
 13.570    643.000    661.296    -18.296    657.013    660.586    657.721    657.013    657.013
 13.670    622.000    660.224    -38.224    656.331    659.504    657.048    656.331    656.331
 13.770    614.685    659.289    -44.603    655.651    658.560    656.379    655.651    655.651
 13.870    654.671    658.325     -3.653    654.973    657.586    655.711    654.973    654.973
 13.970    662.000    657.405      4.595    654.298    656.657    655.045    654.298    654.298
 14.070    693.000    656.530     36.470    653.625    655.771    654.382    653.625    653.625
 14.170    682.000    655.689     26.311    652.953    654.921    653.721    652.953    652.953
 14.270    625.637    654.878    -29.241    652.284    654.099    653.063    652.284    652.284
 14.370    655.000    654.091      0.909    651.618    653.302    652.406    651.618    651.618
 14.470    659.000    653.325      5.675    650.953    652.524    651.753    650.953    650.953
 14.570    677.000    652.575     24.425    650.291    651.764    651.101    650.291    650.291
 14.670    660.000    651.841      8.159    649.630    651.018    650.453    649.630    649.630
 14.770    607.000    651.120    -44.120    648.972    650.285    649.806    648.972    648.972
 14.870    648.000    650.410     -2.410    648.316    649.563    649.162    648.316    648.316
 14.970    607.000    649.710    -42.710    647.663    648.851    648.521    647.663    647.663
 15.070    585.000    649.019    -64.019    647.011    648.148    647.882    647.011    647.011
 15.170    646.000    648.336     -2.336    646.362    647.453    647.246    646.362    646.362
 15.270    610.000    647.661    -37.661    645.716    646.765    646.612    645.716    645.716
 15.370    606.000    646.993    -40.993    645.071    646.083    645.981    645.071    645.071
 15.470    613.400    646.332    -32.931    644.429    645.408    645.352    644.429    644.429
 15.570    692.542    645.679     46.863    643.789    644.742    644.726    643.789    643.789
 15.670    679.511    645.031     34.480    643.151    644.079    644.102    643.151    643.151
 15.770    602.586    644.386    -41.801    642.515    643.420    643.481    642.515    642.515
 15.870    674.189    643.746     30.443    641.882    642.765    642.863    641.882    641.882
 15.970    638.740    643.111     -4.371    641.251    642.115    642.247    641.251    641.251
 16.070    669.486    642.484     27.001    640.623    641.473    641.634    640.623    640.623
 16.170    622.000    641.862    -19.862    639.997    640.834    641.024    639.997    639.997
 16.270    653.000    641.241     11.759    639.373    640.197    640.417    639.373    639.373
 16.370    607.000    640.623    -33.623    638.751    639.562    639.812    638.751    638.751
 16.470    658.606    640.010     18.596    638.132    638.932    639.210    638.132    638.132
 16.570    680.165    639.400     40.765    637.515    638.304    638.611    637.515    637.515
 16.670    629.000    638.794     -9.794    636.901    637.681    638.014    636.901    636.901
 16.770    669.000    638.192     30.808    636.288    637.060    637.420    636.288    636.288
 16.870    639.000    637.594      1.406    635.679    636.443    636.830    635.679    635.679
 16.970    667.446    637.000     30.446    635.071    635.829    636.242    635.071    635.071
 17.070    606.000    636.416    -30.416    634.466    635.226    635.657    634.466    634.466
 17.170    613.653    635.902    -22.249    633.864    634.690    635.076    633.864    633.864
 17.270    629.000    635.340     -6.340    633.263    634.106    634.497    633.263    633.263
 17.370    605.000    634.764    -29.764    632.666    633.508    633.921    632.666    632.666
 17.470    644.989    634.203     10.786    632.070    632.925    633.348    632.070    632.070
 17.570    587.144    633.647    -46.503    631.477    632.347    632.777    631.477    631.477
 17.670    620.000    633.080    -13.080    630.887    631.756    632.210    630.887    630.887
 17.770    594.925    632.515    -37.590    630.298    631.168    631.646    630.298    630.298
 17.870    625.000    631.955     -6.955    629.713    630.582    631.085    629.713    629.713
 17.970    610.000    631.397    -21.397    629.129    630.000    630.527    629.129    629.129
 18.070    633.000    630.843      2.157    628.549    629.420    629.972    628.549    628.549
 18.170    614.089    630.294    -16.204    627.970    628.843    629.420    627.970    627.970
 18.270    581.000    629.747    -48.747    627.394    628.269    628.872    627.394    627.394
 18.370    596.000    629.205    -33.205    626.821    627.699    628.327    626.821    626.821
 18.470    602.000    628.669    -26.669    626.250    627.134    627.785    626.250    626.250
 18.570    596.000    628.144    -32.144    625.681    626.579    627.247    625.681    625.681
 18.670    649.007    627.614     21.393    625.115    626.018    626.712    625.115    625.115
 18.770    648.901    627.087     21.814    624.552    625.459    626.180    624.552    624.552
 18.870    608.000    626.564    -18.564    623.991    624.903    625.652    623.991    623.991
 18.970    665.232    626.044     39.188    623.432    624.350    625.127    623.432    623.432
 19.070    614.000    625.530    -11.530    622.876    623.800    624.606    622.876    622.876
 19.170    640.000    625.020     14.980    622.322    623.254    624.088    622.322    622.322
 19.270    662.892    624.513     38.379    621.771    622.710    623.574    621.771    621.771
 19.370    633.000    624.010      8.990    621.222    622.169    623.063    621.222    621.222
 19.470    647.101    623.514     23.587    620.676    621.633    622.557    620.676    620.676
 19.570    667.023    623.049     43.974    620.133    621.120    622.062    620.133    620.133
 19.670    658.646    622.603     36.043    619.592    620.621    621.573    619.592    619.592
 19.770    585.823    622.133    -36.310    619.053    620.107    621.079    619.053    619.053
 19.870    588.267    621.673    -33.407    618.517    619.601    620.589    618.517    618.517
 19.970    636.000    621.200     14.800    617.984    619.081    620.102    617.984    617.984
 20.070    613.000    620.732     -7.732    617.453    618.563    619.621    617.453    617.453
 20.170    630.000    620.281      9.719    616.924    618.053    619.151    616.924    616.924
 20.270    626.000    619.848      6.152    616.398    617.564    618.682    616.398    616.398
 20.370    618.000    619.456     -1.456    615.875    617.115    618.216    615.875    615.875
 20.470    588.393    619.027    -30.634    615.354    616.630    617.751    615.354    615.354
 20.570    613.000    618.589     -5.589    614.836    616.133    617.291    614.836    614.836
 20.670    640.120    618.197     21.923    614.320    615.681    616.836    614.320    614.320
 20.770    634.191    617.803     16.388    613.807    615.224    616.385    613.807    613.807
 20.870    614.000    617.392     -3.392    613.296    614.749    615.940    613.296    613.296
 20.970    608.392    616.978     -8.586    612.788    614.266    615.499    612.788    612.788
 21.070    585.573    616.575    -31.002    612.283    613.790    615.068    612.283    612.283
 21.170    623.277    616.172      7.105    611.780    613.314    614.638    611.780    611.780
 21.270    624.000    615.773      8.227    611.279    612.839    614.213    611.279    611.279
 21.370    597.000    615.380    -18.380    610.781    612.368    613.794    610.781    610.781
 21.470    620.345    614.998      5.347    610.286    611.904    613.380    610.286    610.286
 21.570    627.000    614.622     12.378    609.794    611.442    612.973    609.794    609.794
 21.670    638.985    614.262     24.723    609.303    610.994    612.572    609.303    609.303
 21.770    648.818    613.905     34.913    608.816    610.544    612.177    608.816    608.816
 21.870    613.000    613.554     -0.554    608.331    610.096    611.789    608.331    608.331
 21.970    649.000    613.213     35.787    607.849    609.654    611.408    607.849    607.849
 22.070    611.648    612.882     -1.234    607.369    609.217    611.034    607.369    607.369
 22.170    583.303    612.562    -29.259    606.892    608.786    610.667    606.892    606.892
 22.270    604.000    612.254     -8.254    606.417    608.362    610.309    606.417    606.417
 22.370    638.000    611.958     26.042    605.945    607.946    609.958    605.945    605.945
 22.470    614.000    611.677      2.323    605.476    607.537    609.616    605.476    605.476
 22.570    641.000    611.411     29.589    605.009    607.138    609.282    605.009    605.009
 22.670    653.000    611.163     41.837    604.545    606.750    608.958    604.545    604.545
 22.770    625.000    610.932     14.068    604.083    606.372    608.644    604.083    604.083
 22.870    643.571    610.720     32.851    603.624    606.004    608.340    603.624    603.624
 22.970    565.974    610.530    -44.556    603.167    605.652    608.046    603.167    603.167
 23.070    641.048    610.371     30.677    602.713    605.319    607.766    602.713    602.713
 23.170    570.352    610.237    -39.885    602.262    605.003    607.496    602.262    602.262
 23.270    586.000    610.134    -24.134    601.813    604.708    607.239    601.813    601.813
 23.370    630.000    610.068     19.932    601.367    604.441    606.995    601.367    601.367
 23.470    583.284    610.048    -26.764    600.924    604.207    606.766    600.924    600.924
 23.570    572.000    610.083    -38.083    600.483    604.016    606.552    600.483    600.483
 23.670    630.860    610.186     20.674    600.045    603.877    606.354    600.045    600.045
 23.770    605.191    610.371     -5.180    599.609    603.807    606.174    599.609    599.609
 23.870    652.644    610.662     41.981    599.176    603.828    606.012    599.176    599.176
 23.970    623.000    611.097     11.903    598.745    603.974    605.870    598.745    598.745
 24.070    606.000    611.734     -5.734    598.317    604.305    605.749    598.317    598.317
 24.170    621.000    612.695      8.305    597.892    604.938    605.652    597.892    597.892
 24.270    645.000    614.237     30.763    597.469    606.131    605.580    597.469    597.469
 24.370    615.861    616.895     -1.034    597.049    608.415    605.536    597.049    597.049
 24.470    709.000    621.622     87.378    596.632    612.742    605.521    596.632    596.632
 24.570    597.878    629.739    -31.861    596.217    620.433    605.539    596.217    596.217
 24.670    663.520    642.420     21.100    595.804    632.657    605.592    595.804    595.804
 24.770    662.000    659.521      2.479    595.395    649.268    605.684    595.395    595.395
 24.870    680.000    677.741      2.259    594.987    666.960    605.819    594.987    594.987
 24.970    713.000    689.451     23.549    594.583    678.092    606.002    594.583    594.583
 25.070    714.381    687.505     26.875    594.181    675.508    606.236    594.181    594.181
 25.170    727.000    673.600     53.400    593.781    660.899    606.529    593.781    593.781
 25.270    636.000    655.829    -19.829    593.385    642.360    606.887    593.385    593.385
 25.370    620.302    640.541    -20.239    592.990    626.236    607.318    592.990    592.990
 25.470    655.000    629.949     25.051    592.599    614.731    607.831    592.599    592.599
 25.570    615.000    623.693     -8.693    592.210    607.474    608.436    592.210    592.210
 25.670    663.000    620.499     42.501    591.823    603.181    609.147    591.823    591.823
 25.770    668.000    619.154     48.846    591.440    600.620    609.977    591.440    591.440
 25.870    662.565    618.859     43.706    591.058    598.976    610.944    591.058    591.058
 25.970    654.000    619.199     34.801    590.680    597.811    612.069    590.680    590.680
 26.070    632.000    619.994     12.006    590.303    596.921    613.377    590.303    590.303
 26.170    587.009    621.179    -34.170    589.930    596.211    614.899    589.930    589.930
 26.270    659.000    622.746     36.254    589.559    595.633    616.672    589.559    589.559
 26.370    554.000    624.713    -70.713    589.191    595.162    618.741    589.191    589.191
 26.470    601.000    627.121    -26.121    588.825    594.781    621.164    588.825    588.825
 26.570    654.000    630.035     23.965    588.462    594.483    624.013    588.462    588.462
 26.670    685.000    633.547     51.453    588.101    594.265    627.380    588.101    588.101
 26.770    622.296    637.768    -15.472    587.743    594.127    631.381    587.743    587.743
 26.870    644.000    642.859      1.141    587.387    594.075    636.168    587.387    587.387
 26.970    633.315    649.040    -15.725    587.034    594.125    641.946    587.034    587.034
 27.070    656.438    656.599     -0.161    586.684    594.289    648.990    586.684    586.684
 27.170    669.000    665.937      3.063    586.336    594.592    657.675    586.336    586.336
 27.270    668.000    677.624     -9.624    585.991    595.074    668.534    585.991    585.991
 27.370    715.142    692.487     22.655    585.648    595.791    682.335    585.648    585.648
 27.470    762.137    711.798     50.339    585.308    596.831    700.263    585.308    585.308
 27.570    714.900    737.840    -22.940    584.970    598.349    724.446    584.970    584.970
 27.670    776.000    776.069     -0.069    584.635    600.718    759.965    584.635    584.635
 27.770    823.000    842.618    -19.618    584.303    605.031    821.853    584.303    584.303
 27.870    922.898    983.649    -60.751    583.973    614.412    953.135    583.973    583.973
 27.970   1260.000   1304.799    -44.799    583.645    636.003   1252.279    583.645    583.645
 28.070   1925.000   1973.212    -48.212    583.320    681.106   1875.106    583.320    583.320
 28.170   3043.000   3116.776    -73.776    582.998    758.383   2940.871    582.998    582.998
 28.270   4533.000   4600.241    -67.241    582.678    858.759   4323.506    582.678    582.678
 28.370   5767.543   5845.487    -77.944    582.361    943.322   5483.957    582.361    582.361
 28.470   6137.000   6094.498     42.502    582.046    961.195   5715.070    582.046    582.046
 28.570   5435.000   5207.482    227.518    581.733    903.653   4885.535    581.733    581.733
 28.670   3993.000   3913.032     79.968    581.424    821.259   3673.253    581.424    581.424
 28.770   2985.655   2991.753     -6.098    581.116    768.506   2804.384    581.116    581.116
 28.870   2661.000   2743.483    -82.483    580.812    766.613   2557.645    580.812    580.812
 28.970   2932.000   3017.990    -85.990    580.509    803.440   2795.024    580.509    580.509
 29.070   3341.686   3397.406    -55.720    580.210    844.080   3133.593    580.210    580.210
 29.170   3582.000   3432.792    149.208    579.912    849.344   3163.550    579.912    579.912
 29.270   2998.000   2978.132     19.868    579.618    806.994   2751.007    579.618    579.618
 29.370   2236.000   2284.433    -48.433    579.325    741.511   2122.469    579.325    579.325
 29.470   1639.153   1651.688    -12.535    579.035    681.644   1549.232    579.035    579.035
 29.570   1138.000   1211.724    -73.724    578.748    640.018   1150.542    578.748    578.748
 29.670    994.000    957.863     36.137    578.463    616.040    920.330    578.463    578.463
 29.770    820.582    827.310     -6.728    578.181    603.765    801.747    578.181    578.181
 29.870    794.000    760.944     33.056    577.901    597.588    741.268    577.901    577.901
 29.970    680.012    723.560    -43.548    577.623    594.179    707.011    577.623    577.623
 30.070    758.000    699.220     58.780    577.348    592.045    684.527    577.348    577.348
 30.170    680.000    681.709     -1.709    577.076    590.623    668.164    577.076    577.076
 30.270    680.000    668.592     11.408    576.806    589.730    655.668    576.806    576.806
 30.370    702.000    658.843     43.157    576.538    589.374    646.005    576.538    576.538
 30.470    633.707    652.234    -18.527    576.273    589.777    638.726    576.273    576.273
 30.570    678.000    649.379     28.621    576.010    591.509    633.872    576.010    576.010
 30.670    641.498    651.865    -10.367    575.750    595.611    631.990    575.750    575.750
 30.770    614.943    661.863    -46.920    575.492    603.396    633.935    575.492    575.492
 30.870    662.000    680.640    -18.640    575.237    615.652    640.187    575.237    575.237
 30.970    679.758    706.002    -26.243    574.983    631.243    649.690    574.983    574.983
 31.070    713.000    729.561    -16.561    574.733    645.615    658.616    574.733    574.733
 31.170    741.000    737.390      3.610    574.485    651.157    660.653    574.485    574.485
 31.270    743.434    721.717     21.717    574.239    643.632    652.271    574.239    574.239
 31.370    700.000    691.582      8.418    573.995    628.029    637.510    573.995    573.995
 31.470    638.834    660.732    -21.897    573.754    611.924    622.536    573.754    573.754
 31.570    640.000    636.646      3.354    573.516    599.446    610.700    573.516    573.516
 31.670    603.348    620.765    -17.417    573.279    591.400    602.635    573.279    573.279
 31.770    662.000    611.354     50.646    573.045    586.845    597.548    573.045    573.045
 31.870    646.000    605.948     40.052    572.814    584.440    594.318    572.814    572.814
 31.970    584.000    602.670    -18.670    572.585    583.161    592.090    572.585    572.585
 32.070    645.000    600.474     44.526    572.358    582.444    590.385    572.358    572.358
 32.170    593.466    598.882     -5.416    572.133    582.034    588.979    572.133    572.133
 32.270    626.000    597.696     28.304    571.911    581.831    587.775    571.911    571.911
 32.370    587.000    596.834     -9.834    571.692    581.797    586.727    571.692    571.692
 32.470    573.821    596.259    -22.438    571.474    581.921    585.810    571.474    571.474
 32.570    600.847    595.958      4.889    571.259    582.206    585.010    571.259    571.259
 32.670    601.000    595.938      5.062    571.046    582.666    584.317    571.046    571.046
 32.770    558.387    596.221    -37.834    570.836    583.328    583.727    570.836    570.836
 32.870    632.298    596.847     35.451    570.628    584.230    583.243    570.628    570.628
 32.970    575.041    597.879    -22.839    570.422    585.429    582.870    570.422    570.422
 33.070    568.857    599.416    -30.558    570.218    587.010    582.622    570.218    570.218
 33.170    615.000    601.607     13.393    570.017    589.099    582.522    570.017    570.017
 33.270    601.000    604.712     -3.712    569.818    591.911    582.616    569.818    569.818
 33.370    609.000    609.240     -0.240    569.621    595.867    582.992    569.621    569.621
 33.470    620.000    616.306      3.694    569.427    601.879    583.850    569.427    569.427
 33.570    691.000    628.316     62.684    569.235    611.919    585.625    569.235    569.235
 33.670    638.000    649.925    -11.925    569.045    629.802    589.159    569.045    569.045
 33.770    679.000    688.549     -9.549    568.857    661.596    595.794    568.857    568.857
 33.870    799.822    752.972     46.850    568.672    714.498    607.121    568.672    568.672
 33.970    817.000    848.726    -31.726    568.489    793.034    624.143    568.489    568.489
 34.070    987.000    970.212     16.788    568.308    892.627    645.843    568.308    568.308
 34.170   1047.346   1091.137    -43.790    568.129    991.754    667.457    568.129    568.129
 34.270   1126.729   1162.475    -35.746    567.953   1050.286    680.096    567.953    567.953
 34.370   1146.000   1143.776      2.224    567.779   1035.100    676.429    567.779    567.779
 34.470   1022.182   1047.131    -24.949    567.607    956.089    658.644    567.607    567.607
 34.570    869.000    921.340    -52.340    567.437    853.198    635.584    567.437    567.437
 34.670    754.567    807.330    -52.763    567.269    759.937    614.669    567.269    567.269
 34.770    692.272    722.700    -30.428    567.104    690.720    599.089    567.104    567.104
 34.870    719.000    667.964     51.036    566.941    645.969    588.939    566.941    566.941
 34.970    651.296    635.733     15.563    566.780    619.637    582.877    566.780    566.780
 35.070    646.000    617.470     28.530    566.621    604.733    579.358    566.621    566.621
 35.170    563.629    606.793    -43.164    566.464    596.034    577.223    566.464    566.464
 35.270    669.000    599.983     69.017    566.310    590.493    575.799    566.310    566.310
 35.370    615.732    595.193     20.539    566.157    586.599    574.751    566.157    566.157
 35.470    598.000    591.577      6.423    566.007    583.657    573.926    566.007    566.007
 35.570    565.741    588.731    -22.989    565.859    581.339    573.250    565.859    565.859
 35.670    579.000    586.437     -7.437    565.713    579.464    572.686    565.713    565.713
 35.770    540.000    584.562    -44.562    565.569    577.921    572.208    565.569    565.569
 35.870    577.000    583.010     -6.010    565.427    576.635    571.802    565.427    565.427
 35.970    595.000    581.718     13.282    565.287    575.549    571.456    565.287    565.287
 36.070    585.000    580.636      4.364    565.150    574.623    571.162    565.150    565.150
 36.170    584.313    579.731      4.582    565.014    573.828    570.916    565.014    565.014
 36.270    623.862    578.975     44.886    564.881    573.140    570.716    564.881    564.881
 36.370    608.393    578.353     30.040    564.749    572.541    570.561    564.749    564.749
 36.470    563.000    577.852    -14.852    564.620    572.020    570.451    564.620    564.620
 36.570    608.000    577.465     30.535    564.493    571.566    570.391    564.493    564.493
 36.670    593.243    577.192     16.052    564.368    571.173    570.386    564.368    564.368
 36.770    574.000    577.036     -3.036    564.244    570.836    570.443    564.244    564.244
 36.870    580.000    577.008      2.992    564.123    570.556    570.575    564.123    564.123
 36.970    503.000    577.130    -74.130    564.004    570.335    570.799    564.004    564.004
 37.070    595.000    577.439     17.561    563.887    570.188    571.138    563.887    563.887
 37.170    613.376    578.007     35.369    563.772    570.146    571.633    563.772    563.772
 37.270    598.000    578.971     19.029    563.659    570.276    572.354    563.659    563.659
 37.370    605.000    580.589     24.411    563.548    570.694    573.443    563.548    563.548
 37.470    605.000    583.323     21.677    563.439    571.569    575.193    563.439    563.439
 37.570    594.363    587.933      6.431    563.332    573.082    578.182    563.332    563.332
 37.670    613.000    595.517     17.483    563.226    575.337    583.406    563.226    563.226
 37.770    584.000    607.370    -23.370    563.123    578.209    592.283    563.123    563.123
 37.870    610.000    624.444    -14.444    563.022    581.160    606.303    563.022    563.022
 37.970    614.000    646.469    -32.469    562.923    583.178    626.210    562.923    562.923
 38.070    704.050    671.235     32.815    562.825    583.324    650.732    562.825    562.825
 38.170    687.000    693.972     -6.972    562.730    581.596    675.102    562.730    562.730
 38.270    702.393    706.949     -4.556    562.636    578.819    690.765    562.636    562.636
 38.370    713.394    703.230     10.164    562.544    575.826    689.949    562.544    562.544
 38.470    638.000    683.731    -45.731    562.455    573.131    673.058    562.455    562.455
 38.570    657.000    656.792      0.208    562.367    570.987    648.177    562.367    562.367
 38.670    638.000    630.770      7.230    562.281    569.437    623.617    562.281    562.281
 38.770    573.000    610.034    -37.034    562.197    568.384    603.849    562.197    562.197
 38.870    580.000    595.527    -15.527    562.114    567.689    589.954    562.114    562.114
 38.970    560.000    586.292    -26.292    562.034    567.225    581.102    562.034    562.034
 39.070    542.000    580.735    -38.735    561.955    566.904    575.787    561.955    561.955
 39.170    565.406    577.409    -12.003    561.879    566.668    572.620    561.879    561.879
 39.270    580.000    575.317      4.683    561.804    566.486    570.635    561.804    561.804
 39.370    543.786    573.888    -30.101    561.731    566.338    569.280    561.731    561.731
 39.470    574.364    572.832      1.531    561.659    566.216    568.276    561.659    561.659
 39.570    594.863    572.010     22.853    561.590    566.114    567.486    561.590    561.590
 39.670    534.711    571.349    -36.639    561.522    566.030    566.842    561.522    561.522
 39.770    559.814    570.809    -10.995    561.456    565.960    566.306    561.456    561.456
 39.870    580.815    570.363     10.452    561.392    565.904    565.852    561.392    561.392
 39.970    541.000    569.992    -28.992    561.330    565.860    565.462    561.330    561.330
 40.070    537.000    569.684    -32.684    561.269    565.830    565.124    561.269    561.269
 40.170    578.000    569.427      8.573    561.211    565.811    564.827    561.211    561.211
 40.270    550.723    569.216    -18.493    561.153    565.804    564.565    561.153    561.153
 40.370    564.000    569.041     -5.041    561.098    565.808    564.332    561.098    561.098
 40.470    531.000    568.903    -37.903    561.044    565.825    564.122    561.044    561.044
 40.570    542.310    568.800    -26.490    560.992    565.859    563.934    560.992    560.992
 40.670    572.459    568.730      3.729    560.942    565.910    563.763    560.942    560.942
 40.770    604.946    568.691     36.255    560.894    565.978    563.607    560.894    560.894
 40.870    548.469    568.684    -20.215    560.847    566.066    563.465    560.847    560.847
 40.970    550.530    568.710    -18.180    560.801    566.176    563.336    560.801    560.801
 41.070    588.000    568.771     19.229    560.758    566.312    563.217    560.758    560.758
 41.170    540.000    568.872    -28.872    560.716    566.479    563.109    560.716    560.716
 41.270    606.893    569.017     37.876    560.676    566.683    563.010    560.676    560.676
 41.370    585.000    569.213     15.787    560.637    566.931    562.920    560.637    560.637
 41.470    542.252    569.471    -27.219    560.600    567.233    562.839    560.600    560.600
 41.570    542.942    569.804    -26.862    560.565    567.602    562.767    560.565    560.565
 41.670    556.000    570.231    -14.231    560.531    568.059    562.704    560.531    560.531
 41.770    549.000    570.781    -21.781    560.499    568.631    562.651    560.499    560.499
 41.870    545.000    571.507    -26.507    560.468    569.369    562.609    560.468    560.468
 41.970    532.416    572.506    -40.089    560.439    570.366    562.581    560.439    560.439
 42.070    515.000    573.970    -58.970    560.411    571.809    562.576    560.411    560.411
 42.170    574.339    576.272     -1.933    560.385    574.056    562.606    560.385    560.385
 42.270    615.552    580.059     35.493    560.361    577.731    562.695    560.361    560.361
 42.370    611.439    586.300     25.139    560.338    583.766    562.880    560.338    560.338
 42.470    597.928    596.164      1.764    560.317    593.289    563.205    560.317    560.317
 42.570    595.000    610.628    -15.628    560.297    607.238    563.706    560.297    560.297
 42.670    673.418    629.789     43.630    560.279    625.708    564.387    560.279    560.279
 42.770    659.636    651.959      7.677    560.262    647.075    565.185    560.262    560.262
 42.870    719.702    672.736     46.967    560.247    667.100    565.932    560.247    560.247
 42.970    699.700    685.219     14.481    560.233    679.139    566.371    560.233    560.233
 43.070    664.560    683.807    -19.247    560.220    677.798    566.290    560.220    560.220
 43.170    603.000    669.263    -66.263    560.209    663.809    565.718    560.209    560.209
 43.270    676.000    647.857     28.143    560.200    643.211    564.891    560.200    560.200
 43.370    643.000    626.103     16.897    560.192    622.275    564.053    560.192    560.192
 43.470    623.926    607.835     16.091    560.185    604.695    563.349    560.185    560.185
 43.570    595.000    594.336      0.664    560.180    591.705    562.826    560.180    560.180
 43.670    543.621    585.288    -41.667    560.176    583.000    562.474    560.176    560.176
 43.770    613.280    579.638     33.642    560.174    577.567    562.252    560.174    560.174
 43.870    590.238    576.239     13.998    560.173    574.300    562.117    560.173    560.173
 43.970    585.000    574.182     10.818    560.173    572.324    562.034    560.173    560.173
 44.070    591.000    572.878     18.122    560.175    571.072    561.983    560.175    560.175
 44.170    589.519    571.995     17.524    560.178    570.225    561.950    560.178    560.178
 44.270    557.625    571.363    -13.738    560.182    569.618    561.929    560.182    560.182
 44.370    597.000    570.894     26.106    560.188    569.168    561.916    560.188    560.188
 44.470    601.144    570.543     30.601    560.195    568.829    561.910    560.195    560.195
 44.570    583.000    570.282     12.718    560.203    568.576    561.910    560.203    560.203
 44.670    579.000    570.093      8.907    560.213    568.392    561.915    560.213    560.213
 44.770    565.000    569.963     -4.963    560.224    568.263    561.925    560.224    560.224
 44.870    565.000    569.883     -4.883    560.236    568.180    561.939    560.236    560.236
 44.970    607.994    569.845     38.148    560.249    568.137    561.958    560.249    560.249
 45.070    618.000    569.845     48.155    560.264    568.129    561.981    560.264    560.264
 45.170    548.549    569.878    -21.329    560.280    568.151    562.007    560.280    560.280
 45.270    582.573    569.942     12.631    560.297    568.201    562.038    560.297    560.297
 45.370    574.567    570.034      4.533    560.315    568.277    562.072    560.315    560.315
 45.470    560.000    570.153    -10.153    560.335    568.377    562.111    560.335    560.335
 45.570    598.650    570.298     28.351    560.356    568.501    562.153    560.356    560.356
 45.670    585.000    570.470     14.530    560.378    568.648    562.200    560.378    560.378
 45.770    563.000    570.669     -7.669    560.401    568.818    562.252    560.401    560.401
 45.870    589.000    570.895     18.105    560.426    569.012    562.308    560.426    560.426
 45.970    603.048    571.150     31.899    560.451    569.232    562.369    560.451    560.451
 46.070    614.000    571.435     42.565    560.478    569.478    562.435    560.478    560.478
 46.170    597.000    571.753     25.247    560.506    569.752    562.506    560.506    560.506
 46.270    594.000    572.108     21.892    560.535    570.058    562.584    560.535    560.535
 46.370    594.000    572.504     21.496    560.565    570.399    562.669    560.565    560.565
 46.470    565.000    572.945     -7.945    560.596    570.780    562.760    560.596    560.596
 46.570    572.000    573.439     -1.439    560.628    571.206    562.860    560.628    560.628
 46.670    587.295    573.995     13.300    560.662    571.685    562.970    560.662    560.662
 46.770    574.000    574.623     -0.623    560.696    572.228    563.090    560.696    560.696
 46.870    603.000    575.342     27.658    560.732    572.850    563.222    560.732    560.732
 46.970    589.000    576.176     12.824    560.768    573.572    563.370    560.768    560.768
 47.070    578.197    577.170      1.026    560.806    574.436    563.538    560.806    560.806
 47.170    544.822    578.407    -33.585    560.845    575.514    563.735    560.845    560.845
 47.270    538.592    580.038    -41.446    560.884    576.944    563.974    560.884    560.884
 47.370    584.000    582.332      1.668    560.925    578.968    564.283    560.925    560.925
 47.470    586.757    585.715      1.042    560.967    581.971    564.704    560.967    560.967
 47.570    611.021    590.774     20.247    561.009    586.481    565.292    561.009    561.009
 47.670    639.000    598.168     40.832    561.053    593.093    566.112    561.053    561.053
 47.770    598.000    608.410    -10.410    561.098    602.271    567.214    561.098    561.098
 47.870    669.112    621.526     47.587    561.143    614.037    568.601    561.143    561.143
 47.970    663.872    636.636     27.236    561.190    627.593    570.193    561.190    561.190
 48.070    642.000    651.533     -9.533    561.237    640.943    571.778    561.237    561.237
 48.170    669.000    662.629      6.371    561.286    650.843    573.018    561.286    561.286
 48.270    703.000    666.262     36.738    561.335    653.978    573.564    561.335    561.335
 48.370    659.000    661.404     -2.404    561.385    649.417    573.323    561.385    561.385
 48.470    639.000    650.725    -11.725    561.436    639.568    572.553    561.436    561.436
 48.570    620.000    638.271    -18.271    561.488    628.081    571.647    561.488    561.488
 48.670    618.000    627.097     -9.097    561.541    617.712    570.903    561.541    561.541
 48.770    614.000    618.778     -4.778    561.595    609.876    570.480    561.595    561.595
 48.870    567.000    613.774    -46.774    561.649    604.977    570.434    561.649    561.649
 48.970    587.440    611.878    -24.438    561.705    602.815    570.759    561.705    561.705
 49.070    577.000    612.614    -35.614    561.761    602.937    571.431    561.761    561.761
 49.170    526.000    615.552    -89.552    561.818    604.927    572.437    561.818    561.818
 49.270    595.000    620.530    -25.530    561.876    608.589    573.811    561.876    561.876
 49.370    608.787    627.900    -19.113    561.934    614.144    575.684    561.934    561.934
 49.470    598.789    639.003    -40.213    561.994    622.586    578.402    561.994    561.994
 49.570    703.979    657.231     46.748    562.054    636.486    582.787    562.054    562.054
 49.670    675.000    689.963    -14.963    562.115    661.458    590.598    562.115    562.115
 49.770    717.000    751.099    -34.099    562.176    708.096    605.141    562.176    562.176
 49.870    831.000    862.662    -31.662    562.239    793.190    631.645    562.239    562.239
 49.970   1005.000   1052.279    -47.279    562.302    937.841    676.632    562.302    562.302
 50.070   1287.000   1343.495    -56.495    562.366   1159.990    745.714    562.366    562.366
 50.170   1692.000   1738.649    -46.649    562.430   1461.330    839.551    562.430    562.430
 50.270   2195.000   2199.711     -4.711    562.496   1812.952    949.044    562.496    562.496
 50.370   2588.000   2638.256    -50.256    562.562   2147.470   1053.174    562.562    562.562
 50.470   2937.536   2928.107      9.429    562.628   2368.708   1121.952    562.628    562.628
 50.570   2907.000   2960.586    -53.586    562.695   2393.810   1129.524    562.695    562.695
 50.670   2635.000   2721.970    -86.970    562.763   2212.311   1072.576    562.763    562.763
 50.770   2336.000   2306.450     29.550    562.832   1896.065    973.415    562.832    562.832
 50.870   1851.000   1844.258      6.742    562.901   1544.452    862.899    562.901    562.901
 50.970   1388.000   1435.016    -47.016    562.971   1233.533    764.610    562.971    562.971
 51.070   1077.000   1127.513    -50.513    563.041   1000.587    690.082    563.041    563.041
 51.170    967.000    926.663     40.337    563.112    849.356    640.497    563.112    563.112
 51.270    818.459    811.229      7.230    563.183    763.504    610.964    563.183    563.183
 51.370    790.000    751.898     38.102    563.255    720.326    594.870    563.255    563.255
 51.470    769.000    722.886     46.114    563.328    699.583    586.668    563.328    563.328
 51.570    717.000    706.404     10.596    563.401    687.052    582.787    563.401    563.401
 51.670    716.000    693.137     22.863    563.475    675.283    581.358    563.475    563.475
 51.770    721.075    680.471     40.604    563.549    662.498    581.546    563.549    563.549
 51.870    734.000    669.056     64.944    563.624    649.747    582.949    563.624    563.624
 51.970    693.000    659.916     33.084    563.699    638.431    585.193    563.699    563.699
 52.070    664.000    653.339     10.661    563.775    629.408    587.710    563.775    563.775
 52.170    612.111    648.763    -36.652    563.851    622.945    589.668    563.851    563.851
 52.270    692.000    645.132     46.868    563.928    618.900    590.157    563.928    563.928
 52.370    686.000    641.648     44.352    564.005    616.928    588.721    564.005    564.005
 52.470    653.972    638.340     15.632    564.083    616.673    585.747    564.083    564.083
 52.570    669.000    635.847     33.153    564.161    617.915    582.092    564.161    564.161
 52.670    650.000    634.975     15.025    564.239    620.678    578.536    564.239    564.239
 52.770    677.000    636.598     40.402    564.318    625.348    575.568    564.318    564.318
 52.870    628.704    641.834    -13.130    564.397    632.836    573.395    564.397    564.397
 52.970    677.000    652.351     24.649    564.477    644.804    572.023    564.477    564.477
 53.070    642.238    670.671    -28.433    564.557    663.869    571.358    564.557    564.557
 53.170    741.000    700.271     40.729    564.638    693.608    571.298    564.638    564.638
 53.270    766.000    745.190     20.810    564.718    738.129    571.774    564.718    564.718
 53.370    837.516    808.976     28.540    564.800    801.013    572.757    564.800    564.800
 53.470    876.000    892.966    -16.966    564.881    883.633    574.208    564.881    564.881
 53.570    938.000    994.128    -56.128    564.963    983.077    576.008    564.963    564.963
 53.670   1168.000   1102.849     65.151    565.045   1089.935    577.956    565.045    565.045
 53.770   1244.000   1201.265     42.735    565.127   1186.608    579.788    565.127    565.127
 53.870   1234.000   1264.788    -30.788    565.210   1249.043    580.969    565.210    565.210
 53.970   1262.649   1272.487     -9.838    565.293   1256.717    581.086    565.293    565.293
 54.070   1232.000   1221.526     10.474    565.376   1206.851    580.082    565.376    565.376
 54.170   1137.170   1129.675      7.495    565.460   1116.869    578.298    565.460    565.460
 54.270   1014.000   1022.108     -8.108    565.543   1011.461    576.219    565.543    565.543
 54.370    913.407    918.824     -5.416    565.627    910.244    574.231    565.627    565.627
 54.470    865.687    831.256     34.431    565.712    824.432    572.554    565.712    565.712
 54.570    767.000    763.690      3.310    565.796    758.230    571.270    565.796    565.796
 54.670    688.000    715.533    -27.533    565.881    711.056    570.367    565.881    565.881
 54.770    703.000    683.477     19.523    565.965    679.668    569.780    565.965    565.965
 54.870    696.961    663.332     33.629    566.050    659.959    569.427    566.050    566.050
 54.970    687.378    651.264     36.115    566.135    648.168    569.234    566.135    566.135
 55.070    603.497    644.363    -40.866    566.221    641.441    569.144    566.221    566.221
 55.170    646.000    640.713      5.287    566.306    637.901    569.120    566.306    566.306
 55.270    607.211    639.191    -31.979    566.392    636.446    569.138    566.392    566.392
 55.370    667.000    639.202     27.798    566.478    636.493    569.188    566.478    566.478
 55.470    634.000    640.479     -6.479    566.563    637.781    569.262    566.563    566.563
 55.570    627.000    642.941    -15.941    566.649    640.231    569.359    566.649    566.649
 55.670    632.000    646.641    -14.641    566.735    643.897    569.480    566.735    566.735
 55.770    633.000    651.766    -18.766    566.822    648.963    569.625    566.822    566.822
 55.870    665.000    658.707      6.293    566.908    655.815    569.800    566.908    566.908
 55.970    639.000    668.236    -29.236    566.994    665.213    570.016    566.994    566.994
 56.070    653.287    681.846    -28.559    567.080    678.631    570.293    567.080    567.080
 56.170    686.000    702.299    -16.299    567.167    698.792    570.670    567.167    567.167
 56.270    721.000    734.367    -13.367    567.253    730.400    571.214    567.253    567.253
 56.370    795.000    785.542      9.458    567.339    780.843    572.028    567.339    567.339
 56.470    841.000    866.237    -25.237    567.426    860.387    573.257    567.426    567.426
 56.570   1024.098    988.774     35.324    567.512    981.182    575.074    567.512    567.512
 56.670   1141.000   1164.562    -23.562    567.599   1154.481    577.638    567.599    567.599
 56.770   1393.000   1399.434     -6.434    567.685   1386.036    581.030    567.685    567.685
 56.870   1682.000   1687.962     -5.962    567.771   1670.498    585.176    567.771    567.771
 56.970   2040.752   2008.002     32.749    567.858   1986.036    589.769    567.858    567.858
 57.070   2346.000   2316.554     29.446    567.944   2290.252    594.212    567.944    567.944
 57.170   2492.000   2550.453    -58.453    568.030   2520.864    597.628    568.030    568.030
 57.270   2718.000   2643.195     74.805    568.116   2612.290    599.093    568.116    568.116
 57.370   2555.000   2563.231     -8.231    568.202   2533.399    598.172    568.202    568.202
 57.470   2311.000   2338.883    -27.883    568.288   2312.093    595.261    568.288    568.288
 57.570   2114.640   2035.571     79.069    568.374   2012.867    591.276    568.374    568.374
 57.670   1740.009   1717.303     22.706    568.459   1698.832    587.117    568.459    568.459
 57.770   1423.000   1428.573     -5.573    568.545   1413.854    583.422    568.545    568.545
 57.870   1117.000   1192.995    -75.995    568.630   1181.190    580.558    568.630    568.630
 57.970    960.000   1017.317    -57.317    568.715   1007.423    578.698    568.715    568.715
 58.070    864.000    896.968    -32.968    568.800    887.897    577.931    568.800    568.800
 58.170    801.000    821.959    -20.959    568.885    812.497    578.384    568.885    568.885
 58.270    745.000    781.836    -36.836    568.970    770.503    580.322    568.970    568.970
 58.370    821.000    768.698     52.302    569.054    753.581    584.176    569.054    569.054
 58.470    763.000    778.111    -15.111    569.139    756.776    590.464    569.139    569.139
 58.570    864.000    808.313     55.687    569.223    777.957    599.557    569.223    569.223
 58.670    876.000    858.521     17.479    569.307    816.423    611.372    569.307    569.307
 58.770    949.950    926.964     22.986    569.390    871.242    625.069    569.390    569.390
 58.870    986.000   1009.174    -23.174    569.474    939.721    638.878    569.474    569.474
 58.970   1035.034   1097.034    -62.000    569.557   1016.349    650.194    569.557    569.557
 59.070   1100.000   1179.681    -79.681    569.640   1093.069    656.214    569.640    569.640
 59.170   1269.000   1247.166     21.834    569.722   1161.615    655.253    569.722    569.722
 59.270   1275.000   1293.742    -18.742    569.805   1215.719    647.828    569.805    569.805
 59.370   1367.000   1316.651     50.349    569.887   1250.340    636.218    569.887    569.887
 59.470   1350.303   1314.086     36.217    569.968   1260.962    623.128    569.968    569.968
 59.570   1310.000   1287.931     22.069    570.050   1247.283    610.742    570.050    570.050
 59.670   1263.202   1247.486     15.716    570.131   1217.254    600.402    570.131    570.131
 59.770   1254.000   1207.061     46.939    570.211   1184.674    592.618    570.211    570.211
 59.870   1112.113   1179.999    -67.885    570.292   1163.031    587.246    570.292    570.292
 59.970   1234.000   1175.266     58.734    570.372   1161.814    583.770    570.372    570.372
 60.070   1218.000   1197.663     20.337    570.451   1186.429    581.584    570.451    570.451
 60.170   1316.000   1248.929     67.071    570.531   1239.110    580.198    570.531    570.531
 60.270   1332.742   1326.764      5.978    570.609   1317.877    579.294    570.609    570.609
 60.370   1356.998   1421.900    -64.902    570.688   1413.640    578.700    570.688    570.688
 60.470   1491.271   1516.032    -24.761    570.766   1508.193    578.327    570.766    570.766
 60.570   1560.328   1583.124    -22.796    570.844   1575.557    578.126    570.844    570.844
 60.670   1559.943   1596.955    -37.012    570.921   1589.547    578.066    570.921    570.921
 60.770   1567.152   1545.164     21.988    570.998   1537.815    578.131    570.998    570.998
 60.870   1382.122   1437.719    -55.596    571.074   1430.317    578.316    571.074    571.074
 60.970   1315.935   1299.056     16.878    571.150   1291.469    578.630    571.150    571.150
 61.070   1154.765   1154.484      0.281    571.225   1146.549    579.094    571.225    571.225
 61.170    994.000   1022.983    -28.983    571.300   1014.491    579.753    571.300    571.300
 61.270    894.000    915.822    -21.822    571.374    906.479    580.695    571.374    571.374
 61.370    798.615    837.571    -38.956    571.448    826.921    582.080    571.448    571.448
 61.470    800.000    788.199     11.801    571.522    775.513    584.188    571.522    571.522
 61.570    778.000    765.652     12.348    571.595    749.758    587.463    571.595    571.595
 61.670    796.000    768.132     27.868    571.667    747.220    592.541    571.667    571.667
 61.770    839.000    795.401     43.599    571.739    766.850    600.234    571.739    571.739
 61.870    900.590    848.785     51.805    571.810    809.099    611.417    571.810    571.810
 61.970    925.000    929.945     -4.945    571.881    874.911    626.806    571.881    571.881
 62.070   1039.000   1038.795      0.205    571.951    963.957    646.647    571.951    571.951
 62.170   1081.000   1171.179    -90.179    572.021   1072.659    670.363    572.021    572.021
 62.270   1347.000   1316.860     30.140    572.090   1192.481    696.259    572.090    572.090
 62.370   1403.000   1458.324    -55.324    572.158   1308.911    721.342    572.158    572.158
 62.470   1576.000   1571.428      4.572    572.226   1401.972    741.450    572.226    572.226
 62.570   1688.000   1630.535     57.465    572.293   1450.460    752.157    572.293    572.293
 62.670   1586.686   1619.512    -32.826    572.360   1441.026    750.675    572.360    572.360
 62.770   1463.000   1541.327    -78.327    572.426   1376.102    737.525    572.426    572.426
 62.870   1402.000   1415.958    -13.958    572.491   1272.190    716.177    572.491    572.491
 62.970   1265.610   1269.260     -3.650    572.556   1150.650    691.117    572.556    572.556
 63.070   1095.778   1123.561    -27.783    572.620   1029.934    666.221    572.620    572.620
 63.170    943.000    994.031    -51.031    572.684    922.576    644.126    572.684    572.684
 63.270    833.966    888.560    -54.594    572.746    835.096    626.205    572.746    572.746
 63.370    775.870    809.026    -33.156    572.808    769.041    612.789    572.808    572.808
 63.470    726.094    753.159    -27.065    572.870    722.534    603.489    572.870    572.870
 63.570    683.000    716.567    -33.567    572.930    691.938    597.551    572.930    572.930
 63.670    715.765    694.470     21.295    572.990    673.299    594.151    572.990    572.990
 63.770    714.000    682.870     31.130    573.049    663.298    592.608    573.049    573.049
 63.870    708.213    679.110     29.103    573.108    659.713    592.489    573.108    573.108
 63.970    677.000    682.080     -5.080    573.166    661.557    593.667    573.166    573.166
 64.070    649.606    692.041    -42.435    573.223    668.911    596.326    573.223    573.223
 64.170    753.000    710.421     42.579    573.279    682.694    600.971    573.279    573.279
 64.270    796.000    739.483     56.517    573.334    704.349    608.420    573.334    573.334
 64.370    760.000    781.812    -21.812    573.389    735.391    619.746    573.389    573.389
 64.470    927.000    839.602     87.398    573.443    776.844    636.116    573.443    573.443
 64.570    952.684    913.731     38.954    573.496    828.598    658.519    573.496    573.496
 64.670    967.113   1002.718    -35.605    573.548    888.749    687.384    573.548    573.548
 64.770   1073.225   1101.711    -28.487    573.600    953.010    722.145    573.600    573.600
 64.870   1227.000   1201.776     25.224    573.651   1014.399    760.855    573.651    573.651
 64.970   1323.000   1290.185     32.815    573.701   1063.785    799.921    573.701    573.701
 65.070   1363.000   1352.713     10.287    573.750   1092.182    834.107    573.750    573.750
 65.170   1326.035   1377.918    -51.883    573.798   1094.391    857.171    573.798    573.798
 65.270   1353.000   1361.315     -8.315    573.845   1071.311    863.723    573.845    573.845
 65.370   1289.190   1307.228    -18.038    573.892   1029.088    851.939    573.892    573.892
 65.470   1190.000   1227.244    -37.244    573.937    976.341    824.779    573.937    573.937
 65.570   1167.870   1135.604     32.265    573.982    921.334    788.218    573.982    573.982
 65.670   1032.000   1044.513    -12.513    574.026    870.070    748.456    574.026    574.026
 65.770    958.000    961.936     -3.936    574.069    825.685    710.324    574.069    574.069
 65.870    887.000    891.595     -4.595    574.111    788.809    676.911    574.111    574.111
 65.970    812.000    834.098    -22.098    574.152    758.558    649.712    574.152    574.152
 66.070    744.000    788.418    -44.418    574.193    733.692    628.939    574.193    574.193
 66.170    748.000    752.992     -4.992    574.232    713.310    613.932    574.232    574.232
 66.270    720.000    726.176     -6.176    574.271    696.879    603.582    574.271    574.271
 66.370    689.961    706.372    -16.411    574.308    684.007    596.683    574.308    574.308
 66.470    696.263    692.155      4.107    574.345    674.341    592.165    574.345    574.345
 66.570    651.000    682.383    -31.383    574.380    667.570    589.197    574.380    574.380
 66.670    631.810    676.223    -44.413    574.415    663.438    587.200    574.415    574.415
 66.770    659.000    673.118    -14.118    574.449    661.763    585.803    574.449    574.449
 66.870    629.000    672.760    -43.760    574.481    662.457    584.784    574.481    574.481
 66.970    623.000    675.108    -52.108    574.513    665.601    584.019    574.513    574.513
 67.070    716.516    680.488     36.028    574.544    671.584    583.447    574.544    574.544
 67.170    677.000    689.760    -12.760    574.573    681.287    583.045    574.573    574.573
 67.270    705.196    704.556      0.640    574.602    696.338    582.819    574.602    574.602
 67.370    770.209    727.553     42.656    574.630    719.381    582.800    574.630    574.630
 67.470    737.000    762.698    -25.698    574.657    754.303    583.047    574.657    574.657
 67.570    797.000    815.257    -18.257    574.682    806.289    583.643    574.682    574.682
 67.670    944.546    891.511     53.035    574.707    881.516    584.692    574.707    574.707
 67.770   1010.456    997.933     12.523    574.731    986.349    586.301    574.731    574.731
 67.870   1117.131   1139.767    -22.636    574.753   1125.949    588.556    574.753    574.753
 67.970   1359.000   1319.154     39.846    574.775   1302.424    591.492    574.775    574.775
 68.070   1495.000   1533.070    -38.070    574.795   1512.808    595.052    574.795    574.795
 68.170   1808.000   1771.454     36.546    574.814   1747.220    599.059    574.814    574.814
 68.270   2040.000   2015.783     24.217    574.833   1987.468    603.185    574.833    574.833
 68.370   2239.370   2238.576      0.794    574.850   2206.552    606.950    574.850    574.850
 68.470   2427.716   2405.571     22.145    574.866   2370.810    609.754    574.866    574.866
 68.570   2554.000   2483.831     70.169    574.881   2447.876    611.019    574.881    574.881
 68.670   2421.930   2455.482    -33.552    574.895   2420.179    610.432    574.895    574.895
 68.770   2239.000   2327.411    -88.411    574.908   2294.474    608.112    574.908    574.908
 68.870   2086.583   2127.138    -40.555    574.920   2097.794    604.538    574.920    574.920
 68.970   1852.374   1889.498    -37.124    574.930   1864.372    600.319    574.930    574.930
 69.070   1735.000   1645.620     89.380    574.940   1624.798    595.997    574.940    574.940
 69.170   1463.000   1418.329     44.671    574.948   1401.506    591.969    574.948    574.948
 69.270   1237.000   1221.613     15.387    574.955   1208.247    588.482    574.955    574.955
 69.370   1079.000   1061.670     17.330    574.961   1051.114    585.641    574.961    574.961
 69.470    956.000    938.590     17.410    574.966    930.199    583.448    574.966    574.966
 69.570    898.000    848.369     49.631    574.970    841.571    581.833    574.970    574.970
 69.670    873.000    784.915     88.085    574.972    779.243    580.689    574.972    574.972
 69.770    769.561    741.704     27.857    574.973    736.806    579.903    574.973    574.973
 69.870    747.000    712.884     34.116    574.974    708.507    579.371    574.974    574.974
 69.970    754.000    693.798     60.202    574.973    689.771    579.013    574.973    574.973
 70.070    745.000    681.078     63.922    574.970    677.289    578.769    574.970    574.970
 70.170    724.000    672.472     51.528    574.967    668.846    578.600    574.967    574.967
 70.270    695.000    666.567     28.433    574.962    663.055    578.478    574.962    574.962
 70.370    714.000    662.534     51.466    574.956    659.100    578.393    574.956    574.956
 70.470    686.000    659.915     26.085    574.949    656.526    578.339    574.949    574.949
 70.570    623.343    658.476    -35.133    574.941    655.107    578.309    574.941    574.941
 70.670    722.000    658.144     63.856    574.932    654.770    578.303    574.932    574.932
 70.770    627.192    658.978    -31.787    574.921    655.572    578.324    574.921    574.921
 70.870    702.000    661.187     40.813    574.909    657.714    578.375    574.909    574.909
 70.970    697.731    665.189     32.542    574.896    661.607    578.469    574.896    574.896
 71.070    657.767    671.714    -13.947    574.881    667.962    578.622    574.881    574.881
 71.170    702.000    681.932     20.068    574.866    677.919    578.862    574.866    574.866
 71.270    647.196    697.601    -50.405    574.849    693.194    579.232    574.849    574.849
 71.370    687.843    721.181    -33.338    574.830    716.188    579.789    574.830    574.830
 71.470    755.000    755.854     -0.854    574.811    750.007    580.611    574.811    574.811
 71.570    844.000    805.363     38.637    574.790    798.302    581.786    574.790    574.790
 71.670    928.000    873.591     54.409    574.768    864.866    583.407    574.768    574.768
 71.770    994.000    963.857     30.143    574.745    952.936    585.553    574.745    574.745
 71.870   1072.000   1077.960     -5.960    574.720   1064.270    588.267    574.720    574.720
 71.970   1275.977   1215.119     60.858    574.694   1198.105    591.533    574.694    574.694
 72.070   1436.399   1370.961     65.438    574.667   1350.175    595.247    574.667    574.667
 72.170   1451.000   1536.707    -85.707    574.638   1511.909    599.204    574.638    574.638
 72.270   1634.000   1698.631    -64.631    574.608   1669.912    603.080    574.608    574.608
 72.370   1834.000   1838.214     -4.214    574.577   1806.103    606.438    574.577    574.577
 72.470   1850.787   1934.228    -83.442    574.545   1899.759    608.777    574.545    574.545
 72.570   1960.785   1968.411     -7.625    574.511   1933.046    609.667    574.511    574.511
 72.670   1943.369   1933.361     10.008    574.476   1898.731    608.932    574.476    574.476
 72.770   1850.236   1836.534     13.703    574.439   1804.085    606.752    574.439    574.439
 72.870   1663.000   1696.218    -33.218    574.401   1666.960    603.557    574.401    574.401
 72.970   1544.000   1533.629     10.371    574.362   1508.070    599.847    574.362    574.362
 73.070   1382.000   1367.251     14.749    574.322   1345.469    596.052    574.322    574.322
 73.170   1147.000   1210.756    -63.756    574.280   1192.515    592.485    574.280    574.280
 73.270   1090.797   1072.863     17.934    574.237   1057.740    589.336    574.237    574.237
 73.370    924.133    957.892    -33.759    574.192    945.372    586.696    574.192    574.192
 73.470    859.000    866.590     -7.590    574.146    856.150    584.574    574.146    574.146
 73.570    747.000    797.155    -50.155    574.099    788.310    582.934    574.099    574.099
 73.670    725.000    746.304    -21.304    574.050    738.631    581.715    574.050    574.050
 73.770    747.014    710.210     36.804    574.000    703.351    580.853    574.000    574.000
 73.870    657.368    685.202    -27.834    573.949    678.858    580.287    573.949    573.949
 73.970    639.000    668.174    -29.174    573.896    662.092    579.974    573.896    573.896
 74.070    680.000    656.750     23.250    573.842    650.702    579.887    573.842    573.842
 74.170    668.000    649.251     18.749    573.786    643.024    580.013    573.786    573.786
 74.270    662.000    644.574     17.426    573.729    637.953    580.353    573.729    573.729
 74.370    657.000    642.029     14.971    573.671    634.795    580.911    573.671    573.671
 74.470    625.000    641.179    -16.179    573.611    633.114    581.686    573.611    573.611
 74.570    677.881    641.714     36.168    573.550    632.610    582.668    573.550    573.550
 74.670    690.600    643.350     47.250    573.488    633.033    583.824    573.488    573.488
 74.770    627.000    645.767    -18.767    573.424    634.116    585.100    573.424    573.424
 74.870    611.000    648.566    -37.566    573.358    635.544    586.411    573.358    573.358
 74.970    690.160    651.248     38.912    573.291    636.932    587.644    573.291    573.291
 75.070    682.000    653.251     28.749    573.223    637.849    588.666    573.223    573.223
 75.170    714.000    654.053     59.947    573.154    637.895    589.355    573.154    573.154
 75.270    652.846    653.359     -0.513    573.083    636.835    589.650    573.083    573.083
 75.370    705.000    651.244     53.756    573.010    634.710    589.585    573.010    573.010
 75.470    711.000    648.158     62.842    572.936    631.833    589.299    572.936    572.936
 75.570    685.516    644.789     40.727    572.861    628.682    588.999    572.861    572.861
 75.670    637.000    641.915     -4.915    572.784    625.794    588.930    572.784    572.784
 75.770    643.000    640.328      2.672    572.706    623.695    589.356    572.706    572.706
 75.870    634.497    640.822     -6.325    572.626    622.896    590.561    572.626    572.626
 75.970    667.000    644.195     22.805    572.545    623.890    592.851    572.545    572.545
 76.070    690.000    651.236     38.764    572.463    627.147    596.544    572.463    572.463
 76.170    696.178    662.679     33.500    572.379    633.095    601.945    572.379    572.379
 76.270    702.555    679.111     23.444    572.294    642.064    609.312    572.294    572.294
 76.370    655.000    700.856    -45.856    572.207    654.228    618.795    572.207    572.207
 76.470    702.000    727.817    -25.817    572.118    669.512    630.372    572.118    572.118
 76.570    723.000    759.332    -36.332    572.029    687.514    643.784    572.029    572.029
 76.670    841.535    794.039     47.496    571.938    707.424    658.478    571.938    571.938
 76.770    818.481    829.771    -11.290    571.845    727.968    673.563    571.845    571.845
 76.870    855.000    863.517     -8.517    571.751    747.381    687.793    571.751    571.751
 76.970    898.581    891.535      7.047    571.655    763.477    699.616    571.655    571.655
 77.070    854.049    909.854    -55.805    571.558    773.934    707.382    571.558    571.558
 77.170    879.000    915.319    -36.319    571.460    776.910    709.777    571.460    571.460
 77.270   1002.000    906.823     95.177    571.360    771.756    706.344    571.360    571.360
 77.370    859.000    885.829    -26.829    571.258    759.322    697.693    571.258    571.258
 77.470    840.000    855.697    -15.697    571.156    741.566    685.224    571.156    571.156
 77.570    836.000    820.403     15.597    571.051    720.807    670.596    571.051    571.051
 77.670    735.643    783.558    -47.914    570.946    699.148    655.315    570.946    570.946
 77.770    731.760    747.986    -16.226    570.838    678.234    640.559    570.838    570.838
 77.870    683.000    715.648    -32.648    570.730    659.208    627.145    570.730    570.730
 77.970    650.000    687.694    -37.694    570.619    642.740    615.555    570.619    570.619
 78.070    694.573    664.586     29.987    570.508    629.099    605.981    570.508    570.508
 78.170    651.000    646.237      4.763    570.395    618.234    598.387    570.395    570.395
 78.270    605.000    632.185    -27.185    570.280    609.874    592.583    570.280    570.280
 78.370    618.000    621.761     -3.761    570.164    603.628    588.290    570.164    570.164
 78.470    583.622    614.230    -30.608    570.047    599.068    585.203    570.047    570.047
 78.570    670.000    608.898     61.102    569.928    595.788    583.033    569.928    569.928
 78.670    601.861    605.173     -3.312    569.807    593.441    581.534    569.807    569.807
 78.770    626.000    602.588     23.412    569.685    591.756    580.513    569.685    569.685
 78.870    591.000    600.804     -9.804    569.562    590.532    579.829    569.562    569.562
 78.970    574.000    599.583    -25.583    569.437    589.632    579.385    569.437    569.437
 79.070    577.000    598.777    -21.777    569.311    588.965    579.119    569.311    569.311
 79.170    557.000    598.296    -41.296    569.183    588.480    578.996    569.183    569.183
 79.270    577.806    598.097    -20.292    569.053    588.148    578.999    569.053    569.053
 79.370    583.693    598.172    -14.479    568.923    587.963    579.129    568.923    568.923
 79.470    609.000    598.541     10.459    568.790    587.929    579.398    568.790    568.790
 79.570    601.412    599.249      2.163    568.657    588.065    579.838    568.657    568.657
 79.670    598.000    600.379     -2.379    568.522    588.397    580.499    568.522    568.522
 79.770    606.000    602.052      3.948    568.385    588.964    581.468    568.385    568.385
 79.870    584.000    604.452    -20.452    568.247    589.816    582.877    568.247    568.247
 79.970    655.000    607.847     47.153    568.107    591.020    584.928    568.107    568.107
 80.070    583.000    612.618    -29.618    567.966    592.662    587.913    567.966    567.966
 80.170    626.272    619.292      6.981    567.824    594.857    592.248    567.824    567.824
 80.270    652.751    628.565     24.186    567.680    597.753    598.478    567.680    567.680
 80.370    692.000    641.309     50.691    567.535    601.538    607.287    567.535    567.535
 80.470    676.000    658.534     17.466    567.388    606.435    619.463    567.388    567.388
 80.570    635.240    681.318    -46.079    567.239    612.698    635.832    567.239    567.239
 80.670    715.000    710.682      4.318    567.090    620.597    657.141    567.090    567.090
 80.770    753.000    747.423      5.577    566.938    630.403    683.918    566.938    566.938
 80.870    809.000    791.917     17.083    566.786    642.365    716.292    566.786    566.786
 80.970    830.032    843.892    -13.861    566.632    656.655    753.820    566.632    566.632
 81.070    926.288    902.195     24.093    566.476    673.285    795.334    566.476    566.476
 81.170   1010.000    964.604     45.396    566.319    692.028    838.845    566.319    566.319
 81.270   1028.000   1027.783      0.217    566.161    712.350    881.546    566.161    566.161
 81.370   1101.000   1087.429     13.571    566.001    733.405    919.986    566.001    566.001
 81.470   1236.000   1138.744     97.256    565.839    754.080    950.476    565.839    565.839
 81.570   1194.000   1177.329     16.671    565.677    773.195    969.797    565.677    565.677
 81.670   1226.000   1200.106     25.894    565.512    789.682    975.937    565.512    565.512
 81.770   1250.028   1205.727     44.300    565.347    802.634    968.458    565.347    565.347
 81.870   1232.643   1194.673     37.970    565.180    811.458    948.427    565.180    565.180
 81.970   1148.348   1168.918    -20.570    565.011    815.897    918.079    565.011    565.011
 82.070   1178.000   1131.545     46.455    564.841    816.011    880.435    564.841    564.841
 82.170   1111.000   1086.189     24.811    564.670    812.061    838.867    564.670    564.670
 82.270   1006.007   1036.398    -30.390    564.497    804.377    796.593    564.497    564.497
 82.370    964.549    985.213    -20.663    564.323    793.345    756.269    564.323    564.323
 82.470    959.000    935.061     23.939    564.147    779.511    719.776    564.147    564.147
 82.570    857.479    887.784    -30.305    563.970    763.638    688.194    563.970    563.970
 82.670    874.000    844.620     29.380    563.792    746.581    661.905    563.792    563.792
 82.770    796.000    806.159    -10.159    563.612    729.100    640.740    563.612    563.612
 82.870    674.000    772.425    -98.425    563.431    711.752    624.167    563.431    563.431
 82.970    688.000    743.094    -55.094    563.248    694.931    611.468    563.248    563.248
 83.070    680.000    717.751    -37.751    563.064    678.977    601.888    563.064    563.064
 83.170    719.420    696.059     23.361    562.879    664.240    594.741    562.879    562.879
 83.270    654.000    677.803    -23.803    562.692    651.073    589.457    562.692    562.692
 83.370    638.000    662.851    -24.851    562.504    639.783    585.599    562.504    562.504
 83.470    607.000    651.110    -44.110    562.314    630.596    582.847    562.314    562.314
 83.570    619.027    642.487    -23.460    562.123    623.639    580.981    562.123    562.123
 83.670    670.557    636.860     33.697    561.931    618.942    579.850    561.931    561.931
 83.770    622.154    634.054    -11.900    561.737    616.436    579.348    561.737    561.737
 83.870    601.000    633.810    -32.810    561.542    615.950    579.387    561.542    561.542
 83.970    621.097    635.769    -14.672    561.346    617.216    579.875    561.346    561.346
 84.070    594.013    639.459    -45.446    561.148    619.867    580.709    561.148    561.148
 84.170    644.000    644.295     -0.295    560.949    623.443    581.762    560.949    560.949
 84.270    643.000    649.585     -6.585    560.749    627.408    582.882    560.749    560.749
 84.370    613.000    654.560    -41.560    560.547    631.162    583.896    560.547    560.547
 84.470    640.622    658.421    -17.799    560.344    634.092    584.622    560.344    560.344
 84.570    671.454    660.447     11.006    560.140    635.641    584.894    560.140    560.140
 84.670    678.900    660.138     18.762    559.934    635.423    584.597    559.934    559.934
 84.770    614.576    657.342    -42.767    559.727    633.319    583.702    559.727    559.727
 84.870    605.000    652.292    -47.292    559.519    629.498    582.269    559.519    559.519
 84.970    602.000    645.505    -43.505    559.309    624.344    580.431    559.309    559.309
 85.070    599.715    637.628    -37.913    559.098    618.340    578.352    559.098    559.098
 85.170    617.000    629.307    -12.307    558.886    611.964    576.199    558.886    558.886
 85.270    607.418    621.108    -13.690    558.672    605.630    574.126    558.672    558.672
 85.370    569.000    613.487    -44.487    558.458    599.663    572.262    558.458    558.458
 85.470    565.000    606.781    -41.781    558.241    594.291    570.714    558.241    558.241
 85.570    616.000    601.216     14.784    558.024    589.656    569.569    558.024    558.024
 85.670    592.000    596.912     -4.912    557.806    585.812    568.892    557.806    557.806
 85.770    626.290    593.911     32.380    557.586    582.748    568.735    557.586    557.586
 85.870    586.000    592.191     -6.191    557.365    580.411    569.132    557.365    557.365
 85.970    583.000    591.695     -8.695    557.142    578.721    570.103    557.142    557.142
 86.070    609.513    592.338     17.174    556.919    577.593    571.648    556.919    556.919
 86.170    628.000    594.023     33.977    556.694    576.954    573.747    556.694    556.694
 86.270    584.000    596.643    -12.643    556.468    576.748    576.344    556.468    556.468
 86.370    652.000    600.081     51.919    556.241    576.950    579.350    556.241    556.241
 86.470    588.000    604.209    -16.209    556.012    577.566    582.630    556.012    556.012
 86.570    569.000    608.887    -39.887    555.782    578.636    586.004    555.782    555.782
 86.670    594.000    613.960    -19.960    555.552    580.232    589.246    555.552    555.552
 86.770    604.000    619.263    -15.263    555.320    582.454    592.091    555.320    555.320
 86.870    577.383    624.636    -47.252    555.086    585.420    594.259    555.086    555.086
 86.970    598.000    629.953    -31.953    554.852    589.262    595.495    554.852    554.852
 87.070    672.000    635.168     36.832    554.616    594.104    595.627    554.616    554.616
 87.170    616.000    640.344    -24.344    554.380    600.047    594.616    554.380    554.380
 87.270    678.000    645.639     32.361    554.142    607.148    592.564    554.142    554.142
 87.370    694.414    651.243     43.171    553.903    615.389    589.680    553.903    553.903
 87.470    696.000    657.300     38.700    553.663    624.657    586.218    553.663    553.663
 87.570    687.000    663.831     23.169    553.421    634.723    582.432    553.421    553.421
 87.670    693.000    670.696     22.304    553.179    645.223    578.545    553.179    553.179
 87.770    651.997    677.575    -25.578    552.935    655.653    574.741    552.935    552.935
 87.870    709.000    683.971     25.029    552.691    665.375    571.162    552.691    552.691
 87.970    740.000    689.245     50.755    552.445    673.653    567.907    552.445    552.445
 88.070    720.000    692.711     27.289    552.198    679.745    565.032    552.198    552.198
 88.170    755.000    693.797     61.203    551.951    683.059    562.558    551.951    551.951
 88.270    725.000    692.216     32.784    551.702    683.320    560.474    551.702    551.702
 88.370    710.000    688.069     21.931    551.452    680.658    558.749    551.452    551.452
 88.470    741.000    681.805     59.195    551.201    675.563    557.340    551.201    551.201
 88.570    680.000    674.088      5.912    550.949    668.747    556.201    550.949    550.949
 88.670    683.000    665.661     17.339    550.696    660.996    555.287    550.696    550.696
 88.770    658.643    657.250      1.393    550.442    653.076    554.558    550.442    550.442
 88.870    643.000    649.513     -6.513    550.186    645.678    553.978    550.186    550.186
 88.970    627.000    643.002    -16.002    549.930    639.381    553.521    549.930    549.930
 89.070    623.000    638.132    -15.132    549.673    634.623    553.163    549.673    549.673
 89.170    619.000    635.158    -16.158    549.415    631.677    552.889    549.415    549.415
 89.270    652.348    634.164     18.184    549.156    630.641    552.682    549.156    549.156
 89.370    685.000    635.060     49.940    548.896    631.441    552.528    548.896    548.896
 89.470    633.071    637.597     -4.526    548.635    633.841    552.414    548.635    548.635
 89.570    623.000    641.379    -18.379    548.373    637.459    552.324    548.373    548.373
 89.670    601.000    645.883    -44.883    548.111    641.792    552.241    548.111    548.111
 89.770    667.000    650.490     16.510    547.847    646.237    552.147    547.847    547.847
 89.870    681.000    654.528     26.472    547.582    650.142    552.022    547.582    547.582
 89.970    659.090    657.329      1.761    547.317    652.859    551.846    547.317    547.317
 90.070    658.000    658.339     -0.339    547.050    653.849    551.604    547.050    547.050
 90.170    619.718    657.224    -37.506    546.783    652.785    551.287    546.783    546.783
 90.270    649.000    653.937     -4.937    546.515    649.623    550.894    546.515    546.515
 90.370    674.618    648.715     25.903    546.246    644.589    550.435    546.246    546.246
 90.470    618.021    641.989    -23.968    545.976    638.099    549.926    545.976    545.976
 90.570    645.000    634.277     10.723    545.706    630.654    549.383    545.706    545.706
 90.670    600.140    626.089    -25.950    545.434    622.748    548.824    545.434    545.434
 90.770    600.000    617.881    -17.881    545.162    614.820    548.265    545.162    545.162
 90.870    617.364    610.020      7.343    544.889    607.228    547.717    544.889    544.889
 90.970    566.000    602.786    -36.786    544.615    600.241    547.190    544.615    544.615
 91.070    618.033    596.366     21.667    544.340    594.039    546.690    544.340    544.340
 91.170    598.350    590.862      7.487    544.065    588.725    546.221    544.065    544.065
 91.270    632.535    586.310     46.225    543.789    584.329    545.784    543.789    543.789
 91.370    569.000    582.684    -13.684    543.512    580.829    545.377    543.512    543.512
 91.470    590.000    579.927     10.073    543.235    578.169    544.999    543.235    543.235
 91.570    600.838    577.960     22.878    542.956    576.272    544.648    542.956    542.956
 91.670    525.000    576.704    -51.704    542.677    575.062    544.321    542.677    542.677
 91.770    605.000    576.090     28.910    542.398    574.472    544.015    542.398    542.398
 91.870    564.000    576.076    -12.076    542.118    574.462    543.729    542.118    542.118
 91.970    609.000    576.648     32.352    541.837    575.018    543.463    541.837    541.837
 92.070    554.234    577.832    -23.597    541.555    576.163    543.218    541.555    541.555
 92.170    549.000    579.686    -30.686    541.273    577.956    542.996    541.273    541.273
 92.270    650.000    582.309     67.691    540.990    580.490    542.799    540.990    540.990
 92.370    577.000    585.826     -8.826    540.707    583.889    542.632    540.707    540.707
 92.470    623.032    590.391     32.641    540.423    588.300    542.499    540.423    540.423
 92.570    587.000    596.169     -9.169    540.138    593.884    542.404    540.138    540.138
 92.670    580.000    603.325    -23.325    539.853    600.802    542.354    539.853    539.853
 92.770    651.000    612.009     38.991    539.567    609.199    542.349    539.567    539.567
 92.870    633.000    622.338     10.662    539.281    619.193    542.392    539.281    539.281
 92.970    630.000    634.380     -4.380    538.994    630.851    542.483    538.994    538.994
 93.070    628.000    648.136    -20.136    538.707    644.178    542.619    538.707    538.707
 93.170    667.000    663.527      3.473    538.419    659.099    542.794    538.419    538.419
 93.270    650.000    680.383    -30.383    538.131    675.454    543.000    538.131    538.131
 93.370    682.000    698.435    -16.435    537.843    692.982    543.228    537.843    537.843
 93.470    712.000    717.309     -5.309    537.554    711.321    543.468    537.554    537.554
 93.570    690.000    736.541    -46.541    537.264    730.016    543.709    537.264    537.264
 93.670    746.260    755.613     -9.353    536.974    748.557    543.946    536.974    536.974
 93.770    825.576    774.035     51.541    536.684    766.451    544.180    536.684    536.684
 93.870    785.000    791.453     -6.453    536.393    783.332    544.424    536.393    536.393
 93.970    780.850    807.753    -26.903    536.102    799.054    544.709    536.102    536.102
 94.070    859.000    823.087     35.913    535.811    813.723    545.082    535.811    535.811
 94.170    851.000    837.798     13.202    535.519    827.620    545.605    535.519    535.519
 94.270    798.000    852.304    -54.304    535.227    841.094    546.344    535.227    535.227
 94.370    853.000    866.955    -13.955    534.935    854.431    547.366    534.935    534.935
 94.470    878.000    881.900     -3.900    534.642    867.726    548.724    534.642    534.642
 94.570    927.600    897.132     30.468    534.349    880.936    550.454    534.349    534.349
 94.670    910.000    912.539     -2.539    534.056    893.939    552.566    534.056    534.056
 94.770    910.671    927.977    -17.306    533.763    906.616    555.036    533.763    533.763
 94.870    921.000    943.296    -22.296    533.469    918.873    557.806    533.469    533.469
 94.970    955.000    958.271     -3.271    533.176    930.584    560.780    533.176    533.176
 95.070    944.000    972.496    -28.496    532.882    941.474    563.824    532.882    532.882
 95.170    989.000    985.278      3.722    532.587    951.020    566.770    532.587    532.587
 95.270   1036.000    995.640     40.360    532.293    958.435    569.429    532.293    532.293
 95.370   1051.000   1002.371     48.629    531.999    962.714    571.594    531.999    531.999
 95.470    985.991   1004.221    -18.229    531.704    962.801    573.071    531.704    531.704
 95.570    965.000   1000.159    -35.159    531.410    957.823    573.702    531.410    531.410
 95.670   1014.984    989.659     25.325    531.115    947.339    573.402    531.115    531.115
 95.770    992.000    972.891     19.109    530.820    931.514    572.173    530.820    530.820
 95.870    988.000    950.732     37.268    530.526    911.136    570.106    530.526    530.526
 95.970    967.000    924.619     42.381    530.231    887.482    567.359    530.231    530.231
 96.070    860.000    896.309    -36.309    529.936    862.113    564.128    529.936    529.936
 96.170    815.643    867.669    -52.026    529.641    836.692    560.617    529.641    529.641
 96.270    810.436    840.526    -30.090    529.346    812.854    557.017    529.346    529.346
 96.370    830.000    816.580     13.420    529.052    792.132    553.498    529.052    529.052
 96.470    849.232    797.361     51.871    528.757    775.918    550.195    528.757    528.757
 96.570    732.533    784.200    -51.667    528.463    765.441    547.212    528.463    528.463
 96.670    808.000    778.218     29.782    528.168    761.754    544.616    528.168    528.168
 96.770    786.000    780.320      5.680    527.874    765.728    542.443    527.874    527.874
 96.870    841.533    791.194     50.340    527.580    778.039    540.701    527.580    527.580
 96.970    788.000    811.297    -23.297    527.286    799.161    539.379    527.286    527.286
 97.070    875.000    840.848     34.152    526.992    829.339    538.447    526.992    526.992
 97.170    881.550    879.800      1.751    526.698    868.563    537.870    526.698    526.698
 97.270    995.000    927.802     67.198    526.405    916.525    537.606    526.405    526.405
 97.370    991.319    984.142      7.177    526.112    972.556    537.610    526.112    526.112
 97.470   1001.744   1047.681    -45.938    525.819   1035.566    537.836    525.819    525.819
 97.570   1151.000   1116.989     34.011    525.526   1104.172    538.235    525.526    525.526
 97.670   1152.663   1189.973    -37.309    525.234   1176.337    538.755    525.234    525.234
 97.770   1343.000   1264.071     78.929    524.942   1249.557    539.337    524.942    524.942
 97.870   1380.000   1336.229     43.771    524.651   1320.839    539.920    524.651    524.651
 97.970   1453.336   1402.954     50.382    524.360   1386.761    540.435    524.360    524.360
 98.070   1576.000   1460.497    115.503    524.069   1443.640    540.815    524.069    524.069
 98.170   1572.000   1505.180     66.820    523.778   1487.868    540.993    523.778    523.778
 98.270   1484.738   1533.890    -49.152    523.488   1516.383    540.913    523.488    523.488
 98.370   1507.000   1544.626    -37.626    523.199   1527.219    540.542    523.199    523.199
 98.470   1618.000   1536.905     81.095    522.910   1519.899    539.872    522.910    522.910
 98.570   1443.243   1511.849    -68.606    522.621   1495.523    538.923    522.621    522.621
 98.670   1484.000   1471.915     12.085    522.333   1456.502    537.739    522.333    522.333
 98.770   1407.000   1420.417    -13.417    522.046   1406.093    536.377    522.046    522.046
 98.870   1311.000   1361.045    -50.045    521.759   1347.922    534.900    521.759    521.759
 98.970   1323.000   1297.486     25.514    521.473   1285.619    533.366    521.473    521.473
 99.070   1196.000   1233.191    -37.191    521.187   1222.577    531.830    521.187    521.187
 99.170   1138.064   1171.239    -33.176    520.902   1161.833    530.338    520.902    520.902
 99.270   1117.000   1114.287      2.713    520.618   1106.005    528.928    520.618    520.618
 99.370   1066.000   1064.559      1.441    520.334   1057.289    527.628    520.334    520.334
 99.470   1037.215   1023.870     13.345    520.051   1017.481    526.458    520.051    520.051
 99.570    998.000    993.665      4.335    519.769    988.014    525.430    519.769    519.769
 99.670    916.000    975.046    -59.046    519.487    969.986    524.550    519.487    519.487
 99.770    947.000    968.799    -21.799    519.206    964.184    523.817    519.206    519.206
 99.870    948.000    975.404    -27.404    518.926    971.094    523.225    518.926    518.926
 99.970    986.000    995.046     -9.046    518.647    990.913    522.763    518.647    518.647
100.070    977.903   1027.618    -49.715    518.369   1023.546    522.419    518.369    518.369
100.170   1054.720   1072.720    -18.000    518.091   1068.607    522.177    518.091    518.091
100.270   1184.196   1129.646     54.550    517.815   1125.409    522.023    517.815    517.815
100.370   1173.800   1197.364    -23.564    517.539   1192.938    521.937    517.539    517.539
100.470   1327.000   1274.486     52.514    517.264   1269.823    521.902    517.264    517.264
100.570   1415.000   1359.234     55.766    516.991   1354.306    521.899    516.991    516.991
100.670   1463.000   1449.397     13.603    516.718   1444.197    521.908    516.718    516.718
100.770   1578.442   1542.430     36.012    516.446   1536.967    521.911    516.446    516.446
100.870   1637.000   1635.379      1.621    516.176   1629.682    521.890    516.176    516.176
100.970   1722.000   1725.128     -3.128    515.906   1719.241    521.828    515.906    515.906
101.070   1798.866   1808.636     -9.770    515.637   1802.616    521.713    515.637    515.637
101.170   1817.109   1883.216    -66.107    515.370   1877.125    521.538    515.370    515.370
101.270   1964.000   1946.745     17.255    515.104   1940.643    521.304    515.104    515.104
101.370   2064.000   1997.703     66.297    514.839   1991.642    521.017    514.839    514.839
101.470   2072.000   2035.029     36.971    514.575   2029.050    520.691    514.575    514.575
101.570   2107.000   2057.908     49.092    514.312   2052.033    520.341    514.312    514.312
101.670   2089.000   2065.636     23.364    514.051   2059.871    519.984    514.051    514.051
101.770   2130.000   2057.689     72.311    513.790   2052.022    519.637    513.790    513.790
101.870   2063.120   2033.995     29.125    513.532   2028.401    519.313    513.532    513.532
101.970   1955.484   1995.284    -39.799    513.274   1989.728    519.023    513.274    513.274
102.070   1936.000   1943.327     -7.327    513.018   1937.765    518.775    513.018    513.018
102.170   1731.000   1880.900   -149.900    512.763   1875.284    518.572    512.763    512.763
102.270   1773.000   1811.465    -38.465    512.510   1805.749    518.412    512.510    512.510
102.370   1709.000   1738.698    -29.698    512.258   1732.842    518.293    512.258    512.258
102.470   1635.175   1666.042    -30.866    512.007   1660.014    518.203    512.007    512.007
102.570   1591.503   1596.380     -4.877    511.758   1590.163    518.132    511.758    511.758
102.670   1474.647   1531.870    -57.223    511.511   1525.460    518.066    511.511    511.511
102.770   1426.000   1473.890    -47.890    511.265   1467.298    517.990    511.265    511.265
102.870   1392.439   1423.055    -30.616    511.020   1416.307    517.892    511.020    511.020
102.970   1321.000   1379.269    -58.269    510.778   1372.400    517.760    510.778    510.778
103.070   1267.000   1341.798    -74.798    510.536   1334.853    517.588    510.536    510.536
103.170   1261.000   1309.371    -48.371    510.297   1302.401    517.367    510.297    510.297
103.270   1221.354   1280.320    -58.966    510.059   1273.383    517.092    510.059    510.059
103.370   1228.828   1252.778    -23.950    509.823   1245.936    516.758    509.823    509.823
103.470   1168.000   1224.926    -56.926    509.589   1218.246    516.362    509.589    509.589
103.570   1164.000   1195.257    -31.257    509.356   1188.802    515.902    509.356    509.356
103.670   1129.000   1162.779    -33.779    509.125   1156.611    515.384    509.125    509.125
103.770   1174.673   1127.115     47.558    508.896   1121.288    514.814    508.896    508.896
103.870   1099.000   1088.455     10.545    508.669   1083.009    514.203    508.669    508.669
103.970    985.064   1047.404    -62.340    508.444   1042.369    513.565    508.444    508.444
104.070    994.223   1004.819    -10.596    508.221   1000.208    512.913    508.221    508.221
104.170    924.147    961.646    -37.499    508.000    957.462    512.260    508.000    508.000
104.270    960.047    918.806     41.241    507.780    915.040    511.617    507.780    507.780
104.370    917.000    877.143     39.857    507.563    873.778    510.993    507.563    507.563
104.470    848.007    837.384     10.623    507.348    834.395    510.396    507.348    507.348
104.570    827.457    800.124     27.333    507.135    797.481    509.830    507.135    507.135
104.670    795.000    765.809     29.191    506.923    763.480    509.299    506.923    506.923
104.770    733.000    734.742     -1.742    506.715    732.692    508.804    506.715    506.715
104.870    727.891    707.078     20.813    506.508    705.273    508.346    506.508    506.508
104.970    715.000    682.827     32.173    506.303    681.238    507.921    506.303    506.303
105.070    698.000    661.934     36.066    506.101    660.526    507.532    506.101    506.101
105.170    649.000    644.230      4.770    505.901    642.973    507.177    505.901    505.901
105.270    655.624    629.469     26.156    505.703    628.335    506.853    505.703    505.703
105.370    617.000    617.376     -0.376    505.508    616.340    506.555    505.508    505.508
105.470    667.000    607.662     59.338    505.314    606.705    506.281    505.314    505.314
105.570    677.000    600.046     76.954    505.124    599.148    506.028    505.124    505.124
105.670    598.000    594.265      3.735    504.935    593.410    505.794    504.935    504.935
105.770    627.000    590.090     36.910    504.750    589.262    505.578    504.750    504.750
105.870    577.394    587.328     -9.934    504.566    586.517    505.377    504.566    504.566
105.970    619.000    585.832     33.168    504.385    585.024    505.190    504.385    504.385
106.070    630.000    585.492     44.508    504.207    584.677    505.017    504.207    504.207
106.170    553.004    586.239    -33.235    504.031    585.405    504.858    504.031    504.031
106.270    555.931    588.034    -32.103    503.858    587.171    504.712    503.858    503.858
106.370    632.901    590.865     42.036    503.688    589.962    504.579    503.688    503.688
106.470    646.000    594.741     51.259    503.520    593.786    504.460    503.520    503.520
106.570    600.848    599.681      1.167    503.355    598.663    504.356    503.355    503.355
106.670    579.865    605.707    -25.842    503.193    604.614    504.266    503.193    503.193
106.770    614.848    612.838      2.010    503.034    611.657    504.191    503.034    503.034
106.870    608.440    621.076    -12.636    502.877    619.794    504.131    502.877    502.877
106.970    659.945    630.399     29.546    502.723    629.006    504.086    502.723    502.723
107.070    649.000    640.752      8.248    502.572    639.235    504.055    502.572    502.572
107.170    671.000    652.036     18.964    502.424    650.386    504.036    502.424    502.424
107.270    658.628    664.103     -5.475    502.279    662.312    504.029    502.279    502.279
107.370    678.977    676.756      2.221    502.137    674.819    504.029    502.137    502.137
107.470    712.559    689.746     22.813    501.998    687.661    504.035    501.998    501.998
107.570    722.000    702.773     19.227    501.863    700.543    504.042    501.863    501.863
107.670    672.301    715.495    -43.194    501.730    713.127    504.045    501.730    501.730
107.770    746.000    727.537     18.463    501.600    725.043    504.040    501.600    501.600
107.870    694.313    738.509    -44.196    501.474    735.907    504.022    501.474    501.474
107.970    762.000    748.041     13.959    501.350    745.352    503.986    501.350    501.350
108.070    729.000    755.818    -26.818    501.230    753.070    503.926    501.230    501.230
108.170    731.000    761.630    -30.630    501.114    758.853    503.841    501.114    501.114
108.270    800.000    765.413     34.587    501.000    762.638    503.728    501.000    501.000
108.370    760.724    767.264     -6.540    500.890    764.523    503.588    500.890    500.890
108.470    799.000    767.438     31.562    500.784    764.758    503.424    500.784    500.784
108.570    771.000    766.303      4.697    500.681    763.710    503.239    500.681    500.681
108.670    759.000    764.297     -5.297    500.581    761.809    503.038    500.581    500.581
108.770    713.000    761.864    -48.864    500.485    759.495    502.827    500.485    500.485
108.870    741.000    759.416    -18.416    500.392    757.175    502.611    500.392    500.392
108.970    770.559    757.297     13.262    500.303    755.189    502.394    500.303    500.303
109.070    768.000    755.767     12.233    500.218    753.789    502.181    500.218    500.218
109.170    672.000    754.981    -82.981    500.136    753.131    501.976    500.136    500.136
109.270    772.459    754.991     17.467    500.058    753.262    501.780    500.058    500.058
109.370    713.062    755.742    -42.680    499.983    754.126    501.597    499.983    499.983
109.470    737.000    757.073    -20.073    499.913    755.559    501.427    499.913    499.913
109.570    715.000    758.724    -43.724    499.846    757.304    501.270    499.846    499.846
109.670    750.150    760.353    -10.203    499.783    759.017    501.127    499.783    499.783
109.770    788.000    761.560     26.440    499.724    760.298    500.996    499.724    499.724
109.870    735.608    761.918    -26.310    499.669    760.724    500.877    499.669    499.669
109.970    708.393    761.027    -52.634    499.618    759.893    500.767    499.618    499.618
110.070    765.911    758.558      7.353    499.571    757.481    500.666    499.571    499.571
110.170    714.000    754.305    -40.305    499.528    753.280    500.572    499.528    499.528
110.270    692.000    748.209    -56.209    499.489    747.234    500.485    499.489    499.489
110.370    712.000    740.358    -28.358    499.455    739.432    500.402    499.455    499.455
110.470    705.000    730.958    -25.958    499.424    730.086    500.318    499.424    499.424
110.570    678.569    720.330    -41.761    499.398    719.503    500.247    499.398    499.398
110.670    736.000    708.809     27.191    499.375    708.023    500.183    499.375    499.375
110.770    669.000    696.744    -27.744    499.358    695.998    500.124    499.358    499.358
110.870    662.000    684.473    -22.473    499.344    683.765    500.072    499.344    499.344
110.970    684.000    672.303     11.697    499.335    671.629    500.026    499.335    499.335
111.070    642.000    660.500    -18.500    499.330    659.859    499.988    499.330    499.330
111.170    666.854    649.291     17.563    499.330    648.678    499.956    499.330    499.330
111.270    663.000    638.855     24.145    499.335    638.269    499.933    499.335    499.335
111.370    672.942    629.331     43.612    499.343    628.767    499.917    499.343    499.343
111.470    580.318    620.810    -40.492    499.357    620.265    499.909    499.357    499.357
111.570    626.568    613.345     13.223    499.375    612.816    499.909    499.375    499.375
111.670    590.000    606.947    -16.947    499.398    606.432    499.916    499.398    499.398
111.770    606.000    601.621      4.379    499.425    601.115    499.932    499.425    499.425
111.870    600.000    597.315      2.685    499.457    596.817    499.956    499.457    499.457
111.970    599.000    593.970      5.030    499.494    593.476    499.987    499.494    499.494
112.070    613.788    591.511     22.278    499.536    591.019    500.025    499.536    499.536
112.170    632.000    589.853     42.147    499.583    589.361    500.070    499.583    499.583
112.270    543.070    588.910    -45.840    499.635    588.416    500.122    499.635    499.635
112.370    604.000    588.594     15.406    499.692    588.098    500.181    499.692    499.692
112.470    629.000    588.824     40.176    499.753    588.323    500.245    499.753    499.753
112.570    551.431    589.521    -38.090    499.820    589.016    500.316    499.820    499.820
112.670    617.034    590.619     26.414    499.892    590.109    500.392    499.892    499.892
112.770    593.000    592.061      0.939    499.969    591.545    500.474    499.969    499.969
112.870    561.000    593.801    -32.801    500.051    593.280    500.561    500.051    500.051
112.970    632.000    595.811     36.189    500.139    595.285    500.654    500.139    500.139
113.070    600.000    598.072      1.928    500.232    597.540    500.752    500.232    500.232
113.170    603.492    600.583      2.909    500.330    600.045    500.855    500.330    500.330
113.270    605.000    603.355      1.645    500.433    602.811    500.965    500.433    500.433
113.370    599.119    606.416     -7.298    500.542    605.865    501.080    500.542    500.542
113.470    558.000    609.810    -51.810    500.657    609.251    501.203    500.657    500.657
113.570    578.079    613.597    -35.518    500.777    613.028    501.332    500.777    500.777
113.670    618.000    617.858      0.142    500.902    617.276    501.469    500.902    500.902
113.770    603.000    622.699    -19.699    501.033    622.102    501.615    501.033    501.033
113.870    603.596    628.257    -24.661    501.170    627.641    501.770    501.170    501.170
113.970    618.000    634.709    -16.709    501.313    634.069    501.935    501.313    501.313
114.070    637.000    642.280     -5.280    501.461    641.611    502.111    501.461    501.461
114.170    658.000    651.260      6.740    501.615    650.555    502.299    501.615    501.615
114.270    663.000    662.014      0.986    501.775    661.264    502.500    501.775    501.775
114.370    652.000    674.998    -22.998    501.941    674.195    502.715    501.941    501.941
114.470    677.000    690.782    -13.782    502.112    689.916    502.946    502.112    502.112
114.570    720.479    710.067     10.412    502.290    709.124    503.194    502.290    502.290
114.670    663.000    733.700    -70.700    502.474    732.667    503.460    502.474    502.474
114.770    758.000    762.700     -4.700    502.664    761.562    503.745    502.664    502.664
114.870    751.000    798.266    -47.266    502.860    797.006    504.052    502.860    502.860
114.970    800.136    841.794    -41.658    503.062    840.393    504.380    503.062    503.062
115.070    835.000    894.876    -59.876    503.270    893.314    504.732    503.270    503.270
115.170    946.000    959.294    -13.294    503.485    957.550    505.108    503.485    503.485
115.270   1096.273   1037.007     59.265    503.706   1035.058    505.510    503.706    503.706
115.370   1072.000   1130.112    -58.112    503.934   1127.935    505.938    503.934    503.934
115.470   1188.000   1240.796    -52.796    504.168   1238.367    506.392    504.168    504.168
115.570   1401.000   1371.272     29.728    504.408   1368.566    506.873    504.408    504.408
115.670   1593.862   1523.686     70.176    504.655   1520.680    507.380    504.655    504.655
115.770   1658.690   1700.021    -41.330    504.908   1696.692    507.913    504.908    504.908
115.870   1883.000   1901.970    -18.970    505.168   1898.298    508.470    505.168    505.168
115.970   2187.222   2130.812     56.411    505.435   2126.778    509.049    505.435    505.435
116.070   2444.000   2387.271     56.729    505.709   2382.861    509.649    505.709    505.709
116.170   2639.000   2671.385    -32.385    505.989   2666.586    510.265    505.989    505.989
116.270   3022.308   2982.372     39.936    506.276   2977.179    510.896    506.276    506.276
116.370   3253.272   3318.525    -65.253    506.570   3312.937    511.537    506.570    506.570
116.470   3748.616   3677.120     71.496    506.871   3671.143    512.183    506.871    506.871
116.570   3969.000   4054.363    -85.363    507.179   4048.008    512.831    507.179    507.179
116.670   4368.000   4445.362    -77.362    507.494   4438.645    513.478    507.494    507.494
116.770   4846.075   4844.137      1.938    507.816   4837.080    514.119    507.816    507.816
116.870   5054.000   5243.644   -189.644    508.145   5236.274    514.752    508.145    508.145
116.970   5518.000   5636.012   -118.012    508.482   5628.358    515.375    508.482    508.482
117.070   5859.000   6012.490   -153.490    508.826   6004.585    515.988    508.826    508.826
117.170   6380.000   6363.731     16.269    509.177   6355.613    516.586    509.177    509.177
117.270   6575.000   6680.106   -105.106    509.535   6671.811    517.170    509.535    509.535
117.370   6989.000   6952.079     36.921    509.901   6943.648    517.736    509.901    509.901
117.470   7233.000   7170.731     62.269    510.274   7162.206    518.283    510.274    510.274
117.570   7399.000   7328.374     70.626    510.655   7319.798    518.807    510.655    510.655
117.670   7481.000   7419.205     61.795    511.043   7410.618    519.306    511.043    511.043
117.770   7421.701   7439.879    -18.178    511.439   7431.321    519.779    511.439    511.439
117.870   7444.000   7389.871     54.129    511.843   7381.378    520.223    511.843    511.843
117.970   7271.000   7271.532     -0.532    512.254   7263.135    520.639    512.254    512.254
118.070   6994.000   7089.819    -95.819    512.673   7081.549    521.025    512.673    512.673
118.170   6886.000   6851.782     34.218    513.100   6843.665    521.383    513.100    513.100
118.270   6675.379   6565.916    109.463    513.535   6557.975    521.712    513.535    513.535
118.370   6216.305   6241.519    -25.214    513.978   6233.776    522.013    513.978    513.978
118.470   5830.000   5888.131    -58.131    514.429   5880.606    522.287    514.429    514.429
118.570   5329.000   5515.096   -186.096    514.888   5507.811    522.537    514.888    514.888
118.670   5228.000   5131.240     96.760    515.355   5124.211    522.764    515.355    515.355
118.770   4831.000   4744.636     86.364    515.830   4737.879    522.972    515.830    515.830
118.870   4437.000   4362.447     74.553    516.314   4355.975    523.164    516.314    516.314
118.970   4055.515   3990.819     64.696    516.806   3984.642    523.346    516.806    516.806
119.070   3554.837   3634.827    -79.990    517.306   3628.951    523.523    517.306    517.306
119.170   3492.000   3298.453    193.547    517.814   3292.880    523.702    517.814    517.814
119.270   3011.000   2984.619     26.381    518.331   2979.347    523.887    518.331    518.331
119.370   2751.000   2695.244     55.756    518.857   2690.266    524.085    518.857    518.857
119.470   2367.067   2431.341    -64.273    519.391   2426.648    524.300    519.391    519.391
119.570   2187.056   2193.132     -6.077    519.934   2188.711    524.538    519.934    519.934
119.670   1961.644   1980.177    -18.533    520.485   1976.010    524.803    520.485    520.485
119.770   1762.805   1791.501    -28.696    521.046   1787.569    525.098    521.046    521.046
119.870   1706.000   1625.727     80.273    521.615   1622.008    525.428    521.615    521.615
119.970   1523.000   1481.188     41.812    522.192   1477.658    525.793    522.192    522.192
120.070   1397.071   1356.038     41.033    522.779   1352.670    526.197    522.779    522.779
120.170   1274.000   1248.343     25.657    523.375   1245.109    526.642    523.375    523.375
120.270   1195.000   1156.162     38.838    523.980   1153.032    527.129    523.980    523.980
120.370   1074.311   1077.609     -3.298    524.594   1074.553    527.659    524.594    524.594
120.470   1014.064   1010.905      3.159    525.217   1007.890    528.233    525.217    525.217
120.570   1029.000    954.413     74.587    525.849    951.405    528.851    525.849    525.849
120.670    958.000    906.657     51.343    526.491    903.622    529.516    526.491    526.491
120.770    867.000    866.331      0.669    527.142    863.235    530.226    527.142    527.142
120.870    825.000    832.304     -7.304    527.802    829.109    530.983    527.802    527.802
120.970    765.227    803.604    -38.376    528.472    800.274    531.788    528.472    528.472
121.070    819.000    779.413     39.587    529.151    775.910    532.641    529.151    529.151
121.170    749.648    759.047     -9.398    529.840    755.333    533.543    529.840    529.840
121.270    760.000    741.940     18.060    530.539    737.974    534.495    530.539    530.539
121.370    720.000    727.627     -7.627    531.247    723.367    535.498    531.247    531.247
121.470    691.000    715.728    -24.728    531.965    711.132    536.554    531.965    531.965
121.570    670.000    705.934    -35.934    532.693    700.958    537.664    532.693    532.693
121.670    709.000    697.992     11.008    533.431    692.589    538.830    533.431    533.431
121.770    663.000    691.693    -28.693    534.179    685.817    540.053    534.179    534.179
121.870    663.000    686.868    -23.868    534.937    680.469    541.335    534.937    534.937
121.970    660.000    683.374    -23.374    535.705    676.402    542.677    535.705    535.705
122.070    651.000    681.089    -30.089    536.483    673.493    544.080    536.483    536.483
122.170    651.573    679.907    -28.334    537.271    671.634    545.547    537.271    537.271
122.270    646.000    679.736    -33.736    538.069    670.732    547.079    538.069    538.069
122.370    690.263    680.488      9.775    538.878    670.698    548.675    538.878    538.878
122.470    684.000    682.082      1.918    539.697    671.452    550.336    539.697    539.697
122.570    665.000    684.436    -19.436    540.527    672.913    552.061    540.527    540.527
122.670    710.000    687.469     22.531    541.367    675.002    553.847    541.367    541.367
122.770    656.495    691.096    -34.601    542.218    677.639    555.690    542.218    542.218
122.870    696.099    695.228      0.871    543.080    680.739    557.585    543.080    543.080
122.970    656.000    699.769    -43.769    543.952    684.217    559.523    543.952    543.952
123.070    652.000    704.618    -52.618    544.835    687.978    561.496    544.835    544.835
123.170    741.000    709.666     31.334    545.728    691.928    563.491    545.728    545.728
123.270    667.000    714.798    -47.798    546.633    695.964    565.494    546.633    546.633
123.370    671.000    719.892    -48.892    547.549    699.980    567.491    547.549    547.549
123.470    792.000    724.820     67.180    548.476    703.866    569.463    548.476    548.476
123.570    744.000    729.454     14.546    549.414    707.510    571.393    549.414    549.414
123.670    711.000    733.663    -22.663    550.363    710.802    573.262    550.363    550.363
123.770    727.000    737.322    -10.322    551.323    713.636    575.050    551.323    551.323
123.870    790.560    740.316     50.244    552.295    715.914    576.739    552.295    552.295
123.970    768.287    742.544     25.743    553.278    717.554    578.314    553.278    553.278
124.070    797.796    743.931     53.865    554.272    718.491    579.759    554.272    554.272
124.170    764.000    744.424     19.576    555.278    718.685    581.066    555.278    555.278
124.270    723.789    744.002    -20.213    556.295    718.119    582.228    556.295    556.295
124.370    751.000    742.671      8.329    557.325    716.803    583.243    557.325    557.325
124.470    742.921    740.464      2.457    558.366    714.766    584.114    558.366    558.366
124.570    772.371    737.401     34.970    559.418    712.024    584.845    559.418    559.418
124.670    761.000    733.636     27.364    560.483    708.722    585.446    560.483    560.483
124.770    769.000    729.221     39.779    561.559    704.903    585.926    561.559    561.559
124.870    703.903    724.247    -20.344    562.648    700.645    586.297    562.648    562.648
124.970    750.000    718.811     31.189    563.748    696.033    586.572    563.748    563.748
