neutron_powder_diffraction_0185
R_wp: 3.717
Temperature (K): 1074.000
Counts: 84042.00
Wavelength (Ã…): 2.52098
COMMENTS
Test file for demonstrating the .xyy file format in Reel1.0
END OF HEADER
   tth       Y_obs     Y_calc      Y_res    Background    Phase_1_Nuc    Phase_1_Mag    Phase_2_Nuc    Phase_2_Mag
  9.970    614.000    581.241     32.759    580.615    581.224    580.615    580.631    580.615
 10.070    573.000    581.219     -8.219    580.541    581.203    580.541    580.557    580.541
 10.170    563.863    581.201    -17.339    580.463    581.184    580.463    580.479    580.463
 10.270    624.102    581.188     42.914    580.381    581.171    580.381    580.397    580.381
 10.370    583.000    581.182      1.818    580.295    581.165    580.295    580.311    580.295
 10.470    571.167    581.185    -10.019    580.204    581.168    580.204    580.221    580.204
 10.570    599.344    581.202     18.143    580.110    581.184    580.110    580.127    580.110
 10.670    566.000    581.235    -15.235    580.011    581.218    580.011    580.028    580.011
 10.770    575.000    581.293     -6.293    579.909    581.275    579.909    579.926    579.909
 10.870    592.000    581.382     10.618    579.803    581.364    579.803    579.820    579.803
 10.970    599.187    581.514     17.674    579.693    581.496    579.693    579.710    579.693
 11.070    605.000    581.705     23.295    579.579    581.687    579.579    579.596    579.579
 11.170    561.996    581.979    -19.983    579.461    581.961    579.461    579.478    579.461
 11.270    574.000    582.373     -8.373    579.339    582.354    579.339    579.357    579.339
 11.370    605.000    582.948     22.052    579.214    582.929    579.214    579.232    579.214
 11.470    565.993    583.838    -17.845    579.085    583.818    579.085    579.103    579.085
 11.570    635.000    585.422     49.578    578.952    585.401    578.952    578.970    578.952
 11.670    608.000    588.826     19.174    578.816    588.803    578.816    578.834    578.816
 11.770    617.000    596.835     20.165    578.676    596.807    578.676    578.695    578.676
 11.870    626.000    614.201     11.799    578.533    614.164    578.533    578.551    578.533
 11.970    686.000    644.933     41.067    578.387    644.879    578.387    578.405    578.387
 12.070    651.000    685.298    -34.298    578.236    685.222    578.236    578.255    578.236
 12.170    695.000    717.339    -22.339    578.083    717.246    578.083    578.101    578.083
 12.270    680.783    718.238    -37.455    577.926    718.144    577.926    577.945    577.926
 12.370    696.000    687.028      8.972    577.766    686.951    577.766    577.785    577.766
 12.470    636.000    646.135    -10.135    577.603    646.079    577.603    577.621    577.603
 12.570    638.518    614.345     24.173    577.436    614.306    577.436    577.455    577.436
 12.670    563.969    596.034    -32.065    577.266    596.005    577.266    577.285    577.266
 12.770    579.000    587.372     -8.372    577.093    587.348    577.093    577.112    577.093
 12.870    565.000    583.517    -18.517    576.917    583.495    576.917    576.936    576.917
 12.970    552.000    581.574    -29.574    576.738    581.552    576.738    576.758    576.738
 13.070    572.000    580.355     -8.355    576.556    580.332    576.556    576.576    576.556
 13.170    545.000    579.462    -34.462    576.371    579.438    576.371    576.394    576.371
 13.270    563.000    578.754    -15.754    576.183    578.729    576.183    576.206    576.183
 13.370    529.000    578.168    -49.168    575.992    578.143    575.992    576.016    575.992
 13.470    620.000    577.668     42.332    575.798    577.642    575.798    575.823    575.798
 13.570    590.000    577.229     12.771    575.601    577.203    575.601    575.626    575.601
 13.670    582.000    576.834      5.166    575.402    576.808    575.402    575.427    575.402
 13.770    535.982    576.473    -40.491    575.199    576.447    575.199    575.225    575.199
 13.870    547.153    576.137    -28.984    574.994    576.111    574.994    575.020    574.994
 13.970    587.760    575.820     11.940    574.787    575.793    574.787    574.812    574.787
 14.070    541.029    575.517    -34.488    574.576    575.491    574.576    574.602    574.576
 14.170    614.365    575.226     39.139    574.363    575.199    574.363    574.390    574.363
 14.270    561.000    574.944    -13.944    574.148    574.917    574.148    574.174    574.148
 14.370    593.749    574.668     19.081    573.930    574.641    573.930    573.956    573.930
 14.470    511.000    574.397    -63.397    573.709    574.370    573.709    573.736    573.709
 14.570    538.000    574.131    -36.131    573.486    574.103    573.486    573.513    573.486
 14.670    577.000    573.867      3.133    573.261    573.840    573.261    573.288    573.261
 14.770    595.000    573.607     21.393    573.033    573.578    573.033    573.061    573.033
 14.870    539.000    573.359    -34.359    572.802    573.321    572.802    572.840    572.802
 14.970    605.000    573.103     31.897    572.570    573.064    572.570    572.608    572.570
 15.070    559.000    572.845    -13.845    572.335    572.806    572.335    572.374    572.335
 15.170    562.000    572.587    -10.587    572.098    572.548    572.098    572.137    572.098
 15.270    538.051    572.329    -34.278    571.858    572.290    571.858    571.898    571.858
 15.370    612.728    572.071     40.656    571.617    572.031    571.617    571.657    571.617
 15.470    586.000    571.813     14.187    571.373    571.773    571.373    571.413    571.373
 15.570    530.000    571.554    -41.554    571.127    571.514    571.127    571.168    571.127
 15.670    573.786    571.299      2.487    570.879    571.254    570.879    570.925    570.879
 15.770    619.000    571.039     47.961    570.629    570.993    570.629    570.675    570.629
 15.870    584.563    570.777     13.786    570.377    570.731    570.377    570.424    570.377
 15.970    587.421    570.515     16.906    570.123    570.468    570.123    570.170    570.123
 16.070    561.000    570.251     -9.251    569.868    570.204    569.868    569.915    569.868
 16.170    551.714    569.987    -18.273    569.610    569.939    569.610    569.658    569.610
 16.270    560.000    569.722     -9.722    569.350    569.673    569.350    569.398    569.350
 16.370    562.201    569.455     -7.253    569.088    569.406    569.088    569.137    569.088
 16.470    597.000    569.186     27.814    568.825    569.137    568.825    568.874    568.825
 16.570    536.000    568.917    -32.917    568.560    568.868    568.560    568.609    568.560
 16.670    542.000    568.646    -26.646    568.293    568.597    568.293    568.342    568.293
 16.770    564.490    568.375     -3.884    568.024    568.325    568.024    568.074    568.024
 16.870    586.915    568.102     18.813    567.753    568.051    567.753    567.804    567.753
 16.970    526.227    567.827    -41.601    567.481    567.777    567.481    567.532    567.481
 17.070    574.000    567.552      6.448    567.208    567.501    567.208    567.258    567.208
 17.170    542.000    567.276    -25.276    566.932    567.225    566.932    566.984    566.932
 17.270    604.316    567.000     37.316    566.655    566.948    566.655    566.707    566.655
 17.370    548.000    566.721    -18.721    566.377    566.669    566.377    566.429    566.377
 17.470    533.000    566.441    -33.441    566.097    566.388    566.097    566.149    566.097
 17.570    602.971    566.159     36.811    565.815    566.107    565.815    565.868    565.815
 17.670    582.000    565.877     16.123    565.532    565.824    565.532    565.586    565.532
 17.770    555.000    565.595    -10.595    565.248    565.542    565.248    565.302    565.248
 17.870    533.523    565.311    -31.788    564.962    565.257    564.962    565.016    564.962
 17.970    580.000    565.025     14.975    564.675    564.971    564.675    564.730    564.675
 18.070    560.722    564.738     -4.017    564.387    564.683    564.387    564.442    564.387
 18.170    562.000    564.450     -2.450    564.097    564.395    564.097    564.152    564.097
 18.270    572.000    564.162      7.838    563.806    564.106    563.806    563.862    563.806
 18.370    593.000    563.872     29.128    563.514    563.816    563.514    563.570    563.514
 18.470    566.000    563.581      2.419    563.220    563.525    563.220    563.277    563.220
 18.570    574.000    563.290     10.710    562.926    563.232    562.926    562.983    562.926
 18.670    529.000    562.997    -33.997    562.630    562.939    562.630    562.688    562.630
 18.770    524.040    562.706    -38.666    562.333    562.645    562.333    562.394    562.333
 18.870    542.000    562.412    -20.412    562.035    562.350    562.035    562.096    562.035
 18.970    600.593    562.117     38.476    561.736    562.055    561.736    561.798    561.736
 19.070    580.000    561.822     18.178    561.436    561.758    561.436    561.499    561.436
 19.170    586.000    561.525     24.475    561.135    561.461    561.135    561.198    561.135
 19.270    578.332    561.228     17.104    560.832    561.163    560.832    560.897    560.832
 19.370    529.000    560.930    -31.930    560.529    560.865    560.529    560.595    560.529
 19.470    570.320    560.631      9.689    560.225    560.565    560.225    560.291    560.225
 19.570    562.000    560.332      1.668    559.920    560.266    559.920    559.987    559.920
 19.670    538.000    560.032    -22.032    559.614    559.965    559.614    559.681    559.614
 19.770    545.000    559.732    -14.732    559.307    559.664    559.307    559.375    559.307
 19.870    528.039    559.431    -31.392    559.000    559.363    559.000    559.068    559.000
 19.970    517.000    559.130    -42.130    558.691    559.061    558.691    558.760    558.691
 20.070    555.402    558.829     -3.426    558.382    558.759    558.382    558.452    558.382
 20.170    576.000    558.527     17.473    558.072    558.457    558.072    558.143    558.072
 20.270    581.000    558.225     22.775    557.762    558.154    557.762    557.833    557.762
 20.370    571.000    557.924     13.076    557.450    557.852    557.450    557.522    557.450
 20.470    591.672    557.623     34.049    557.138    557.551    557.138    557.211    557.138
 20.570    598.805    557.334     41.470    556.826    557.261    556.826    556.899    556.826
 20.670    596.517    557.042     39.475    556.512    556.968    556.512    556.586    556.512
 20.770    522.000    556.742    -34.742    556.198    556.666    556.198    556.274    556.198
 20.870    542.000    556.439    -14.439    555.884    556.363    555.884    555.961    555.884
 20.970    590.000    556.146     33.854    555.569    556.068    555.569    555.646    555.569
 21.070    531.000    555.932    -24.932    555.253    555.853    555.253    555.332    555.253
 21.170    562.000    555.653      6.347    554.937    555.574    554.937    555.017    554.937
 21.270    542.570    555.354    -12.784    554.621    555.274    554.621    554.701    554.621
 21.370    537.812    555.054    -17.242    554.304    554.973    554.304    554.385    554.304
 21.470    549.000    554.755     -5.755    553.986    554.673    553.986    554.068    553.986
 21.570    556.000    554.458      1.542    553.668    554.375    553.668    553.751    553.668
 21.670    553.000    554.183     -1.183    553.350    554.099    553.350    553.434    553.350
 21.770    551.000    553.917     -2.917    553.031    553.832    553.031    553.116    553.031
 21.870    587.000    553.625     33.375    552.712    553.539    552.712    552.799    552.712
 21.970    524.000    553.336    -29.336    552.393    553.245    552.393    552.484    552.393
 22.070    506.000    553.047    -47.047    552.074    552.953    552.074    552.167    552.074
 22.170    505.000    552.759    -47.759    551.754    552.664    551.754    551.849    551.754
 22.270    547.674    552.473     -4.799    551.434    552.377    551.434    551.530    551.434
 22.370    581.242    552.194     29.048    551.113    552.097    551.113    551.211    551.113
 22.470    554.000    551.961      2.039    550.793    551.863    550.793    550.892    550.793
 22.570    587.403    551.705     35.698    550.472    551.605    550.472    550.572    550.472
 22.670    542.000    551.437     -9.437    550.151    551.336    550.151    550.253    550.151
 22.770    582.616    551.174     31.442    549.830    551.071    549.830    549.933    549.830
 22.870    574.000    550.918     23.082    549.509    550.813    549.509    549.614    549.509
 22.970    536.000    550.670    -14.670    549.188    550.564    549.188    549.294    549.188
 23.070    594.657    550.433     44.224    548.867    550.326    548.867    548.975    548.867
 23.170    514.000    550.212    -36.212    548.545    550.103    548.545    548.655    548.545
 23.270    560.000    550.008      9.992    548.224    549.898    548.224    548.335    548.224
 23.370    585.473    549.823     35.651    547.902    549.710    547.902    548.016    547.902
 23.470    545.968    549.664     -3.696    547.581    549.549    547.581    547.696    547.581
 23.570    593.067    549.540     43.527    547.260    549.424    547.260    547.377    547.260
 23.670    559.000    549.465      9.535    546.938    549.346    546.938    547.058    546.938
 23.770    550.443    549.454      0.989    546.617    549.334    546.617    546.739    546.617
 23.870    537.000    549.537    -12.537    546.296    549.415    546.296    546.420    546.296
 23.970    543.784    549.763     -5.979    545.975    549.639    545.975    546.101    545.975
 24.070    507.638    550.248    -42.609    545.654    550.121    545.654    545.783    545.654
 24.170    535.871    551.330    -15.460    545.333    551.202    545.333    545.465    545.333
 24.270    565.000    553.974     11.026    545.013    553.845    545.013    545.147    545.013
 24.370    587.000    560.326     26.674    544.692    560.199    544.692    544.829    544.692
 24.470    570.321    573.556     -3.235    544.372    573.437    544.372    544.512    544.372
 24.570    569.714    595.481    -25.767    544.052    595.374    544.052    544.196    544.052
 24.670    592.000    621.894    -29.894    543.732    621.804    543.732    543.879    543.732
 24.770    634.823    639.567     -4.744    543.413    639.487    543.413    543.563    543.413
 24.870    634.000    635.242     -1.242    543.094    635.155    543.094    543.248    543.094
 24.970    640.000    612.550     27.450    542.775    612.443    542.775    542.933    542.775
 25.070    584.000    586.281     -2.281    542.456    586.150    542.456    542.619    542.456
 25.170    624.000    566.654     57.346    542.138    566.503    542.138    542.305    542.138
 25.270    564.256    555.425      8.831    541.820    555.259    541.820    541.994    541.820
 25.370    582.000    549.994     32.006    541.503    549.819    541.503    541.682    541.503
 25.470    590.000    547.455     42.545    541.185    547.273    541.185    541.371    541.185
 25.570    600.000    546.097     53.903    540.869    545.907    540.869    541.060    540.869
 25.670    547.731    545.200      2.531    540.552    545.004    540.552    540.750    540.552
 25.770    510.499    544.525    -34.026    540.237    544.322    540.237    540.441    540.237
 25.870    525.000    543.985    -18.985    539.921    543.774    539.921    540.133    539.921
 25.970    529.800    543.540    -13.740    539.606    543.321    539.606    539.826    539.606
 26.070    609.000    543.170     65.830    539.292    542.942    539.292    539.520    539.292
 26.170    535.000    542.864     -7.864    538.978    542.627    538.978    539.215    538.978
 26.270    571.000    542.637     28.363    538.664    542.390    538.664    538.912    538.664
 26.370    536.000    542.458     -6.458    538.352    542.200    538.352    538.610    538.352
 26.470    569.000    542.308     26.692    538.039    542.038    538.039    538.309    538.039
 26.570    566.000    542.209     23.791    537.727    541.926    537.727    538.010    537.727
 26.670    552.000    542.169      9.831    537.416    541.872    537.416    537.714    537.416
 26.770    551.297    542.202      9.095    537.106    541.889    537.106    537.419    537.106
 26.870    561.000    542.320     18.680    536.796    541.990    536.796    537.126    536.796
 26.970    579.697    542.535     37.162    536.487    542.185    536.487    536.836    536.487
 27.070    568.000    542.881     25.119    536.178    542.510    536.178    536.549    536.178
 27.170    551.000    543.410      7.590    535.870    543.015    535.870    536.264    535.870
 27.270    564.000    544.183     19.817    535.563    543.761    535.563    535.984    535.563
 27.370    604.000    545.261     58.739    535.256    544.809    535.256    535.707    535.256
 27.470    533.995    546.837    -12.842    534.950    546.349    534.950    535.436    534.950
 27.570    556.429    549.363      7.066    534.645    548.836    534.645    535.170    534.645
 27.670    550.786    554.379     -3.594    534.341    553.806    534.341    534.910    534.341
 27.770    538.629    566.808    -28.180    534.037    566.180    534.037    534.658    534.037
 27.870    599.000    598.409      0.591    533.734    597.710    533.734    534.415    533.734
 27.970    691.000    666.506     24.494    533.432    665.715    533.432    534.183    533.432
 28.070    767.000    777.630    -10.630    533.131    776.726    533.131    533.965    533.131
 28.170    881.000    900.428    -19.428    532.830    899.399    532.830    533.763    532.830
 28.270    959.000    960.930     -1.930    532.530    959.784    532.530    533.583    532.530
 28.370    881.000    910.297    -29.297    532.232    909.040    532.232    533.431    532.232
 28.470    827.000    800.798     26.202    531.934    799.393    531.934    533.314    531.934
 28.570    748.332    715.459     32.873    531.636    713.839    531.636    533.246    531.636
 28.670    707.000    697.412      9.588    531.340    695.492    531.340    533.248    531.340
 28.770    736.282    742.428     -6.146    531.045    740.095    531.045    533.360    531.045
 28.870    809.000    810.809     -1.809    530.750    807.886    530.750    533.664    530.750
 28.970    889.136    842.859     46.277    530.457    839.010    530.457    534.311    530.457
 29.070    756.509    803.135    -46.626    530.164    797.752    530.164    535.562    530.164
 29.170    742.995    722.479     20.516    529.872    714.583    529.872    537.783    529.872
 29.270    628.000    648.543    -20.543    529.582    636.778    529.582    541.355    529.582
 29.370    595.000    603.052     -8.052    529.292    585.895    529.292    546.452    529.292
 29.470    597.000    583.577     13.423    529.003    559.916    529.003    552.664    529.003
 29.570    585.000    578.186      6.814    528.715    548.454    528.715    558.445    528.715
 29.670    622.000    575.928     46.072    528.428    543.306    528.428    561.048    528.428
 29.770    530.899    571.052    -40.152    528.143    540.531    528.143    558.661    528.143
 29.870    586.000    563.550     22.450    527.858    538.728    527.858    552.677    527.858
 29.970    549.000    555.739     -6.739    527.574    537.462    527.574    545.849    527.574
 30.070    525.097    549.242    -24.144    527.292    536.589    527.292    539.942    527.292
 30.170    582.000    544.607     37.393    527.010    536.084    527.010    535.531    527.010
 30.270    577.910    541.848     36.063    526.729    536.055    526.729    532.519    526.729
 30.370    533.753    541.055     -7.302    526.450    536.953    526.450    530.547    526.450
 30.470    505.637    543.032    -37.395    526.171    539.958    526.171    529.239    526.171
 30.570    575.000    549.669     25.331    525.894    547.237    525.894    528.314    525.894
 30.670    574.008    563.143     10.865    525.618    561.135    525.618    527.603    525.618
 30.770    563.977    583.253    -19.277    525.343    581.546    525.343    527.014    525.343
 30.870    618.000    604.065     13.935    525.069    602.583    525.069    526.501    525.069
 30.970    570.253    613.581    -43.328    524.796    612.282    524.796    526.040    524.796
 31.070    599.262    603.854     -4.592    524.525    602.716    524.525    525.618    524.525
 31.170    579.000    582.263     -3.263    524.254    581.264    524.254    525.224    524.254
 31.270    555.000    560.813     -5.813    523.985    559.929    523.985    524.854    523.985
 31.370    563.000    545.707     17.293    523.717    544.915    523.717    524.501    523.717
 31.470    554.579    537.265     17.313    523.450    536.548    523.450    524.163    523.450
 31.570    502.560    533.193    -30.633    523.184    532.538    523.184    523.836    523.184
 31.670    568.527    531.264     37.262    522.920    530.662    522.920    523.520    522.920
 31.770    505.188    530.226    -25.038    522.656    529.669    522.656    523.212    522.656
 31.870    492.781    529.566    -36.785    522.394    529.048    522.394    522.911    522.394
 31.970    524.253    529.107     -4.854    522.134    528.623    522.134    522.616    522.134
 32.070    528.000    528.790     -0.790    521.874    528.336    521.874    522.327    521.874
 32.170    486.237    528.590    -42.353    521.616    528.163    521.616    522.043    521.616
 32.270    515.377    528.501    -13.123    521.359    528.096    521.359    521.762    521.359
 32.370    572.000    528.521     43.479    521.103    528.137    521.103    521.486    521.103
 32.470    530.338    528.659      1.679    520.848    528.294    520.848    521.213    520.848
 32.570    561.000    528.932     32.068    520.595    528.583    520.595    520.944    520.595
 32.670    509.000    529.366    -20.366    520.343    529.032    520.343    520.677    520.343
 32.770    566.000    529.999     36.001    520.093    529.678    520.093    520.413    520.093
 32.870    495.000    530.887    -35.887    519.843    530.578    519.843    520.152    519.843
 32.970    509.000    532.113    -23.113    519.595    531.814    519.595    519.893    519.595
 33.070    576.000    533.805     42.195    519.349    533.516    519.349    519.636    519.349
 33.170    562.000    536.197     25.803    519.104    535.917    519.104    519.382    519.104
 33.270    575.449    539.825     35.625    518.860    539.552    518.860    519.130    518.860
 33.370    537.406    546.148     -8.743    518.617    545.882    518.617    518.880    518.617
 33.470    579.000    559.017     19.983    518.376    558.755    518.376    518.632    518.376
 33.570    574.000    586.786    -12.786    518.136    586.525    518.136    518.386    518.136
 33.670    675.883    642.678     33.205    517.897    642.414    517.897    518.142    517.897
 33.770    735.793    738.699     -2.906    517.660    738.427    517.660    517.900    517.660
 33.870    888.900    871.087     17.813    517.424    870.804    517.424    517.659    517.424
 33.970   1031.550   1003.896     27.654    517.190   1003.610    517.190    517.421    517.190
 34.070   1086.000   1068.995     17.005    516.957   1068.723    516.957    517.184    516.957
 34.170    995.000   1020.110    -25.110    516.726   1019.868    516.726    516.948    516.726
 34.270    847.563    893.502    -45.939    516.495    893.285    516.495    516.715    516.495
 34.370    756.882    757.741     -0.859    516.267    757.537    516.267    516.483    516.267
 34.470    617.000    654.498    -37.498    516.039    654.296    516.039    516.253    516.039
 34.570    574.474    591.958    -17.484    515.813    591.754    515.813    516.025    515.813
 34.670    529.130    559.762    -30.633    515.589    559.557    515.589    515.798    515.589
 34.770    546.000    544.415      1.585    515.366    544.209    515.366    515.573    515.366
 34.870    561.000    536.728     24.272    515.145    536.524    515.145    515.349    515.145
 34.970    568.000    532.225     35.775    514.924    532.022    514.924    515.128    514.924
 35.070    533.000    529.138      3.862    514.706    528.936    514.706    514.907    514.706
 35.170    496.526    526.815    -30.288    514.489    526.614    514.489    514.689    514.489
 35.270    535.000    524.984     10.016    514.273    524.784    514.273    514.472    514.273
 35.370    531.000    523.500      7.500    514.059    523.302    514.059    514.257    514.059
 35.470    502.585    522.274    -19.690    513.846    522.077    513.846    514.043    513.846
 35.570    537.000    521.243     15.757    513.635    521.046    513.635    513.831    513.635
 35.670    509.000    520.361    -11.361    513.425    520.165    513.425    513.620    513.425
 35.770    513.845    519.597     -5.752    513.217    519.402    513.217    513.411    513.217
 35.870    544.000    518.928     25.072    513.010    518.734    513.010    513.204    513.010
 35.970    509.887    518.335     -8.449    512.804    518.142    512.804    512.998    512.804
 36.070    502.000    517.806    -15.806    512.601    517.613    512.601    512.794    512.601
 36.170    519.000    517.331      1.669    512.398    517.138    512.398    512.592    512.398
 36.270    485.136    516.902    -31.766    512.198    516.709    512.198    512.391    512.198
 36.370    498.000    516.514    -18.514    511.998    516.321    511.998    512.191    511.998
 36.470    485.000    516.163    -31.163    511.801    515.970    511.801    511.994    511.801
 36.570    501.000    515.848    -14.848    511.604    515.655    511.604    511.798    511.604
 36.670    538.906    515.570     23.336    511.410    515.377    511.410    511.603    511.410
 36.770    520.000    515.333      4.667    511.217    515.140    511.217    511.410    511.217
 36.870    533.000    515.154     17.846    511.025    514.960    511.025    511.219    511.025
 36.970    507.000    515.079     -8.079    510.835    514.885    510.835    511.029    510.835
 37.070    534.000    515.228     18.772    510.646    515.034    510.646    510.841    510.646
 37.170    486.000    515.849    -29.849    510.459    515.654    510.459    510.655    510.459
 37.270    478.256    517.320    -39.064    510.274    517.125    510.274    510.470    510.274
 37.370    497.543    519.987    -22.445    510.090    519.792    510.090    510.287    510.090
 37.470    560.000    523.792     36.208    509.908    523.596    509.908    510.105    509.908
 37.570    489.157    527.852    -38.695    509.727    527.657    509.727    509.925    509.727
 37.670    495.000    530.417    -35.417    509.548    530.223    509.548    509.747    509.548
 37.770    519.251    530.014    -10.763    509.370    529.821    509.370    509.570    509.370
 37.870    541.168    527.028     14.140    509.194    526.836    509.194    509.395    509.194
 37.970    532.000    523.083      8.917    509.019    522.891    509.019    509.222    509.019
 38.070    496.000    519.438    -23.438    508.847    519.246    508.847    509.050    508.847
 38.170    483.978    516.564    -32.586    508.675    516.369    508.675    508.880    508.675
 38.270    516.195    514.506      1.689    508.505    514.307    508.505    508.711    508.505
 38.370    482.000    513.123    -31.123    508.337    512.920    508.337    508.544    508.337
 38.470    501.000    512.219    -11.219    508.170    512.013    508.170    508.379    508.170
 38.570    524.264    511.625     12.639    508.005    511.417    508.005    508.215    508.005
 38.670    497.000    511.219    -14.219    507.842    511.008    507.842    508.053    507.842
 38.770    483.362    510.917    -27.555    507.680    510.704    507.680    507.893    507.680
 38.870    479.000    510.670    -31.670    507.520    510.456    507.520    507.734    507.520
 38.970    510.000    510.455     -0.455    507.361    510.240    507.361    507.577    507.361
 39.070    501.000    510.260     -9.260    507.204    510.043    507.204    507.422    507.204
 39.170    494.000    510.080    -16.080    507.048    509.861    507.048    507.268    507.048
 39.270    534.458    509.911     24.547    506.894    509.690    506.894    507.116    506.894
 39.370    503.000    509.753     -6.753    506.742    509.530    506.742    506.965    506.742
 39.470    508.000    509.603     -1.603    506.591    509.378    506.591    506.816    506.591
 39.570    533.495    509.462     24.033    506.442    509.235    506.442    506.669    506.442
 39.670    498.000    509.329    -11.329    506.295    509.100    506.295    506.524    506.295
 39.770    547.000    509.204     37.796    506.149    508.973    506.149    506.380    506.149
 39.870    484.215    509.086    -24.871    506.004    508.853    506.004    506.238    506.004
 39.970    503.000    508.976     -5.976    505.861    508.740    505.861    506.098    505.861
 40.070    499.000    508.874     -9.874    505.720    508.636    505.720    505.959    505.720
 40.170    511.000    508.781      2.219    505.581    508.540    505.581    505.822    505.581
 40.270    547.203    508.696     38.507    505.443    508.453    505.443    505.686    505.443
 40.370    454.000    508.621    -54.621    505.306    508.375    505.306    505.552    505.306
 40.470    511.000    508.557      2.443    505.171    508.308    505.171    505.420    505.171
 40.570    551.900    508.505     43.396    505.038    508.253    505.038    505.290    505.038
 40.670    502.000    508.466     -6.466    504.907    508.212    504.907    505.161    504.907
 40.770    533.000    508.444     24.556    504.777    508.186    504.777    505.034    504.777
 40.870    512.000    508.439      3.561    504.648    508.179    504.648    504.909    504.648
 40.970    482.000    508.457    -26.457    504.521    508.194    504.521    504.785    504.521
 41.070    474.235    508.501    -34.266    504.396    508.234    504.396    504.664    504.396
 41.170    503.000    508.577     -5.577    504.272    508.307    504.272    504.543    504.272
 41.270    526.885    508.694     18.191    504.150    508.420    504.150    504.425    504.150
 41.370    522.000    508.861     13.139    504.030    508.584    504.030    504.308    504.030
 41.470    527.000    509.096     17.905    503.911    508.815    503.911    504.193    503.911
 41.570    516.000    509.420      6.580    503.794    509.136    503.794    504.080    503.794
 41.670    511.000    509.879      1.121    503.678    509.591    503.678    503.968    503.678
 41.770    551.360    510.568     40.792    503.564    510.275    503.564    503.858    503.564
 41.870    527.000    511.720     15.280    503.452    511.424    503.452    503.750    503.452
 41.970    512.000    513.885     -1.885    503.341    513.586    503.341    503.644    503.341
 42.070    505.000    518.173    -13.173    503.231    517.871    503.231    503.539    503.231
 42.170    525.000    526.387     -1.387    503.124    526.085    503.124    503.436    503.124
 42.270    509.000    540.629    -31.629    503.018    540.328    503.018    503.335    503.018
 42.370    573.000    562.037     10.963    502.913    561.742    502.913    503.236    502.913
 42.470    592.000    588.873      3.127    502.810    588.586    502.810    503.138    502.810
 42.570    592.000    614.863    -22.863    502.709    614.586    502.709    503.042    502.709
 42.670    631.757    629.759      1.998    502.609    629.487    502.609    502.948    502.609
 42.770    634.607    625.728      8.879    502.511    625.452    502.511    502.856    502.511
 42.870    597.000    605.158     -8.158    502.414    604.866    502.414    502.765    502.414
 42.970    545.716    577.813    -32.097    502.319    577.501    502.319    502.677    502.319
 43.070    512.775    552.604    -39.829    502.225    552.269    502.225    502.590    502.225
 43.170    539.524    533.899      5.624    502.133    533.547    502.133    502.505    502.133
 43.270    490.000    522.098    -32.098    502.043    521.730    502.043    502.422    502.043
 43.370    508.000    515.511     -7.511    501.954    515.131    501.954    502.341    501.954
 43.470    471.274    512.081    -40.807    501.867    511.690    501.867    502.261    501.867
 43.570    489.531    510.275    -20.744    501.781    509.875    501.781    502.184    501.781
 43.670    455.000    509.229    -54.229    501.697    508.820    501.697    502.108    501.697
 43.770    532.145    508.540     23.604    501.615    508.122    501.615    502.035    501.615
 43.870    470.000    508.038    -38.038    501.533    507.610    501.533    501.963    501.533
 43.970    519.000    507.652     11.348    501.454    507.214    501.454    501.893    501.454
 44.070    532.000    507.349     24.651    501.376    506.900    501.376    501.826    501.376
 44.170    501.000    507.108     -6.108    501.300    506.649    501.300    501.760    501.300
 44.270    487.000    506.917    -19.917    501.225    506.446    501.225    501.697    501.225
 44.370    505.000    506.765     -1.765    501.151    506.282    501.151    501.635    501.151
 44.470    509.000    506.647      2.353    501.080    506.151    501.080    501.576    501.080
 44.570    503.985    506.557     -2.571    501.009    506.047    501.009    501.519    501.009
 44.670    515.000    506.491      8.509    500.941    505.967    500.941    501.464    500.941
 44.770    494.000    506.446    -12.446    500.873    505.908    500.873    501.412    500.873
 44.870    524.539    506.422     18.117    500.808    505.868    500.808    501.362    500.808
 44.970    500.000    506.415     -6.415    500.744    505.845    500.744    501.314    500.744
 45.070    490.000    506.426    -16.426    500.681    505.838    500.681    501.269    500.681
 45.170    498.000    506.454     -8.454    500.620    505.847    500.620    501.226    500.620
 45.270    468.703    506.498    -37.795    500.560    505.872    500.560    501.186    500.560
 45.370    499.000    506.559     -7.559    500.502    505.912    500.502    501.149    500.502
 45.470    508.000    506.636      1.364    500.445    505.967    500.445    501.115    500.445
 45.570    467.109    506.732    -39.622    500.390    506.039    500.390    501.083    500.390
 45.670    541.890    506.846     35.044    500.337    506.127    500.337    501.055    500.337
 45.770    511.000    506.980      4.020    500.284    506.234    500.284    501.031    500.284
 45.870    548.451    507.136     41.315    500.234    506.360    500.234    501.009    500.234
 45.970    467.000    507.316    -40.316    500.185    506.508    500.185    500.992    500.185
 46.070    505.000    507.522     -2.522    500.137    506.681    500.137    500.978    500.137
 46.170    519.000    507.759     11.241    500.091    506.880    500.091    500.969    500.091
 46.270    481.000    508.030    -27.030    500.046    507.111    500.046    500.964    500.046
 46.370    502.842    508.341     -5.500    500.002    507.379    500.002    500.964    500.002
 46.470    486.000    508.700    -22.700    499.960    507.690    499.960    500.970    499.960
 46.570    529.000    509.115     19.885    499.920    508.053    499.920    500.981    499.920
 46.670    467.000    509.603    -42.603    499.881    508.484    499.881    500.999    499.881
 46.770    504.000    510.190     -6.190    499.844    509.008    499.844    501.024    499.844
 46.870    478.831    510.929    -32.098    499.807    509.677    499.807    501.057    499.807
 46.970    509.000    511.935     -2.935    499.773    510.607    499.773    501.099    499.773
 47.070    524.000    513.473     10.527    499.740    512.058    499.740    501.151    499.740
 47.170    515.000    516.055     -1.055    499.708    514.544    499.708    501.214    499.708
 47.270    507.000    520.538    -13.538    499.677    518.917    499.677    501.291    499.677
 47.370    553.000    528.018     24.982    499.648    526.271    499.648    501.382    499.648
 47.470    535.552    539.410     -3.858    499.621    537.518    499.621    501.491    499.621
 47.570    582.000    554.670     27.330    499.595    552.611    499.595    501.621    499.595
 47.670    611.596    571.959     39.638    499.570    569.709    499.570    501.775    499.570
 47.770    606.000    587.177     18.823    499.547    584.711    499.547    501.959    499.547
 47.870    550.176    594.831    -44.655    499.525    592.121    499.525    502.178    499.525
 47.970    581.000    591.663    -10.663    499.504    588.675    499.504    502.440    499.504
 48.070    604.241    579.890     24.350    499.485    576.577    499.485    502.757    499.485
 48.170    563.000    564.870     -1.870    499.467    561.164    499.467    503.143    499.467
 48.270    564.000    551.216     12.784    499.450    547.024    499.450    503.623    499.450
 48.370    534.000    541.377     -7.377    499.435    536.562    499.435    504.238    499.435
 48.470    525.000    535.915    -10.915    499.421    530.264    499.421    505.065    499.421
 48.570    562.560    534.270     28.289    499.409    527.434    499.409    506.240    499.409
 48.670    518.000    535.662    -17.662    499.398    527.047    499.398    508.009    499.398
 48.770    511.000    539.654    -28.654    499.388    528.271    499.388    510.768    499.388
 48.870    530.000    546.347    -16.347    499.380    530.640    499.380    515.083    499.380
 48.970    523.000    556.304    -33.304    499.373    534.033    499.373    521.639    499.373
 49.070    553.000    570.360    -17.360    499.367    538.650    499.367    531.072    499.367
 49.170    569.242    589.507    -20.265    499.362    545.198    499.362    543.664    499.362
 49.270    588.292    615.171    -26.879    499.359    555.567    499.359    558.953    499.359
 49.370    623.556    650.330    -26.773    499.357    574.402    499.357    575.268    499.357
 49.470    675.000    701.860    -26.860    499.357    611.828    499.357    589.361    499.357
 49.570    778.000    784.048     -6.048    499.358    686.436    499.358    596.922    499.358
 49.670    933.090    921.156     11.934    499.360    825.446    499.360    594.990    499.360
 49.770   1162.000   1142.312     19.688    499.363   1057.134    499.363    584.422    499.363
 49.870   1445.000   1462.709    -17.709    499.368   1392.865    499.368    569.058    499.368
 49.970   1945.000   1857.588     87.412    499.373   1803.891    499.373    552.906    499.373
 50.070   2283.000   2245.848     37.152    499.380   2206.526    499.380    538.578    499.380
 50.170   2469.000   2502.362    -33.362    499.389   2474.495    499.389    527.227    499.389
 50.270   2576.000   2517.900     58.100    499.398   2498.411    499.398    518.981    499.398
 50.370   2322.000   2281.342     40.658    499.409   2267.551    499.409    513.383    499.409
 50.470   1911.000   1890.726     20.274    499.421   1880.604    499.421    509.754    499.421
 50.570   1524.382   1476.053     48.329    499.434   1468.232    499.434    507.445    499.434
 50.670   1176.191   1130.424     45.767    499.449   1124.062    499.449    505.955    499.449
 50.770    854.332    890.933    -36.601    499.465    885.547    499.465    504.952    499.465
 50.870    712.000    750.017    -38.017    499.482    745.331    499.482    504.237    499.482
 50.970    638.490    678.078    -39.588    499.500    673.932    499.500    503.699    499.500
 51.070    648.000    643.353      4.647    499.519    639.638    499.519    503.278    499.519
 51.170    641.000    622.813     18.187    499.539    619.450    499.539    502.941    499.539
 51.270    592.000    605.066    -13.066    499.561    601.992    499.561    502.667    499.561
 51.370    558.000    587.551    -29.551    499.584    584.717    499.584    502.443    499.584
 51.470    615.000    571.480     43.520    499.608    568.847    499.608    502.260    499.608
 51.570    587.000    558.368     28.632    499.633    555.904    499.633    502.109    499.633
 51.670    541.597    548.837     -7.241    499.659    546.519    499.659    501.987    499.659
 51.770    512.000    542.618    -30.618    499.686    540.423    499.686    501.887    499.686
 51.870    553.000    538.963     14.037    499.715    536.875    499.715    501.807    499.715
 51.970    556.062    537.086     18.976    499.745    535.090    499.745    501.744    499.745
 52.070    576.000    536.412     39.588    499.775    534.494    499.775    501.696    499.775
 52.170    558.000    536.641     21.359    499.807    534.791    499.807    501.660    499.807
 52.270    519.000    537.723    -18.723    499.840    535.929    499.840    501.636    499.840
 52.370    546.783    539.863      6.920    499.874    538.117    499.874    501.622    499.874
 52.470    580.000    543.674     36.326    499.909    541.969    499.909    501.617    499.909
 52.570    551.000    550.538      0.462    499.946    548.865    499.946    501.620    499.946
 52.670    562.945    563.181     -0.236    499.983    561.534    499.983    501.631    499.983
 52.770    621.000    586.268     34.732    500.021    584.642    500.021    501.649    500.021
 52.870    628.000    626.449      1.551    500.061    624.837    500.061    501.673    500.061
 52.970    666.081    691.056    -24.975    500.101    689.454    500.101    501.703    500.101
 53.070    858.000    784.906     73.094    500.143    783.310    500.143    501.739    500.143
 53.170    863.549    905.698    -42.149    500.185    904.106    500.185    501.780    500.185
 53.270   1025.593   1039.579    -13.986    500.229   1037.992    500.229    501.826    500.229
 53.370   1179.000   1159.150     19.850    500.273   1157.567    500.273    501.878    500.273
 53.470   1229.000   1228.466      0.534    500.319   1226.887    500.319    501.934    500.319
 53.570   1183.000   1221.125    -38.125    500.366   1219.544    500.366    501.996    500.366
 53.670   1174.898   1140.457     34.441    500.413   1138.863    500.413    502.062    500.413
 53.770    965.000   1016.406    -51.406    500.462   1014.786    500.462    502.133    500.462
 53.870    933.235    884.030     49.206    500.511    882.374    500.511    502.209    500.511
 53.970    733.036    768.238    -35.201    500.562    766.541    500.562    502.290    500.562
 54.070    717.164    680.494     36.670    500.613    678.753    500.613    502.376    500.613
 54.170    600.000    621.442    -21.442    500.665    619.654    500.665    502.468    500.665
 54.270    606.522    585.512     21.010    500.719    583.675    500.719    502.564    500.719
 54.370    568.658    565.346      3.312    500.773    563.458    500.773    502.666    500.773
 54.470    597.000    554.632     42.368    500.828    552.690    500.828    502.774    500.828
 54.570    558.378    549.094      9.284    500.884    547.093    500.884    502.888    500.884
 54.670    530.238    546.293    -16.055    500.941    544.228    500.941    503.009    500.941
 54.770    584.000    545.015     38.985    500.999    542.880    500.999    503.136    500.999
 54.870    586.000    544.712     41.288    501.058    542.502    501.058    503.270    501.058
 54.970    586.000    545.161     40.839    501.118    542.868    501.118    503.412    501.118
 55.070    556.949    546.284     10.665    501.178    543.901    501.178    503.563    501.178
 55.170    571.257    548.075     23.183    501.240    545.593    501.240    503.723    501.240
 55.270    535.000    550.578    -15.578    501.302    547.989    501.302    503.892    501.302
 55.370    566.000    553.887     12.113    501.365    551.181    501.365    504.073    501.365
 55.470    573.648    558.176     15.471    501.429    555.342    501.429    504.265    501.429
 55.570    558.000    563.772     -5.772    501.494    560.797    501.494    504.470    501.494
 55.670    580.667    571.349      9.319    501.560    568.221    501.560    504.689    501.560
 55.770    616.170    582.369     33.801    501.626    579.071    501.626    504.924    501.626
 55.870    623.311    599.913     23.398    501.693    596.428    501.693    505.177    501.693
 55.970    636.543    630.005      6.538    501.761    626.313    501.761    505.450    501.761
 56.070    730.533    683.144     47.389    501.830    679.220    501.830    505.745    501.830
 56.170    711.000    775.080    -64.080    501.900    770.896    501.900    506.066    501.900
 56.270    919.774    925.162     -5.388    501.970    920.687    501.970    506.416    501.970
 56.370   1105.000   1150.630    -45.630    502.041   1145.833    502.041    506.798    502.041
 56.470   1346.000   1456.802   -110.802    502.113   1451.651    502.113    507.218    502.113
 56.570   1877.677   1825.845     51.832    502.186   1820.313    502.186    507.682    502.186
 56.670   2136.000   2208.578    -72.578    502.259   2202.638    502.259    508.197    502.259
 56.770   2488.000   2524.595    -36.595    502.333   2518.216    502.333    508.772    502.333
 56.870   2583.000   2681.727    -98.727    502.408   2674.864    502.408    509.417    502.408
 56.970   2627.000   2624.573      2.427    502.483   2617.142    502.483    510.145    502.483
 57.070   2330.187   2375.755    -45.568    502.560   2367.622    502.560    510.973    502.560
 57.170   2095.000   2016.866     78.134    502.636   2007.864    502.636    511.922    502.636
 57.270   1688.317   1637.124     51.193    502.714   1627.065    502.714    513.022    502.714
 57.370   1303.000   1301.080      1.920    502.792   1289.756    502.792    514.313    502.792
 57.470   1074.000   1040.849     33.151    502.871   1027.999    502.871    515.861    502.871
 57.570    856.000    861.055     -5.055    502.951    846.322    502.951    517.775    502.951
 57.670    807.000    749.328     57.672    503.031    732.168    503.031    520.246    503.031
 57.770    669.000    687.430    -18.430    503.112    666.964    503.112    523.608    503.112
 57.870    657.000    659.283     -2.283    503.193    634.068    503.193    528.422    503.193
 57.970    694.000    654.698     39.302    503.275    622.407    503.275    535.569    503.275
 58.070    654.000    669.694    -15.694    503.358    626.735    503.358    546.309    503.358
 58.170    685.000    704.917    -19.917    503.441    646.095    503.441    562.244    503.441
 58.270    751.000    763.267    -12.267    503.525    681.663    503.525    585.099    503.525
 58.370    873.000    847.290     25.710    503.609    734.565    503.609    616.292    503.609
 58.470    991.691    956.654     35.037    503.694    803.988    503.694    656.309    503.694
 58.570   1076.777   1086.115     -9.339    503.780    885.858    503.780    703.981    503.780
 58.670   1207.096   1224.376    -17.280    503.866    972.451    503.866    755.737    503.866
 58.770   1317.554   1355.259    -37.705    503.952   1054.256    503.952    804.912    503.952
 58.870   1531.000   1460.869     70.131    504.039   1123.118    504.039    841.763    504.039
 58.970   1550.000   1524.781     25.219    504.127   1172.787    504.127    856.114    504.127
 59.070   1557.000   1535.986     21.014    504.215   1196.996    504.215    843.220    504.215
 59.170   1485.991   1494.567     -8.576    504.304   1191.452    504.304    807.450    504.304
 59.270   1432.000   1414.016     17.984    504.393   1159.597    504.393    758.849    504.393
 59.370   1285.129   1316.099    -30.970    504.483   1113.362    504.483    707.245    504.483
 59.470   1247.000   1222.480     24.520    504.573   1067.591    504.573    659.463    504.573
 59.570   1172.000   1150.814     21.186    504.663   1036.230    504.663    619.214    504.663
 59.670   1124.494   1115.683      8.811    504.754   1032.590    504.754    587.770    504.754
 59.770   1170.641   1128.060     42.581    504.846   1068.064    504.846    564.712    504.846
 59.870   1206.000   1190.690     15.310    504.938   1146.788    504.938    548.655    504.938
 59.970   1355.000   1293.468     61.532    505.030   1260.383    505.030    537.879    505.030
 60.070   1457.000   1412.047     44.953    505.123   1386.124    505.123    530.772    505.123
 60.170   1596.000   1510.461     85.539    505.216   1489.337    505.216    526.054    505.216
 60.270   1658.000   1550.539    107.461    505.309   1532.758    505.309    522.828    505.309
 60.370   1474.709   1510.003    -35.293    505.403   1494.676    505.403    520.520    505.403
 60.470   1376.000   1396.084    -20.084    505.498   1382.647    505.498    518.789    505.498
 60.570   1221.000   1238.351    -17.351    505.592   1226.414    505.592    517.442    505.592
 60.670   1157.000   1070.744     86.256    505.687   1060.014    505.687    516.372    505.687
 60.770    934.000    919.543     14.457    505.783    909.786    505.783    515.522    505.783
 60.870    799.000    799.466     -0.466    505.878    790.477    505.878    514.862    505.878
 60.970    751.371    714.606     36.765    505.974    706.198    505.974    514.381    505.974
 61.070    657.000    662.012     -5.012    506.071    654.001    506.071    514.076    506.071
 61.170    648.479    636.144     12.335    506.167    628.349    506.167    513.952    506.167
 61.270    647.000    632.601     14.399    506.264    624.838    506.264    514.008    506.264
 61.370    640.000    650.169    -10.169    506.361    642.265    506.361    514.235    506.361
 61.470    761.000    690.990     70.010    506.459    682.797    506.459    514.604    506.459
 61.570    718.000    759.014    -41.014    506.557    750.440    506.557    515.060    506.557
 61.670    863.000    857.086      5.914    506.655    848.128    506.655    515.513    506.655
 61.770    975.000    983.366     -8.366    506.753    974.148    506.753    515.841    506.753
 61.870   1074.169   1128.164    -53.995    506.852   1118.942    506.852    515.917    506.852
 61.970   1241.000   1272.323    -31.323    506.950   1263.429    506.950    515.671    506.950
 62.070   1360.107   1388.378    -28.272    507.049   1380.122    507.049    515.135    507.049
 62.170   1422.000   1447.041    -25.041    507.148   1439.628    507.148    514.416    507.148
 62.270   1461.688   1430.509     31.179    507.248   1424.015    507.248    513.638    507.248
 62.370   1348.000   1343.685      4.315    507.347   1338.080    507.347    512.894    507.347
 62.470   1191.000   1210.656    -19.656    507.447   1205.840    507.447    512.242    507.447
 62.570   1054.000   1061.059     -7.059    507.547   1056.900    507.547    511.708    507.547
 62.670    937.000    919.372     17.628    507.647    915.737    507.647    511.298    507.647
 62.770    800.215    800.777     -0.561    507.747    797.543    507.747    510.999    507.747
 62.870    726.000    711.150     14.850    507.848    708.220    507.848    510.792    507.848
 62.970    650.000    649.246      0.754    507.948    646.547    507.948    510.657    507.948
 63.070    571.000    609.804    -38.804    508.049    607.284    508.049    510.574    508.049
 63.170    574.000    586.456    -12.456    508.150    584.079    508.150    510.527    508.150
 63.270    554.000    573.657    -19.657    508.250    571.400    508.250    510.505    508.250
 63.370    597.000    567.546     29.454    508.351    565.392    508.351    510.501    508.351
 63.470    524.000    566.046    -42.046    508.452    563.982    508.452    510.510    508.452
 63.570    605.000    568.641     36.359    508.553    566.657    508.553    510.529    508.553
 63.670    590.000    576.105     13.895    508.655    574.190    508.655    510.556    508.655
 63.770    550.876    590.235    -39.359    508.756    588.382    508.756    510.590    508.756
 63.870    615.559    613.493      2.066    508.857    611.692    508.857    510.630    508.857
 63.970    668.029    648.389     19.640    508.958    646.631    508.958    510.674    508.958
 64.070    717.789    696.558     21.231    509.060    694.835    509.060    510.724    509.060
 64.170    709.467    757.635    -48.168    509.161    755.941    509.161    510.777    509.161
 64.270    839.000    828.187     10.813    509.262    826.517    509.262    510.834    509.262
 64.370    907.000    901.035      5.965    509.363    899.389    509.363    510.895    509.363
 64.470    907.000    965.484    -58.484    509.465    963.867    509.465    510.959    509.465
 64.570    954.056   1009.580    -55.524    509.566   1008.000    509.566    511.025    509.566
 64.670   1081.000   1024.767     56.233    509.667   1023.234    509.667    511.095    509.667
 64.770   1035.880   1009.716     26.164    509.768   1008.236    509.768    511.166    509.768
 64.870   1013.674    969.867     43.807    509.869    968.442    509.869    511.240    509.869
 64.970    942.000    914.470     27.530    509.971    913.098    509.971    511.316    509.971
 65.070    841.000    853.520    -12.520    510.071    852.194    510.071    511.395    510.071
 65.170    769.000    795.001    -26.001    510.172    793.714    510.172    511.474    510.172
 65.270    756.000    743.374     12.626    510.273    742.117    510.273    511.556    510.273
 65.370    664.264    699.900    -35.635    510.374    698.665    510.374    511.639    510.374
 65.470    630.000    664.131    -34.131    510.474    662.912    510.474    511.724    510.474
 65.570    618.453    635.253    -16.800    510.575    634.043    510.575    511.811    510.575
 65.670    635.000    612.498     22.502    510.675    611.295    510.675    511.899    510.675
 65.770    629.575    595.110     34.464    510.775    593.912    510.775    511.988    510.775
 65.870    547.000    582.330    -35.330    510.875    581.136    510.875    512.078    510.875
 65.970    553.000    573.424    -20.424    510.975    572.234    510.975    512.170    510.975
 66.070    559.000    567.700     -8.700    511.075    566.514    511.075    512.263    511.075
 66.170    605.324    564.530     40.794    511.175    563.348    511.175    512.357    511.175
 66.270    560.000    563.380     -3.380    511.274    562.202    511.274    512.452    511.274
 66.370    567.000    563.852      3.148    511.373    562.676    511.373    512.549    511.373
 66.470    547.000    565.730    -18.730    511.472    564.556    511.472    512.647    511.472
 66.570    573.000    569.040      3.960    511.571    567.867    511.571    512.745    511.571
 66.670    546.000    574.152    -28.152    511.669    572.978    511.669    512.845    511.669
 66.770    561.000    581.982    -20.982    511.767    580.805    511.767    512.946    511.767
 66.870    551.000    594.326    -43.326    511.865    593.144    511.865    513.049    511.865
 66.970    635.705    614.341     21.365    511.963    613.152    511.963    513.152    511.963
 67.070    619.000    647.053    -28.053    512.060    645.855    512.060    513.256    512.060
 67.170    679.000    699.681    -20.681    512.158    698.471    512.158    513.362    512.158
 67.270    741.000    781.356    -40.356    512.254    780.133    512.254    513.469    512.254
 67.370    923.656    901.834     21.822    512.351    900.596    512.351    513.578    512.351
 67.470   1070.000   1068.945      1.055    512.447   1067.695    512.447    513.687    512.447
 67.570   1301.304   1285.015     16.290    512.543   1283.759    512.543    513.799    512.543
 67.670   1492.000   1543.060    -51.060    512.639   1541.809    512.639    513.911    512.639
 67.770   1782.000   1823.874    -41.874    512.734   1822.640    512.734    514.025    512.734
 67.870   2069.000   2095.073    -26.073    512.829   2093.872    512.829    514.141    512.829
 67.970   2335.000   2313.609     21.391    512.924   2312.454    512.924    514.259    512.924
 68.070   2499.000   2434.818     64.182    513.018   2433.712    513.018    514.379    513.018
 68.170   2521.000   2429.386     91.614    513.112   2428.316    513.112    514.501    513.112
 68.270   2299.725   2298.808      0.917    513.206   2297.745    513.206    514.625    513.206
 68.370   2123.000   2074.454     48.546    513.299   2073.359    513.299    514.751    513.299
 68.470   1817.000   1801.345     15.655    513.391   1800.187    513.391    514.880    513.391
 68.570   1592.000   1521.817     70.183    513.484   1520.571    513.484    515.012    513.484
 68.670   1265.000   1267.161     -2.161    513.576   1265.817    513.576    515.147    513.576
 68.770   1008.000   1055.486    -47.486    513.667   1054.039    513.667    515.285    513.667
 68.870    884.000    892.859     -8.859    513.758    891.312    513.758    515.427    513.758
 68.970    759.425    776.345    -16.920    513.849    774.704    513.849    515.573    513.849
 69.070    739.691    697.835     41.856    513.939    696.105    513.939    515.724    513.939
 69.170    639.000    647.550     -8.550    514.028    645.735    514.028    515.880    514.028
 69.270    680.000    616.488     63.512    514.118    614.588    514.118    516.041    514.118
 69.370    625.000    597.610     27.390    514.206    595.623    514.206    516.209    514.206
 69.470    579.000    586.044     -7.044    514.295    583.966    514.295    516.384    514.295
 69.570    613.000    578.738     34.262    514.382    576.562    514.382    516.566    514.382
 69.670    617.000    573.929     43.071    514.470    571.648    514.470    516.757    514.470
 69.770    585.000    570.665     14.335    514.556    568.268    514.556    516.958    514.556
 69.870    608.000    568.457     39.543    514.642    565.933    514.642    517.170    514.642
 69.970    516.000    567.060    -51.060    514.728    564.396    514.728    517.395    514.728
 70.070    594.486    566.361     28.124    514.813    563.542    514.813    517.634    514.813
 70.170    545.161    566.325    -21.164    514.898    563.334    514.898    517.890    514.898
 70.270    592.000    566.979     25.021    514.982    563.796    514.982    518.165    514.982
 70.370    602.048    568.435     33.613    515.065    565.037    515.065    518.461    515.065
 70.470    612.000    570.942     41.058    515.148    567.304    515.148    518.783    515.148
 70.570    529.281    574.990    -45.708    515.230    571.081    515.230    519.135    515.230
 70.670    605.168    581.480     23.688    515.312    577.264    515.312    519.522    515.312
 70.770    597.144    591.949      5.195    515.393    587.381    515.393    519.950    515.393
 70.870    554.000    608.839    -54.839    515.473    603.867    515.473    520.429    515.473
 70.970    604.000    635.727    -31.727    515.553    630.282    515.553    520.972    515.553
 71.070    721.000    677.356     43.644    515.632    671.351    515.632    521.599    515.632
 71.170    760.000    739.293     20.707    515.711    732.603    515.711    522.344    515.711
 71.270    777.000    827.031    -50.031    515.789    819.479    515.789    523.262    515.789
 71.370    947.137    944.516      2.621    515.866    935.830    515.866    524.446    515.866
 71.470   1120.000   1092.279     27.721    515.943   1082.037    515.943    526.049    515.943
 71.570   1226.000   1265.594    -39.594    516.019   1253.138    516.019    528.312    516.019
 71.670   1355.000   1453.169    -98.169    516.094   1437.489    516.094    531.591    516.094
 71.770   1678.684   1636.817     41.867    516.168   1616.415    516.168    536.379    516.168
 71.870   1802.000   1792.699      9.301    516.242   1765.454    516.242    543.301    516.242
 71.970   1831.554   1895.438    -63.883    516.315   1858.522    516.315    553.069    516.315
 72.070   1911.000   1926.139    -15.139    516.388   1876.025    516.388    566.375    516.388
 72.170   1925.000   1881.194     43.806    516.459   1813.833    516.459    583.733    516.459
 72.270   1830.636   1774.394     56.242    516.530   1685.603    516.530    605.269    516.530
 72.370   1651.011   1629.850     21.161    516.601   1515.912    516.601    630.513    516.601
 72.470   1406.187   1472.328    -66.140    516.670   1330.776    516.670    658.212    516.670
 72.570   1345.000   1321.148     23.852    516.739   1151.676    516.739    686.209    516.739
 72.670   1151.000   1187.918    -36.918    516.807    993.292    516.807    711.433    516.807
 72.770   1046.000   1076.626    -30.626    516.874    863.324    516.874    730.176    516.874
 72.870    968.000    985.490    -17.490    516.940    763.463    516.940    738.964    516.940
 72.970    879.000    910.040    -31.040    517.006    691.107    517.006    735.935    517.006
 73.070    863.640    846.018     17.621    517.071    641.295    517.071    721.789    517.071
 73.170    749.000    790.674    -41.674    517.135    608.407    517.135    699.396    517.135
 73.270    730.990    742.615    -11.625    517.198    587.331    517.198    672.477    517.198
 73.370    698.000    701.234     -3.234    517.260    574.030    517.260    644.462    517.260
 73.470    602.000    666.298    -64.298    517.322    565.660    517.322    617.959    517.322
 73.570    602.000    637.671    -35.671    517.383    560.403    517.383    594.651    517.383
 73.670    615.458    615.129      0.329    517.443    557.203    517.443    575.372    517.443
 73.770    638.000    598.248     39.752    517.502    555.494    517.502    560.261    517.502
 73.870    598.264    586.390     11.874    517.560    554.991    517.560    548.968    517.560
 73.970    625.000    578.760     46.240    517.617    555.524    517.617    540.867    517.617
 74.070    601.000    574.483     26.517    517.674    556.935    517.674    535.241    517.674
 74.170    533.553    572.663    -39.110    517.729    559.003    517.729    531.414    517.729
 74.270    604.000    572.425     31.575    517.784    561.413    517.784    528.827    517.784
 74.370    591.803    572.928     18.875    517.838    563.743    517.838    527.059    517.838
 74.470    602.000    573.386     28.614    517.891    565.502    517.891    525.817    517.891
 74.570    624.000    573.136     50.864    517.943    566.216    517.943    524.907    517.943
 74.670    539.104    571.761    -32.657    517.994    565.590    517.994    524.211    517.994
 74.770    622.000    569.202     52.798    518.044    563.633    518.044    523.656    518.044
 74.870    623.000    565.736     57.264    518.093    560.669    518.093    523.199    518.093
 74.970    521.894    561.841    -39.947    518.141    557.201    518.141    522.815    518.141
 75.070    542.081    558.050    -15.969    518.189    553.778    518.189    522.487    518.189
 75.170    580.637    554.877     25.760    518.235    550.927    518.235    522.205    518.235
 75.270    556.760    552.804      3.956    518.280    549.139    518.280    521.960    518.280
 75.370    553.441    552.305      1.136    518.325    548.891    518.325    521.747    518.325
 75.470    554.000    553.868      0.132    518.368    550.678    518.368    521.560    518.368
 75.570    535.395    558.009    -22.614    518.411    555.019    518.411    521.397    518.411
 75.670    566.000    565.249      0.751    518.452    562.438    518.452    521.254    518.452
 75.770    565.000    576.029    -11.029    518.493    573.378    518.493    521.128    518.493
 75.870    564.000    590.579    -26.579    518.532    588.072    518.532    521.016    518.532
 75.970    640.000    608.747     31.253    518.571    606.369    518.571    520.918    518.571
 76.070    629.000    629.835     -0.835    518.609    627.573    518.609    520.831    518.609
 76.170    639.288    652.488    -13.200    518.645    650.331    518.645    520.754    518.645
 76.270    676.000    674.668      1.332    518.681    672.608    518.681    520.685    518.681
 76.370    672.000    693.754    -21.754    518.715    691.785    518.715    520.624    518.715
 76.470    675.000    706.872    -31.872    518.748    704.989    518.748    520.570    518.748
 76.570    705.000    711.614     -6.614    518.781    709.814    518.781    520.522    518.781
 76.670    663.273    706.973    -43.700    518.812    705.253    518.812    520.478    518.812
 76.770    684.000    693.835     -9.835    518.842    692.192    518.842    520.440    518.842
 76.870    706.555    674.537     32.018    518.872    672.967    518.872    520.405    518.872
 76.970    664.157    651.931     12.226    518.900    650.428    518.900    520.374    518.900
 77.070    653.354    628.646     24.708    518.927    627.206    518.927    520.346    518.927
 77.170    570.921    606.735    -35.814    518.953    605.353    518.953    520.321    518.953
 77.270    561.000    587.554    -26.554    518.978    586.224    518.978    520.299    518.978
 77.370    569.000    571.779     -2.779    519.001    570.497    519.001    520.278    519.001
 77.470    554.000    559.510     -5.510    519.024    558.271    519.024    520.259    519.024
 77.570    537.000    550.437    -13.437    519.046    549.239    519.046    520.242    519.046
 77.670    590.000    544.019     45.981    519.066    542.858    519.066    520.226    519.066
 77.770    536.506    539.644     -3.138    519.086    538.516    519.086    520.212    519.086
 77.870    574.000    536.741     37.259    519.104    535.645    519.104    520.198    519.104
 77.970    517.000    534.841    -17.841    519.121    533.775    519.121    520.186    519.121
 78.070    500.172    533.595    -33.424    519.137    532.557    519.137    520.174    519.137
 78.170    507.000    532.768    -25.768    519.152    531.756    519.152    520.163    519.152
 78.270    483.000    532.205    -49.205    519.166    531.217    519.166    520.152    519.166
 78.370    528.000    531.815     -3.815    519.178    530.851    519.178    520.142    519.178
 78.470    572.602    531.552     41.051    519.190    530.609    519.190    520.132    519.190
 78.570    506.000    531.391    -25.391    519.200    530.468    519.200    520.123    519.200
 78.670    570.130    531.328     38.802    519.209    530.423    519.209    520.113    519.209
 78.770    560.000    531.353     28.647    519.217    530.465    519.217    520.104    519.217
 78.870    528.000    531.498     -3.498    519.224    530.625    519.224    520.096    519.224
 78.970    492.000    531.825    -39.825    519.229    530.965    519.229    520.088    519.229
 79.070    546.198    532.342     13.856    519.234    531.493    519.234    520.082    519.234
 79.170    525.000    533.081     -8.081    519.237    532.240    519.237    520.076    519.237
 79.270    549.056    534.076     14.981    519.239    533.239    519.239    520.073    519.239
 79.370    537.000    535.357      1.643    519.240    534.521    519.240    520.073    519.240
 79.470    527.000    536.952     -9.952    519.239    536.111    519.239    520.077    519.239
 79.570    532.000    538.891     -6.891    519.238    538.038    519.238    520.086    519.238
 79.670    500.702    541.220    -40.517    519.235    540.347    519.235    520.102    519.235
 79.770    551.327    544.013      7.314    519.231    543.113    519.231    520.126    519.231
 79.870    538.000    547.401     -9.401    519.226    546.464    519.226    520.157    519.226
 79.970    543.000    551.594     -8.594    519.219    550.611    519.219    520.197    519.219
 80.070    584.771    556.909     27.862    519.212    555.872    519.212    520.244    519.212
 80.170    565.582    563.773      1.810    519.203    562.676    519.203    520.297    519.203
 80.270    566.000    572.674     -6.674    519.192    571.514    519.192    520.351    519.192
 80.370    580.286    584.063     -3.777    519.181    582.843    519.181    520.403    519.181
 80.470    565.088    598.235    -33.147    519.168    596.964    519.168    520.445    519.168
 80.570    669.000    615.220     53.780    519.155    613.912    519.155    520.472    519.155
 80.670    616.000    634.695    -18.695    519.139    633.374    519.139    520.476    519.139
 80.770    663.000    655.945      7.055    519.123    654.636    519.123    520.453    519.123
 80.870    710.705    677.877     32.828    519.105    676.606    519.105    520.403    519.105
 80.970    689.451    699.142     -9.691    519.087    697.933    519.087    520.331    519.087
 81.070    730.000    718.331     11.669    519.066    717.198    519.066    520.242    519.066
 81.170    782.792    734.161     48.631    519.045    733.111    519.045    520.143    519.045
 81.270    751.000    745.588      5.412    519.022    744.624    519.022    520.042    519.022
 81.370    747.000    751.887     -4.887    518.998    751.005    518.998    519.942    518.998
 81.470    782.539    752.735     29.804    518.973    751.927    518.973    519.847    518.973
 81.570    704.104    748.228    -44.125    518.946    747.485    518.946    519.760    518.946
 81.670    767.000    738.838     28.162    518.919    738.149    518.919    519.680    518.919
 81.770    738.000    725.390     12.610    518.889    724.744    518.889    519.608    518.889
 81.870    723.000    709.038     13.962    518.859    708.425    518.859    519.543    518.859
 81.970    721.000    691.101     29.899    518.827    690.513    518.827    519.484    518.827
 82.070    636.000    672.791    -36.791    518.794    672.221    518.794    519.430    518.794
 82.170    629.833    654.982    -25.149    518.760    654.424    518.760    519.379    518.760
 82.270    686.000    638.162     47.838    518.724    637.612    518.724    519.331    518.724
 82.370    638.000    622.540     15.460    518.688    621.995    518.688    519.285    518.688
 82.470    640.095    608.214     31.881    518.649    607.670    518.649    519.239    518.649
 82.570    547.000    595.301    -48.301    518.610    594.757    518.610    519.193    518.610
 82.670    631.000    583.962     47.038    518.569    583.417    518.569    519.147    518.569
 82.770    573.839    574.366     -0.527    518.527    573.818    518.527    519.101    518.527
 82.870    578.202    566.655     11.547    518.483    566.104    518.483    519.054    518.483
 82.970    574.000    560.932     13.068    518.439    560.377    518.439    519.006    518.439
 83.070    564.924    557.249      7.675    518.392    556.689    518.392    518.957    518.392
 83.170    566.000    555.590     10.410    518.345    555.025    518.345    518.907    518.345
 83.270    536.000    555.854    -19.854    518.296    555.284    518.296    518.856    518.296
 83.370    542.000    557.834    -15.834    518.246    557.258    518.246    518.805    518.246
 83.470    534.000    561.208    -27.208    518.195    560.627    518.195    518.752    518.195
 83.570    588.333    565.536     22.797    518.142    564.949    518.142    518.698    518.142
 83.670    584.791    570.271     14.519    518.088    569.680    518.088    518.643    518.088
 83.770    536.000    574.789    -38.789    518.032    574.193    518.032    518.587    518.032
 83.870    572.000    578.430     -6.430    517.976    577.832    517.976    518.530    517.976
 83.970    561.425    580.592    -19.167    517.918    579.993    517.918    518.472    517.918
 84.070    577.000    580.850     -3.850    517.858    580.252    517.858    518.412    517.858
 84.170    558.950    579.075    -20.125    517.797    578.479    517.797    518.352    517.797
 84.270    569.000    575.466     -6.466    517.735    574.874    517.735    518.290    517.735
 84.370    599.749    570.468     29.281    517.672    569.880    517.672    518.227    517.672
 84.470    564.417    564.630     -0.213    517.607    564.046    517.607    518.163    517.607
 84.570    564.426    558.491      5.936    517.541    557.911    517.541    518.098    517.541
 84.670    531.692    552.510    -20.817    517.474    551.933    517.474    518.032    517.474
 84.770    579.000    547.032     31.968    517.405    546.458    517.405    517.965    517.405
 84.870    555.000    542.279     12.721    517.335    541.706    517.335    517.896    517.335
 84.970    500.821    538.356    -37.535    517.263    537.784    517.263    517.827    517.263
 85.070    496.398    535.269    -38.871    517.190    534.697    517.190    517.756    517.190
 85.170    528.000    532.957     -4.957    517.116    532.384    517.116    517.684    517.116
 85.270    535.710    531.317      4.393    517.040    530.742    517.040    517.611    517.040
 85.370    528.000    530.235     -2.235    516.964    529.658    516.964    517.537    516.964
 85.470    544.062    529.610     14.452    516.885    529.029    516.885    517.462    516.885
 85.570    528.586    529.362     -0.775    516.806    528.778    516.806    517.385    516.806
 85.670    517.000    529.449    -12.449    516.725    528.861    516.725    517.308    516.725
 85.770    542.000    529.869     12.131    516.643    529.277    516.643    517.229    516.643
 85.870    532.000    530.662      1.338    516.559    530.065    516.559    517.148    516.559
 85.970    550.000    531.914     18.086    516.474    531.313    516.474    517.067    516.474
 86.070    571.000    533.756     37.244    516.388    533.147    516.388    516.985    516.388
 86.170    538.000    536.352      1.648    516.300    535.735    516.300    516.901    516.300
 86.270    548.000    539.894      8.106    516.211    539.269    516.211    516.817    516.211
 86.370    584.339    544.581     39.758    516.121    543.944    516.121    516.732    516.121
 86.470    527.000    550.575    -23.575    516.029    549.926    516.029    516.646    516.029
 86.570    564.000    558.007      5.993    515.936    557.343    515.936    516.558    515.936
 86.670    588.000    566.891     21.109    515.842    566.210    515.842    516.470    515.842
 86.770    595.000    577.081     17.919    515.746    576.383    515.746    516.380    515.746
 86.870    572.000    588.261    -16.261    515.649    587.544    515.649    516.290    515.649
 86.970    637.000    599.916     37.084    515.550    599.181    515.550    516.198    515.550
 87.070    677.000    611.340     65.660    515.451    610.587    515.451    516.106    515.451
 87.170    646.000    621.664     24.336    515.350    620.894    515.350    516.012    515.350
 87.270    647.000    629.938     17.062    515.247    629.154    515.247    515.918    515.247
 87.370    628.000    635.277     -7.277    515.143    634.483    515.143    515.823    515.143
 87.470    647.071    637.069     10.002    515.038    636.269    515.038    515.726    515.038
 87.570    664.202    635.154     29.048    514.932    634.352    514.932    515.629    514.932
 87.670    585.614    629.873    -44.259    514.824    629.072    514.824    515.531    514.824
 87.770    660.000    621.958     38.042    514.715    621.160    514.715    515.432    514.715
 87.870    602.000    612.352    -10.352    514.605    611.556    514.605    515.333    514.605
 87.970    612.000    602.049      9.951    514.493    601.255    514.493    515.232    514.493
 88.070    546.115    591.987    -45.872    514.380    591.195    514.380    515.131    514.380
 88.170    593.130    582.976     10.154    514.266    582.183    514.266    515.029    514.266
 88.270    584.000    575.649      8.351    514.150    574.854    514.150    514.927    514.150
 88.370    597.000    570.441     26.559    514.033    569.642    514.033    514.823    514.033
 88.470    593.000    567.579     25.421    513.915    566.774    513.915    514.720    513.915
 88.570    589.000    567.090     21.910    513.796    566.276    513.796    514.615    513.796
 88.670    608.567    568.813     39.754    513.675    567.991    513.675    514.511    513.675
 88.770    565.000    572.424     -7.424    513.553    571.592    513.553    514.406    513.553
 88.870    614.000    577.455     36.545    513.429    576.613    513.429    514.300    513.429
 88.970    561.000    583.320    -22.320    513.305    582.467    513.305    514.195    513.305
 89.070    591.191    589.345      1.846    513.179    588.479    513.179    514.089    513.179
 89.170    596.000    594.805      1.195    513.051    593.925    513.051    513.983    513.051
 89.270    592.000    598.987     -6.987    512.923    598.089    512.923    513.878    512.923
 89.370    632.000    601.278     30.722    512.793    600.360    512.793    513.772    512.793
 89.470    563.509    601.286    -37.778    512.662    600.345    512.662    513.667    512.662
 89.570    625.968    598.928     27.040    512.529    597.961    512.529    513.560    512.529
 89.670    597.000    594.442      2.558    512.396    593.444    512.396    513.455    512.396
 89.770    555.569    588.296    -32.727    512.261    587.263    512.261    513.352    512.261
 89.870    590.627    581.071      9.556    512.124    579.998    512.124    513.250    512.124
 89.970    605.849    573.347     32.502    511.987    572.231    511.987    513.149    511.987
 90.070    580.000    565.640     14.360    511.848    564.478    511.848    513.049    511.848
 90.170    540.711    558.366    -17.655    511.708    557.155    511.708    512.952    511.708
 90.270    558.407    551.821      6.586    511.567    550.558    511.567    512.857    511.567
 90.370    502.264    546.187    -43.922    511.425    544.867    511.425    512.764    511.425
 90.470    539.000    541.536     -2.536    511.281    540.158    511.281    512.675    511.281
 90.570    571.558    537.858     33.700    511.136    536.415    511.136    512.590    511.136
 90.670    577.000    535.078     41.922    510.990    533.566    510.990    512.510    510.990
 90.770    491.994    533.089    -41.095    510.843    531.501    510.843    512.436    510.843
 90.870    484.000    531.771    -47.771    510.694    530.098    510.694    512.371    510.694
 90.970    500.000    531.016    -31.016    510.545    529.246    510.545    512.317    510.545
 91.070    522.000    530.739     -8.739    510.394    528.855    510.394    512.277    510.394
 91.170    542.943    530.887     12.057    510.241    528.869    510.241    512.258    510.241
 91.270    539.000    531.445      7.555    510.088    529.264    510.088    512.267    510.088
 91.370    489.195    532.409    -43.214    509.934    530.025    509.934    512.315    509.934
 91.470    520.007    533.927    -13.921    509.778    531.287    509.778    512.414    509.778
 91.570    489.000    536.117    -47.117    509.621    533.148    509.621    512.584    509.621
 91.670    562.430    539.133     23.297    509.463    535.741    509.463    512.848    509.463
 91.770    538.035    543.187     -5.152    509.304    539.249    509.304    513.232    509.304
 91.870    533.771    548.521    -14.750    509.144    543.883    509.144    513.770    509.144
 91.970    564.000    555.393      8.607    508.982    549.861    508.982    514.497    508.982
 92.070    541.000    564.053    -23.053    508.819    557.400    508.819    515.451    508.819
 92.170    610.698    574.723     35.974    508.656    566.685    508.656    516.668    508.656
 92.270    585.000    587.555     -2.555    508.491    577.835    508.491    518.180    508.491
 92.370    623.000    602.605     20.395    508.325    590.885    508.325    520.007    508.325
 92.470    598.414    619.806    -21.391    508.158    605.761    508.158    522.157    508.158
 92.570    643.738    638.940      4.798    507.989    622.261    507.989    524.616    507.989
 92.670    642.000    659.626    -17.626    507.820    640.040    507.820    527.347    507.820
 92.770    695.000    681.310     13.690    507.650    658.609    507.650    530.285    507.650
 92.870    726.000    703.284     22.716    507.478    677.358    507.478    533.334    507.478
 92.970    757.000    724.735     32.265    507.305    695.603    507.305    536.364    507.305
 93.070    716.943    744.848    -27.905    507.132    712.691    507.132    539.213    507.132
 93.170    768.000    762.934      5.066    506.957    728.124    506.957    541.690    506.957
 93.270    837.000    778.551     58.449    506.781    741.662    506.781    543.594    506.781
 93.370    774.722    791.540    -16.818    506.604    753.335    506.604    544.734    506.604
 93.470    773.000    802.009    -29.009    506.427    763.386    506.427    544.977    506.427
 93.570    825.000    810.251     14.749    506.248    772.152    506.248    544.277    506.248
 93.670    864.981    816.672     48.309    506.068    779.979    506.068    542.694    506.068
 93.770    850.948    821.793     29.155    505.887    787.243    505.887    540.371    505.887
 93.870    809.308    826.248    -16.940    505.705    794.387    505.705    537.503    505.705
 93.970    852.000    830.767     21.233    505.522    801.936    505.522    534.293    505.522
 94.070    836.000    836.073     -0.073    505.338    810.426    505.338    530.927    505.338
 94.170    848.195    842.710      5.486    505.153    820.244    505.153    527.563    505.153
 94.270    857.000    850.865      6.135    504.967    831.452    504.967    524.326    504.967
 94.370    908.000    860.253     47.747    504.780    843.673    504.780    521.308    504.780
 94.470    914.000    870.086     43.914    504.593    856.060    504.593    518.570    504.593
 94.570    918.000    879.131     38.869    504.404    867.345    504.404    516.146    504.404
 94.670    897.000    885.847     11.153    504.214    875.979    504.214    514.045    504.214
 94.770    890.000    888.614      1.386    504.024    880.349    504.024    512.258    504.024
 94.870    907.000    886.037     20.963    503.832    879.083    503.832    510.763    503.832
 94.970    848.000    877.280    -29.280    503.640    871.378    503.640    509.528    503.640
 95.070    836.210    862.293    -26.083    503.446    857.220    503.446    508.515    503.446
 95.170    858.000    841.837     16.163    503.252    837.403    503.252    507.687    503.252
 95.270    884.000    817.302     66.698    503.057    813.357    503.057    507.010    503.057
 95.370    826.162    790.457     35.705    502.861    786.879    502.861    506.451    502.861
 95.470    795.254    763.209     32.045    502.665    759.903    502.665    505.983    502.665
 95.570    722.142    737.446    -15.305    502.467    734.341    502.467    505.585    502.467
 95.670    697.000    714.939    -17.939    502.269    711.979    502.269    505.239    502.269
 95.770    693.000    697.283     -4.283    502.069    694.427    502.069    504.932    502.069
 95.870    715.000    685.860     29.140    501.869    683.078    501.869    504.653    501.869
 95.970    689.000    681.902      7.098    501.668    679.168    501.668    504.397    501.668
 96.070    727.903    686.407     41.496    501.467    683.703    501.467    504.158    501.467
 96.170    687.000    700.176    -13.176    501.264    697.486    501.264    503.932    501.264
 96.270    691.306    723.804    -32.498    501.061    721.116    501.061    503.718    501.061
 96.370    764.000    757.638      6.362    500.857    754.940    500.857    503.513    500.857
 96.470    803.000    801.694      1.306    500.653    798.977    500.653    503.317    500.653
 96.570    823.601    855.570    -31.969    500.447    852.826    500.447    503.128    500.447
 96.670    953.639    918.336     35.303    500.241    915.556    500.241    502.948    500.241
 96.770    939.901    988.446    -48.545    500.034    985.624    500.034    502.774    500.034
 96.870   1052.000   1063.674    -11.674    499.827   1060.805    499.827    502.608    499.827
 96.970   1121.769   1141.102    -19.332    499.619   1138.180    499.619    502.450    499.619
 97.070   1222.000   1217.152      4.848    499.410   1214.173    499.410    502.298    499.410
 97.170   1279.000   1287.713     -8.713    499.200   1284.673    499.200    502.155    499.200
 97.270   1379.000   1348.376     30.624    498.990   1345.270    498.990    502.020    498.990
 97.370   1424.000   1394.859     29.141    498.779   1391.683    498.779    501.894    498.779
 97.470   1355.000   1423.605    -68.605    498.568   1420.353    498.568    501.777    498.568
 97.570   1411.000   1432.430    -21.430    498.356   1429.095    498.356    501.671    498.356
 97.670   1432.000   1420.968     11.032    498.143   1417.537    498.143    501.575    498.143
 97.770   1323.417   1390.686    -67.270    497.930   1387.145    497.930    501.492    497.930
 97.870   1304.100   1344.496    -40.396    497.717   1340.827    497.717    501.423    497.717
 97.970   1290.123   1286.177      3.947    497.502   1282.359    497.502    501.371    497.502
 98.070   1180.133   1219.848    -39.714    497.288   1215.858    497.288    501.338    497.288
 98.170   1183.000   1149.590     33.410    497.072   1145.399    497.072    501.328    497.072
 98.270   1089.000   1079.207      9.793    496.857   1074.781    496.857    501.348    496.857
 98.370   1040.818   1012.076     28.742    496.640   1007.375    496.640    501.405    496.640
 98.470    905.000    951.079    -46.079    496.423    946.050    496.423    501.510    496.423
 98.570    912.000    898.578     13.422    496.206    893.156    496.206    501.678    496.206
 98.670    854.000    856.442     -2.442    495.989    850.541    495.989    501.931    495.989
 98.770    860.037    826.094     33.943    495.771    819.601    495.771    502.294    495.771
 98.870    772.000    808.584    -36.584    495.552    801.352    495.552    502.805    495.552
 98.970    795.899    804.665     -8.767    495.333    796.502    495.333    503.507    495.333
 99.070    808.000    814.861     -6.861    495.114    805.516    495.114    504.460    495.114
 99.170    890.646    839.494     51.152    494.894    828.650    494.894    505.731    494.894
 99.270    833.778    878.691    -44.912    494.674    865.949    494.674    507.403    494.674
 99.370    942.000    932.337      9.663    494.454    917.205    494.454    509.568    494.454
 99.470    968.717    999.994    -31.277    494.233    981.881    494.233    512.327    494.233
 99.570   1023.861   1080.858    -56.997    494.012   1059.066    494.012    515.786    494.012
 99.670   1190.000   1173.594     16.406    493.791   1147.326    493.791    520.045    493.791
 99.770   1282.000   1276.262      5.738    493.569   1244.628    493.569    525.197    493.569
 99.870   1431.069   1386.252     44.817    493.347   1348.294    493.347    531.312    493.347
 99.970   1499.000   1500.258     -1.258    493.125   1454.982    493.125    538.425    493.125
100.070   1633.000   1614.340     18.660    492.903   1560.756    492.903    546.531    492.903
100.170   1693.000   1724.108    -31.108    492.681   1661.287    492.681    555.569    492.681
100.270   1744.154   1825.048    -80.895    492.458   1752.186    492.458    565.415    492.458
100.370   1905.000   1912.933     -7.933    492.235   1829.419    492.235    575.872    492.235
100.470   2009.000   1984.168     24.832    492.012   1889.660    492.012    586.669    492.012
100.570   2084.000   2035.959     48.041    491.789   1930.464    491.789    597.459    491.789
100.670   2004.057   2066.307    -62.249    491.566   1950.255    491.566    607.815    491.566
100.770   2064.060   2073.968     -9.908    491.342   1948.279    491.342    617.248    491.342
100.870   2075.000   2058.559     16.441    491.119   1924.685    491.119    625.223    491.119
100.970   1960.760   2020.823    -60.062    490.895   1880.745    490.895    631.211    490.895
101.070   2006.000   1962.890     43.110    490.672   1819.048    490.672    634.754    490.672
101.170   1943.000   1888.305     54.695    490.448   1743.443    490.448    635.547    490.448
101.270   1811.000   1801.715      9.285    490.224   1658.664    490.224    633.504    490.224
101.370   1771.872   1708.310     63.562    490.001   1569.749    490.001    628.777    490.001
101.470   1620.000   1613.217      6.783    489.777   1481.469    489.777    621.725    489.777
101.570   1528.000   1521.008      6.992    489.554   1397.910    489.554    612.834    489.554
101.670   1408.000   1435.376    -27.376    489.330   1322.228    489.330    602.642    489.330
101.770   1361.000   1358.960      2.040    489.107   1256.538    489.107    591.675    489.107
101.870   1277.569   1293.298    -15.729    488.884   1201.906    488.884    580.406    488.884
101.970   1190.909   1238.852    -47.942    488.660   1158.389    488.660    569.239    488.660
102.070   1218.000   1195.096     22.904    488.437   1125.138    488.437    558.501    488.437
102.170   1203.889   1160.658     43.232    488.214   1100.531    488.214    548.439    488.214
102.270   1067.000   1133.498    -66.498    487.992   1082.354    487.992    539.228    487.992
102.370   1116.856   1111.134      5.722    487.769   1068.023    487.769    530.969    487.769
102.470   1132.000   1090.940     41.060    487.547   1054.860    487.547    523.715    487.547
102.570   1065.375   1070.439     -5.064    487.325   1040.398    487.325    517.455    487.325
102.670   1045.000   1047.642     -2.642    487.103   1022.694    487.103    512.140    487.103
102.770   1075.223   1021.276     53.947    486.882   1000.554    486.882    507.694    486.882
102.870    961.000    990.868    -29.868    486.660    973.599    486.660    504.020    486.660
102.970    954.524    956.662     -2.138    486.440    942.174    486.440    501.016    486.440
103.070    910.000    919.416     -9.416    486.219    907.145    486.219    498.576    486.219
103.170    847.380    880.182    -32.802    485.999    869.669    485.999    496.594    485.999
103.270    848.000    840.146      7.854    485.779    831.007    485.779    494.995    485.779
103.370    803.000    800.453      2.547    485.560    792.386    485.560    493.696    485.560
103.470    728.953    762.139    -33.186    485.341    754.913    485.341    492.629    485.341
103.570    737.000    726.078     10.922    485.122    719.515    485.122    491.741    485.122
103.670    729.000    692.940     36.060    484.904    686.903    484.904    490.989    484.904
103.770    667.000    663.179      3.821    484.687    657.567    484.687    490.340    484.687
103.870    635.000    637.034     -2.034    484.470    631.769    484.470    489.769    484.470
103.970    656.000    614.551     41.449    484.254    609.575    484.254    489.257    484.254
104.070    605.000    595.611      9.389    484.038    590.880    484.038    488.791    484.038
104.170    536.223    579.968    -43.745    483.822    575.449    483.822    488.360    483.822
104.270    577.000    567.293      9.707    483.608    562.958    483.608    487.957    483.608
104.370    548.000    557.232     -9.232    483.394    553.059    483.394    487.577    483.394
104.470    519.299    549.401    -30.102    483.180    545.373    483.180    487.216    483.180
104.570    561.000    543.437     17.563    482.968    539.538    482.968    486.872    482.968
104.670    528.024    539.012    -10.988    482.756    535.229    482.756    486.542    482.756
104.770    507.727    535.849    -28.122    482.545    532.171    482.545    486.224    482.545
104.870    497.851    533.722    -35.870    482.334    530.137    482.334    485.918    482.334
104.970    580.000    532.460     47.540    482.124    528.960    482.124    485.623    482.124
105.070    517.543    531.947    -14.404    481.915    528.523    481.915    485.336    481.915
105.170    515.675    532.114    -16.439    481.707    528.757    481.707    485.059    481.707
105.270    565.000    532.938     32.062    481.500    529.642    481.500    484.790    481.500
105.370    530.000    534.435     -4.435    481.294    531.193    481.294    484.529    481.294
105.470    518.000    536.658    -18.658    481.088    533.462    481.088    484.275    481.088
105.570    532.000    539.683     -7.683    480.884    536.528    480.884    484.028    480.884
105.670    535.595    543.606     -8.011    480.680    540.485    480.680    483.787    480.680
105.770    557.976    548.526      9.450    480.478    545.436    480.478    483.553    480.478
105.870    566.000    554.537     11.463    480.276    551.470    480.276    483.325    480.276
105.970    582.000    561.704     20.296    480.076    558.657    480.076    483.102    480.076
106.070    598.000    570.058     27.942    479.876    567.025    479.876    482.885    479.876
106.170    572.000    579.577     -7.577    479.678    576.554    479.678    482.674    479.678
106.270    567.000    590.180    -23.180    479.480    587.163    479.480    482.468    479.480
106.370    581.000    601.719    -20.719    479.284    598.703    479.284    482.267    479.284
106.470    594.592    613.978    -19.387    479.089    610.960    479.089    482.071    479.089
106.570    609.000    626.675    -17.675    478.895    623.651    478.895    481.880    478.895
106.670    625.000    639.466    -14.466    478.703    636.433    478.703    481.694    478.703
106.770    634.000    651.961    -17.961    478.511    648.917    478.511    481.513    478.511
106.870    616.000    663.740    -47.740    478.321    660.681    478.321    481.337    478.321
106.970    688.780    674.376     14.405    478.132    671.299    478.132    481.166    478.132
107.070    722.766    683.478     39.287    477.945    680.382    477.945    481.000    477.945
107.170    685.000    690.740     -5.740    477.759    687.620    477.759    480.839    477.759
107.270    740.000    695.987     44.013    477.574    692.842    477.574    480.683    477.574
107.370    680.373    699.223    -18.850    477.391    696.049    477.391    480.532    477.391
107.470    663.000    700.629    -37.629    477.209    697.423    477.209    480.386    477.209
107.570    653.000    700.545    -47.545    477.028    697.303    477.028    480.245    477.028
107.670    685.000    699.405    -14.405    476.849    696.124    476.849    480.110    476.849
107.770    722.494    697.676     24.818    476.672    694.352    476.672    479.980    476.672
107.870    722.423    695.797     26.626    476.496    692.425    476.496    479.855    476.496
107.970    698.000    694.130      3.870    476.322    690.708    476.322    479.737    476.322
108.070    697.000    692.937      4.063    476.149    689.458    476.149    479.624    476.149
108.170    668.000    692.355    -24.355    475.978    688.815    475.978    479.518    475.978
108.270    632.000    692.390    -60.390    475.809    688.785    475.809    479.417    475.809
108.370    681.000    692.922    -11.922    475.641    689.247    475.641    479.324    475.641
108.470    715.190    693.709     21.481    475.475    689.958    475.475    479.237    475.475
108.570    649.833    694.409    -44.576    475.311    690.577    475.311    479.157    475.311
108.670    693.000    694.616     -1.616    475.149    690.697    475.149    479.085    475.149
108.770    709.109    693.899     15.210    474.988    689.887    474.988    479.020    474.988
108.870    666.000    691.864    -25.864    474.830    687.753    474.830    478.963    474.830
108.970    726.812    688.213     38.599    474.673    683.995    474.673    478.915    474.673
109.070    639.299    682.787    -43.488    474.518    678.456    474.518    478.875    474.518
109.170    680.000    675.591      4.409    474.365    671.137    474.365    478.845    474.365
109.270    687.000    666.779     20.221    474.214    662.195    474.214    478.825    474.214
109.370    643.000    656.622    -13.622    474.065    651.899    474.065    478.815    474.065
109.470    661.000    645.462     15.538    473.918    640.590    473.918    478.816    473.918
109.570    660.971    633.671     27.300    473.773    628.641    473.773    478.828    473.773
109.670    573.000    621.621    -48.621    473.631    616.421    473.631    478.853    473.631
109.770    629.000    609.659     19.341    473.490    604.278    473.490    478.891    473.490
109.870    560.000    598.090    -38.090    473.352    592.517    473.352    478.943    473.352
109.970    616.000    587.155     28.845    473.215    581.375    473.215    479.011    473.215
110.070    579.000    577.088      1.912    473.081    571.088    473.081    479.095    473.081
110.170    553.209    568.058    -14.849    472.950    561.822    472.950    479.197    472.950
110.270    564.000    560.140      3.860    472.820    553.650    472.820    479.319    472.820
110.370    511.447    553.373    -41.926    472.693    546.610    472.693    479.464    472.693
110.470    553.000    547.757      5.243    472.569    540.696    472.569    479.633    472.569
110.570    552.000    543.250      8.750    472.446    535.867    472.446    479.832    472.446
110.670    536.600    539.786     -3.186    472.326    532.050    472.326    480.063    472.326
110.770    515.000    537.279    -22.279    472.209    529.154    472.209    480.334    472.209
110.870    537.000    535.634      1.366    472.094    527.075    472.094    480.652    472.094
110.970    550.000    534.754     15.246    471.982    525.706    471.982    481.026    471.982
111.070    568.000    534.545     33.455    471.872    524.943    471.872    481.470    471.872
111.170    559.000    534.924     24.076    471.765    524.685    471.765    481.999    471.765
111.270    576.000    535.821     40.179    471.661    524.841    471.661    482.635    471.661
111.370    523.737    537.181    -13.445    471.559    525.333    471.559    483.401    471.559
111.470    524.471    538.968    -14.497    471.460    526.089    471.460    484.331    471.460
111.570    575.419    541.163     34.257    471.363    527.054    471.363    485.464    471.363
111.670    527.488    543.766    -16.278    471.270    528.180    471.270    486.848    471.270
111.770    581.339    546.800     34.539    471.179    529.432    471.179    488.539    471.179
111.870    563.000    550.307     12.693    471.091    530.786    471.091    490.604    471.091
111.970    548.000    554.352     -6.352    471.006    532.229    471.006    493.120    471.006
112.070    552.567    559.019     -6.452    470.924    533.757    470.924    496.176    470.924
112.170    576.000    564.412     11.588    470.845    535.380    470.845    499.867    470.845
112.270    541.000    570.654    -29.654    470.769    537.113    470.769    504.300    470.769
112.370    599.000    577.881     21.119    470.696    538.982    470.696    509.585    470.696
112.470    601.287    586.239     15.048    470.626    541.019    470.626    515.835    470.626
112.570    570.262    595.880    -25.618    470.560    543.266    470.560    523.162    470.560
112.670    630.000    606.961     23.039    470.496    545.775    470.496    531.670    470.496
112.770    625.000    619.636      5.364    470.436    548.611    470.436    541.447    470.436
112.870    631.000    634.058     -3.058    470.379    551.857    470.379    552.565    470.379
112.970    698.000    650.375     47.625    470.325    555.621    470.325    565.063    470.325
113.070    646.150    668.733    -22.583    470.274    560.041    470.274    578.949    470.274
113.170    678.000    689.278    -11.278    470.227    565.302    470.227    594.184    470.227
113.270    675.000    712.165    -37.165    470.183    571.643    470.183    610.684    470.183
113.370    753.000    737.569     15.431    470.143    579.381    470.143    628.308    470.143
113.470    797.000    765.699     31.301    470.106    588.924    470.106    646.855    470.106
113.570    801.000    796.821      4.179    470.072    600.798    470.072    666.065    470.072
113.670    821.731    831.278     -9.547    470.042    615.673    470.042    685.612    470.042
113.770    896.451    869.522     26.929    470.016    634.389    470.016    705.107    470.016
113.870    901.000    912.139    -11.139    469.994    657.984    469.994    724.100    469.994
113.970    945.311    959.885    -14.574    469.975    687.717    469.975    742.084    469.975
114.070    999.000   1013.715    -14.715    469.959    725.094    469.959    758.511    469.959
114.170   1083.333   1074.819      8.514    469.948    771.874    469.948    772.809    469.948
114.270   1122.000   1144.653    -22.653    469.940    830.075    469.940    784.418    469.940
114.370   1195.000   1224.971    -29.971    469.936    901.955    469.936    792.833    469.936
114.470   1339.392   1317.836     21.556    469.936    989.973    469.936    797.655    469.936
114.570   1368.144   1425.610    -57.466    469.940   1096.732    469.940    798.645    469.940
114.670   1602.000   1550.898     51.102    469.948   1224.890    469.948    795.751    469.948
114.770   1703.000   1696.439      6.561    469.960   1377.036    469.960    789.121    469.960
114.870   1841.945   1864.939    -22.994    469.976   1555.554    469.976    779.078    469.976
114.970   2164.000   2058.860    105.140    469.996   1762.450    469.996    766.078    469.996
115.070   2375.000   2280.183     94.817    470.020   1999.165    470.020    750.662    470.020
115.170   2568.000   2530.163     37.837    470.048   2266.386    470.048    733.400    470.048
115.270   2822.000   2809.102     12.898    470.081   2563.851    470.081    714.856    470.081
115.370   3107.000   3116.146     -9.146    470.118   2890.178    470.118    695.561    470.118
115.470   3261.000   3449.130   -188.130    470.159   3242.723    470.159    675.995    470.159
115.570   3778.000   3804.465    -26.465    470.204   3617.480    470.204    656.578    470.204
115.670   4235.337   4177.093     58.244    470.254   4009.035    470.254    637.668    470.254
115.770   4526.000   4560.494    -34.494    470.308   4410.576    470.308    619.558    470.308
115.870   4745.000   4946.768   -201.768    470.367   4813.975    470.367    602.480    470.367
115.970   5302.000   5326.782    -24.782    470.430   5209.930    470.430    586.604    470.430
116.070   5669.214   5690.390    -21.176    470.498   5588.185    470.498    572.042    470.498
116.170   6019.000   6026.749     -7.749    470.570   5937.838    470.570    558.856    470.570
116.270   6319.000   6324.741     -5.741    470.648   6247.754    470.648    547.061    470.648
116.370   6680.136   6573.526    106.610    470.729   6507.118    470.729    536.631    470.729
116.470   6903.378   6763.242    140.136    470.816   6706.124    470.816    527.512    470.816
116.570   7001.000   6885.802    115.198    470.907   6836.761    470.907    519.623    470.907
116.670   7009.000   6935.679     73.321    471.003   6893.598    471.003    512.866    471.003
116.770   6891.297   6910.516    -19.220    471.104   6874.380    471.104    507.133    471.104
116.870   6940.167   6811.386    128.781    471.210   6780.288    471.210    502.311    471.210
116.970   6739.000   6642.654     96.346    471.321   6615.794    471.321    498.288    471.321
117.070   6259.000   6411.487   -152.487    471.437   6388.168    471.437    494.955    471.437
117.170   6081.000   6127.010    -46.010    471.558   6106.637    471.558    492.212    471.558
117.270   5670.000   5799.584   -129.584    471.685   5781.649    471.685    489.965    471.685
117.370   5251.000   5440.067   -189.067    471.816   5424.146    471.816    488.132    471.816
117.470   5177.790   5059.225    118.565    471.952   5044.964    471.952    486.641    471.952
117.570   4607.000   4667.284    -60.284    472.094   4654.393    472.094    485.431    472.094
117.670   4227.000   4273.595    -46.595    472.241   4261.838    472.241    484.449    472.241
117.770   4028.000   3886.404    141.596    472.394   3875.588    472.394    483.652    472.394
117.870   3421.325   3512.689    -91.364    472.552   3502.660    472.552    483.005    472.552
117.970   3261.314   3158.078    103.236    472.715   3148.712    472.715    482.479    472.715
118.070   2972.000   2826.835    145.165    472.884   2818.034    472.884    482.050    472.884
118.170   2638.000   2521.905    116.095    473.058   2513.591    473.058    481.702    473.058
118.270   2303.250   2245.012     58.238    473.238   2237.122    473.238    481.419    473.238
118.370   2070.000   1996.791     73.209    473.424   1989.277    473.424    481.191    473.424
118.470   1712.000   1776.954    -64.954    473.615   1769.775    473.615    481.009    473.615
118.570   1582.000   1584.456     -2.456    473.812   1577.581    473.812    480.867    473.812
118.670   1486.000   1417.676     68.324    474.015   1411.080    474.015    480.759    474.015
118.770   1271.000   1274.587     -3.587    474.224   1268.247    474.224    480.682    474.224
118.870   1169.180   1152.909     16.271    474.438   1146.809    474.438    480.632    474.438
118.970   1052.000   1050.255      1.745    474.659   1044.379    474.659    480.608    474.659
119.070    944.307    964.244    -19.937    474.886    958.579    474.886    480.606    474.886
119.170    905.785    892.592     13.193    475.118    887.125    475.118    480.627    475.118
119.270    820.957    833.176    -12.219    475.357    827.895    475.357    480.668    475.357
119.370    820.000    784.075     35.925    475.602    778.970    475.602    480.729    475.602
119.470    768.000    743.594     24.406    475.853    738.654    475.853    480.809    475.853
119.570    661.025    710.264    -49.239    476.110    705.478    476.110    480.907    476.110
119.670    686.938    682.834      4.104    476.374    678.192    476.374    481.025    476.374
119.770    667.345    660.259      7.086    476.644    655.749    476.644    481.160    476.644
119.870    635.000    641.675     -6.675    476.921    637.286    476.921    481.314    476.921
119.970    616.199    626.375    -10.176    477.204    622.096    477.204    481.486    477.204
120.070    609.000    613.790     -4.790    477.493    609.610    477.493    481.677    477.493
120.170    616.000    603.464     12.536    477.789    599.370    477.789    481.887    477.789
120.270    593.705    595.034     -1.329    478.092    591.013    478.092    482.116    478.092
120.370    550.000    588.215    -38.215    478.401    584.254    478.401    482.367    478.401
120.470    582.000    582.782     -0.782    478.717    578.865    478.717    482.639    478.717
120.570    603.811    578.558     25.253    479.040    574.672    479.040    482.931    479.040
120.670    605.000    575.409     29.591    479.370    571.536    479.370    483.248    479.370
120.770    593.405    573.226     20.179    479.707    569.349    479.707    483.590    479.707
120.870    602.634    571.927     30.707    480.050    568.026    480.050    483.958    480.050
120.970    622.000    571.443     50.557    480.401    567.500    480.401    484.352    480.401
121.070    590.492    571.719     18.773    480.758    567.713    480.758    484.773    480.758
121.170    584.507    572.706     11.802    481.123    568.616    481.123    485.223    481.123
121.270    618.738    574.357     44.382    481.495    570.162    481.495    485.701    481.495
121.370    566.000    576.626    -10.626    481.874    572.304    481.874    486.209    481.874
121.470    584.122    579.464      4.658    482.261    574.994    482.261    486.746    482.261
121.570    613.000    582.816     30.184    482.655    578.176    482.655    487.311    482.655
121.670    565.000    586.620    -21.620    483.056    581.791    483.056    487.904    483.056
121.770    599.000    590.806      8.194    483.465    585.768    483.465    488.524    483.465
121.870    580.000    595.295    -15.295    483.881    590.031    483.881    489.169    483.881
121.970    637.000    599.997     37.003    484.305    594.493    484.305    489.835    484.305
122.070    573.000    604.816    -31.816    484.736    599.060    484.736    490.522    484.736
122.170    637.000    609.646     27.354    485.176    603.630    485.176    491.223    485.176
122.270    618.012    614.376      3.636    485.622    608.096    485.622    491.937    485.622
122.370    635.000    618.890     16.110    486.077    612.348    486.077    492.657    486.077
122.470    631.000    623.072      7.928    486.540    616.273    486.540    493.379    486.540
122.570    609.594    626.809    -17.215    487.010    619.765    487.010    494.097    487.010
122.670    671.933    629.998     41.935    487.489    622.727    487.489    494.805    487.489
122.770    595.956    632.550    -36.594    487.975    625.076    487.975    495.495    487.975
122.870    641.000    634.397      6.603    488.470    626.751    488.470    496.163    488.470
122.970    670.591    635.496     35.095    488.973    627.716    488.973    496.801    488.973
123.070    585.000    635.833    -50.833    489.484    627.961    489.484    497.404    489.484
123.170    650.000    635.419     14.581    490.003    627.503    490.003    497.968    490.003
123.270    649.000    634.292     14.708    490.531    626.381    490.531    498.490    490.531
123.370    625.000    632.509     -7.509    491.067    624.653    491.067    498.969    491.067
123.470    619.815    630.142    -10.327    491.611    622.393    491.611    499.405    491.611
123.570    616.969    627.274    -10.305    492.165    619.678    492.165    499.803    492.165
123.670    616.539    623.991     -7.452    492.726    616.593    492.726    500.164    492.726
123.770    641.000    620.383     20.617    493.296    613.221    493.296    500.495    493.296
123.870    568.000    616.532    -48.532    493.875    609.642    493.875    500.799    493.875
123.970    597.000    612.524    -15.524    494.463    605.931    494.463    501.088    494.463
124.070    605.000    608.434     -3.434    495.060    602.156    495.060    501.366    495.060
124.170    604.000    604.323     -0.323    495.665    598.373    495.665    501.640    495.665
124.270    613.000    600.245     12.755    496.280    594.632    496.280    501.915    496.280
124.370    573.553    596.242    -22.689    496.903    590.969    496.903    502.196    496.903
124.470    583.934    592.346     -8.412    497.536    587.411    497.536    502.488    497.536
124.570    565.635    588.578    -22.942    498.178    583.974    498.178    502.795    498.178
124.670    583.000    584.948     -1.948    498.829    580.668    498.829    503.122    498.829
124.770    613.181    581.463     31.719    499.489    577.492    499.489    503.470    499.489
124.870    601.823    578.120     23.704    500.159    574.444    500.159    503.843    500.159
124.970    624.000    574.915     49.085    500.838    571.517    500.838    504.242    500.838
