neutron_powder_diffraction_0099
R_wp: 4.006
Temperature (K): 884.109
Counts: 83632.00
Wavelength (Ã…): 2.52098
COMMENTS
Test file for demonstrating the .xyy file format in Reel1.0
END OF HEADER
   tth       Y_obs     Y_calc      Y_res    Background    Phase_1_Nuc    Phase_1_Mag    Phase_2_Nuc    Phase_2_Mag
  9.970    649.000    551.856     97.144    550.535    551.567    550.535    550.823    550.535
 10.070    647.000    552.361     94.639    550.950    552.071    550.950    551.240    550.950
 10.170    626.000    552.868     73.132    551.356    552.577    551.356    551.647    551.356
 10.270    558.000    553.382      4.618    551.753    553.090    551.753    552.044    551.753
 10.370    531.957    553.904    -21.947    552.139    553.611    552.139    552.432    552.139
 10.470    577.000    554.440     22.560    552.517    554.145    552.517    552.811    552.517
 10.570    603.000    554.993     48.007    552.885    554.697    552.885    553.180    552.885
 10.670    604.000    555.573     48.427    553.244    555.276    553.244    553.541    553.244
 10.770    511.173    556.190    -45.017    553.594    555.891    553.594    553.892    553.594
 10.870    590.000    556.852     33.148    553.935    556.552    553.935    554.234    553.935
 10.970    553.845    557.578     -3.733    554.267    557.276    554.267    554.567    554.267
 11.070    594.790    558.390     36.399    554.590    558.087    554.590    554.891    554.590
 11.170    596.000    559.326     36.674    554.904    559.022    554.904    555.207    554.904
 11.270    576.289    560.440     15.849    555.210    560.133    555.210    555.513    555.210
 11.370    566.024    561.827      4.197    555.506    561.519    555.506    555.811    555.506
 11.470    518.937    563.691    -44.754    555.795    563.380    555.795    556.101    555.795
 11.570    597.687    566.491     31.196    556.074    566.178    556.074    556.382    556.074
 11.670    556.109    571.216    -15.107    556.345    570.899    556.345    556.654    556.345
 11.770    604.000    579.641     24.359    556.608    579.318    556.608    556.919    556.608
 11.870    633.000    594.128     38.872    556.863    593.796    556.863    557.174    556.863
 11.970    622.356    616.368      5.988    557.109    616.022    557.109    557.422    557.109
 12.070    675.000    644.779     30.221    557.347    644.416    557.347    557.662    557.347
 12.170    668.000    671.134     -3.134    557.577    670.755    557.577    557.893    557.577
 12.270    684.000    680.871      3.129    557.799    680.485    557.799    558.116    557.799
 12.370    641.000    666.417    -25.417    558.013    666.038    558.013    558.332    558.013
 12.470    596.000    638.550    -42.550    558.219    638.185    558.219    558.539    558.219
 12.570    630.468    611.462     19.005    558.418    611.112    558.418    558.739    558.418
 12.670    605.000    591.555     13.445    558.608    591.214    558.608    558.931    558.608
 12.770    584.762    579.239      5.523    558.791    578.903    558.791    559.116    558.791
 12.870    578.460    572.423      6.037    558.967    572.090    558.967    559.293    558.967
 12.970    534.853    568.791    -33.938    559.135    568.458    559.135    559.462    559.135
 13.070    570.000    566.759      3.241    559.295    566.426    559.295    559.624    559.295
 13.170    540.529    565.504    -24.974    559.448    565.170    559.448    559.779    559.448
 13.270    604.236    564.653     39.583    559.594    564.319    559.594    559.926    559.594
 13.370    567.668    564.045      3.624    559.733    563.709    559.733    560.066    559.733
 13.470    595.000    563.598     31.402    559.864    563.261    559.864    560.199    559.864
 13.570    507.000    563.265    -56.265    559.988    562.927    559.988    560.325    559.988
 13.670    524.000    563.015    -39.015    560.105    562.676    560.105    560.444    560.105
 13.770    549.000    562.827    -13.827    560.216    562.486    560.216    560.556    560.216
 13.870    523.578    562.684    -39.106    560.319    562.341    560.319    560.661    560.319
 13.970    575.000    562.576     12.424    560.415    562.231    560.415    560.759    560.415
 14.070    542.000    562.495    -20.495    560.505    562.149    560.505    560.850    560.505
 14.170    560.000    562.432     -2.432    560.588    562.085    560.588    560.935    560.588
 14.270    578.000    562.384     15.616    560.664    562.034    560.664    561.013    560.664
 14.370    559.000    562.346     -3.346    560.734    561.995    560.734    561.084    560.734
 14.470    514.000    562.316    -48.316    560.797    561.964    560.797    561.149    560.797
 14.570    524.000    562.293    -38.293    560.854    561.938    560.854    561.208    560.854
 14.670    553.000    562.273     -9.273    560.904    561.917    560.904    561.260    560.904
 14.770    570.000    562.255      7.745    560.948    561.897    560.948    561.306    560.948
 14.870    521.947    562.238    -40.291    560.986    561.878    560.986    561.346    560.986
 14.970    541.000    562.222    -21.222    561.018    561.860    561.018    561.379    561.018
 15.070    562.000    562.204     -0.204    561.043    561.841    561.043    561.406    561.043
 15.170    589.000    562.186     26.814    561.063    561.821    561.063    561.428    561.063
 15.270    536.000    562.165    -26.165    561.076    561.798    561.076    561.443    561.076
 15.370    581.430    562.143     19.287    561.084    561.774    561.084    561.453    561.084
 15.470    583.622    562.118     21.505    561.085    561.747    561.085    561.456    561.085
 15.570    561.000    562.095     -1.095    561.081    561.722    561.081    561.454    561.081
 15.670    519.000    562.085    -43.085    561.071    561.710    561.071    561.446    561.071
 15.770    540.000    562.052    -22.052    561.055    561.675    561.055    561.432    561.055
 15.870    554.877    562.014     -7.137    561.034    561.635    561.034    561.413    561.034
 15.970    517.000    561.972    -44.972    561.007    561.591    561.007    561.388    561.007
 16.070    539.000    561.927    -22.927    560.975    561.544    560.975    561.358    560.975
 16.170    533.000    561.886    -28.886    560.937    561.500    560.937    561.322    560.937
 16.270    599.351    561.889     37.461    560.893    561.501    560.893    561.281    560.893
 16.370    604.045    561.890     42.155    560.845    561.500    560.845    561.235    560.845
 16.470    592.000    561.834     30.166    560.791    561.441    560.791    561.183    560.791
 16.570    594.000    561.768     32.232    560.732    561.373    560.732    561.126    560.732
 16.670    552.529    561.697     -9.169    560.667    561.300    560.667    561.064    560.667
 16.770    509.000    561.623    -52.623    560.598    561.223    560.598    560.997    560.598
 16.870    563.665    561.544      2.121    560.523    561.142    560.523    560.925    560.523
 16.970    510.000    561.461    -51.461    560.444    561.057    560.444    560.848    560.444
 17.070    544.088    561.374    -17.286    560.360    560.967    560.360    560.766    560.360
 17.170    526.000    561.283    -35.283    560.270    560.874    560.270    560.679    560.270
 17.270    500.000    561.187    -61.187    560.176    560.776    560.176    560.588    560.176
 17.370    557.176    561.088     -3.912    560.077    560.673    560.077    560.492    560.077
 17.470    600.401    560.984     39.417    559.974    560.567    559.974    560.391    559.974
 17.570    511.000    560.876    -49.876    559.865    560.457    559.865    560.285    559.865
 17.670    548.000    560.765    -12.765    559.753    560.342    559.753    560.175    559.753
 17.770    544.000    560.649    -16.649    559.635    560.224    559.635    560.060    559.635
 17.870    561.067    560.529      0.537    559.513    560.101    559.513    559.941    559.513
 17.970    593.714    560.410     33.304    559.387    559.979    559.387    559.818    559.387
 18.070    601.145    560.285     40.860    559.256    559.851    559.256    559.690    559.256
 18.170    442.000    560.154   -118.154    559.121    559.717    559.121    559.558    559.121
 18.270    533.000    560.019    -27.019    558.982    559.579    558.982    559.422    558.982
 18.370    567.000    559.880      7.120    558.839    559.437    558.839    559.281    558.839
 18.470    590.000    559.737     30.263    558.691    559.291    558.691    559.137    558.691
 18.570    569.000    559.595      9.405    558.539    559.146    558.539    558.988    558.539
 18.670    545.770    559.446    -13.675    558.383    558.993    558.383    558.836    558.383
 18.770    526.000    559.292    -33.292    558.223    558.837    558.223    558.679    558.223
 18.870    521.128    559.135    -38.008    558.060    558.676    558.060    558.518    558.060
 18.970    594.000    558.975     35.025    557.892    558.512    557.892    558.354    557.892
 19.070    540.000    558.811    -18.811    557.720    558.345    557.720    558.186    557.720
 19.170    543.000    558.647    -15.647    557.545    558.178    557.545    558.014    557.545
 19.270    529.752    558.512    -28.759    557.366    558.039    557.366    557.839    557.366
 19.370    527.000    558.372    -31.372    557.183    557.895    557.183    557.659    557.183
 19.470    540.000    558.199    -18.199    556.996    557.718    556.996    557.477    556.996
 19.570    533.000    558.019    -25.019    556.806    557.535    556.806    557.290    556.806
 19.670    536.000    557.838    -21.838    556.613    557.350    556.613    557.101    556.613
 19.770    586.119    557.654     28.465    556.415    557.162    556.415    556.908    556.415
 19.870    532.000    557.466    -25.466    556.215    556.970    556.215    556.711    556.215
 19.970    568.000    557.275     10.725    556.011    556.775    556.011    556.511    556.011
 20.070    568.000    557.082     10.918    555.803    556.578    555.803    556.308    555.803
 20.170    537.000    556.890    -19.890    555.593    556.381    555.593    556.102    555.593
 20.270    558.000    556.700      1.300    555.379    556.187    555.379    555.892    555.379
 20.370    523.000    556.502    -33.502    555.161    555.984    555.161    555.680    555.161
 20.470    566.000    556.321      9.679    554.941    555.799    554.941    555.464    554.941
 20.570    566.000    556.120      9.880    554.718    555.592    554.718    555.245    554.718
 20.670    549.213    555.913     -6.700    554.491    555.381    554.491    555.023    554.491
 20.770    530.000    555.707    -25.707    554.261    555.170    554.261    554.799    554.261
 20.870    533.000    555.503    -22.503    554.029    554.961    554.029    554.572    554.029
 20.970    566.000    555.291     10.709    553.793    554.743    553.793    554.341    553.793
 21.070    514.638    555.076    -40.438    553.555    554.523    553.555    554.108    553.555
 21.170    578.000    554.862     23.138    553.314    554.304    553.314    553.873    553.314
 21.270    548.139    554.665     -6.526    553.070    554.101    553.070    553.634    553.070
 21.370    528.599    554.471    -25.872    552.823    553.901    552.823    553.393    552.823
 21.470    539.000    554.255    -15.255    552.574    553.679    552.574    553.150    552.574
 21.570    597.776    554.036     43.740    552.321    553.454    552.321    552.904    552.321
 21.670    544.582    553.816     -9.234    552.067    553.227    552.067    552.656    552.067
 21.770    586.000    553.596     32.404    551.809    553.001    551.809    552.405    551.809
 21.870    562.000    553.376      8.624    551.549    552.774    551.549    552.152    551.549
 21.970    563.000    553.157      9.843    551.287    552.548    551.287    551.896    551.287
 22.070    596.000    552.939     43.061    551.022    552.323    551.022    551.638    551.022
 22.170    582.000    552.724     29.276    550.755    552.101    550.755    551.379    550.755
 22.270    535.000    552.523    -17.523    550.485    551.893    550.485    551.116    550.485
 22.370    554.000    552.329      1.671    550.214    551.691    550.214    550.852    550.214
 22.470    522.000    552.147    -30.147    549.939    551.500    549.939    550.586    549.939
 22.570    541.570    552.017    -10.447    549.663    551.362    549.663    550.318    549.663
 22.670    550.000    551.841     -1.841    549.384    551.178    549.384    550.048    549.384
 22.770    535.000    551.653    -16.653    549.104    550.981    549.104    549.776    549.104
 22.870    545.000    551.475     -6.475    548.821    550.794    548.821    549.503    548.821
 22.970    542.000    551.328     -9.328    548.536    550.637    548.536    549.227    548.536
 23.070    575.622    551.194     24.428    548.249    550.493    548.249    548.950    548.249
 23.170    556.000    551.069      4.931    547.960    550.359    547.960    548.671    547.960
 23.270    550.000    550.960     -0.960    547.669    550.239    547.669    548.391    547.669
 23.370    548.286    550.883     -2.597    547.376    550.151    547.376    548.109    547.376
 23.470    535.000    550.844    -15.844    547.082    550.101    547.082    547.826    547.082
 23.570    543.000    550.846     -7.846    546.785    550.091    546.785    547.542    546.785
 23.670    543.000    550.909     -7.909    546.487    550.142    546.487    547.256    546.487
 23.770    553.000    551.058      1.942    546.187    550.278    546.187    546.968    546.187
 23.870    509.908    551.328    -41.420    545.885    550.535    545.885    546.680    545.885
 23.970    560.000    551.783      8.217    545.582    550.977    545.582    546.391    545.582
 24.070    536.000    552.543    -16.543    545.277    551.724    545.277    546.100    545.277
 24.170    595.000    553.896     41.104    544.970    553.062    544.970    545.809    544.970
 24.270    572.000    556.451     15.549    544.662    555.603    544.662    545.516    544.662
 24.370    598.350    561.316     37.034    544.352    560.455    544.352    545.223    544.352
 24.470    580.698    569.999     10.699    544.041    569.128    544.041    544.929    544.041
 24.570    563.916    583.702    -19.786    543.728    582.823    543.728    544.635    543.728
 24.670    606.000    601.826      4.174    543.414    600.940    543.414    544.340    543.414
 24.770    617.000    619.797     -2.797    543.098    618.904    543.098    544.044    543.098
 24.870    661.000    628.224     32.776    542.781    627.316    542.781    543.749    542.781
 24.970    628.314    620.655      7.658    542.463    619.721    542.463    543.453    542.463
 25.070    648.073    602.725     45.348    542.144    601.754    542.144    543.157    542.144
 25.170    634.000    583.897     50.103    541.823    582.888    541.823    542.860    541.823
 25.270    578.000    569.208      8.792    541.501    568.163    541.501    542.565    541.501
 25.370    533.361    559.567    -26.206    541.178    558.488    541.178    542.269    541.178
 25.470    584.690    553.890     30.801    540.854    552.777    540.854    541.974    540.854
 25.570    613.000    550.664     62.336    540.529    549.519    540.529    541.679    540.529
 25.670    538.000    548.739    -10.739    540.203    547.560    540.203    541.386    540.203
 25.770    580.576    547.462     33.114    539.875    546.248    539.875    541.093    539.875
 25.870    508.638    546.525    -37.887    539.547    545.273    539.547    540.801    539.547
 25.970    548.362    545.792      2.569    539.218    544.501    539.218    540.511    539.218
 26.070    587.914    545.199     42.715    538.887    543.865    538.887    540.223    538.887
 26.170    548.544    544.711      3.833    538.556    543.333    538.556    539.936    538.556
 26.270    519.960    544.308    -24.348    538.224    542.882    538.224    539.652    538.224
 26.370    506.023    543.977    -37.955    537.891    542.500    537.891    539.370    537.891
 26.470    555.000    543.712     11.288    537.558    542.180    537.558    539.091    537.558
 26.570    571.000    543.509     27.491    537.223    541.918    537.223    538.815    537.223
 26.670    505.569    543.367    -37.798    536.888    541.713    536.888    538.543    536.888
 26.770    518.520    543.291    -24.771    536.552    541.569    536.552    538.275    536.552
 26.870    617.000    543.290     73.710    536.216    541.495    536.216    538.012    536.216
 26.970    572.000    543.375     28.625    535.879    541.501    535.879    537.754    535.879
 27.070    601.000    543.566     57.434    535.541    541.605    535.541    537.501    535.541
 27.170    583.000    543.888     39.112    535.203    541.835    535.203    537.256    535.203
 27.270    557.000    544.383     12.617    534.864    542.230    534.864    537.017    534.864
 27.370    512.354    545.113    -32.759    534.524    542.851    534.524    536.786    534.524
 27.470    524.755    546.187    -21.433    534.184    543.807    534.184    536.564    534.184
 27.570    501.000    547.877    -46.877    533.844    545.369    533.844    536.352    533.844
 27.670    579.000    551.107     27.893    533.503    548.458    533.503    536.150    533.503
 27.770    618.000    558.975     59.025    533.162    556.172    533.162    535.960    533.162
 27.870    570.666    579.623     -8.958    532.821    576.648    532.821    535.782    532.821
 27.970    625.573    627.351     -1.778    532.479    624.179    532.479    535.618    532.479
 28.070    678.000    713.967    -35.967    532.136    710.576    532.136    535.468    532.136
 28.170    778.000    827.534    -49.534    531.794    823.909    531.794    535.334    531.794
 28.270    914.000    917.748     -3.748    531.451    913.893    531.451    535.215    531.451
 28.370    906.000    925.836    -19.836    531.108    921.763    531.108    535.114    531.108
 28.470    841.000    850.869     -9.869    530.765    846.568    530.765    535.029    530.765
 28.570    781.000    756.296     24.704    530.421    751.738    530.421    534.960    530.421
 28.670    662.000    703.939    -41.939    530.078    699.096    530.078    534.905    530.078
 28.770    708.549    713.282     -4.733    529.734    708.133    529.734    534.863    529.734
 28.870    787.000    763.622     23.378    529.390    758.161    529.390    534.830    529.390
 28.970    807.482    809.815     -2.333    529.047    804.046    529.047    534.800    529.047
 29.070    863.904    808.775     55.129    528.703    802.710    528.703    534.768    528.703
 29.170    753.563    755.393     -1.830    528.359    749.038    528.359    534.724    528.359
 29.270    701.234    682.082     19.152    528.015    675.451    528.015    534.659    528.015
 29.370    656.032    620.367     35.666    527.671    613.484    527.671    534.562    527.671
 29.470    627.000    581.392     45.608    527.327    574.301    527.327    534.423    527.327
 29.570    599.000    561.354     37.646    526.984    554.108    526.984    534.232    526.984
 29.670    533.383    552.170    -18.787    526.640    544.831    526.640    533.980    526.640
 29.770    553.972    547.821      6.152    526.296    540.455    526.296    533.663    526.296
 29.870    509.613    545.359    -35.745    525.953    538.033    525.953    533.279    525.953
 29.970    555.000    543.682     11.318    525.610    536.462    525.610    532.831    525.610
 30.070    560.000    542.442     17.558    525.267    535.384    525.267    532.324    525.267
 30.170    576.000    541.550     34.450    524.924    534.705    524.924    531.769    524.924
 30.270    570.273    541.074     29.199    524.582    534.480    524.582    531.175    524.582
 30.370    594.000    541.314     52.686    524.240    534.999    524.240    530.552    524.240
 30.470    551.913    543.019      8.894    523.898    537.000    523.898    529.913    523.898
 30.570    551.000    547.542      3.458    523.556    541.825    523.556    529.265    523.556
 30.670    587.000    556.530     30.470    523.215    551.112    523.215    528.617    523.215
 30.770    626.000    570.681     55.319    522.874    565.553    522.874    527.975    522.874
 30.870    611.048    587.755     23.293    522.534    582.907    522.534    527.344    522.534
 30.970    585.000    601.217    -16.217    522.194    596.640    522.194    526.727    522.194
 31.070    654.000    602.962     51.038    521.854    598.649    521.854    526.125    521.854
 31.170    632.693    591.199     41.494    521.515    587.140    521.515    525.540    521.515
 31.270    581.000    572.944      8.056    521.177    569.125    521.177    524.973    521.177
 31.370    553.000    556.040     -3.040    520.838    552.443    520.838    524.423    520.838
 31.470    567.000    544.056     22.944    520.501    540.661    520.501    523.889    520.501
 31.570    563.000    536.970     26.030    520.164    533.758    520.164    523.372    520.164
 31.670    571.000    533.215     37.785    519.827    530.170    519.827    522.869    519.827
 31.770    494.000    531.243    -37.243    519.491    528.351    519.491    522.381    519.491
 31.870    535.070    530.102      4.968    519.156    527.350    519.156    521.906    519.156
 31.970    616.000    529.352     86.648    518.821    526.728    518.821    521.443    518.821
 32.070    517.000    528.824    -11.824    518.487    526.318    518.487    520.992    518.487
 32.170    522.000    528.458     -6.458    518.154    526.060    518.154    520.551    518.154
 32.270    520.000    528.234     -8.234    517.821    525.934    517.821    520.120    517.821
 32.370    559.730    528.145     31.584    517.489    525.935    517.489    519.698    517.489
 32.470    552.644    528.198     24.446    517.158    526.071    517.158    519.284    517.158
 32.570    544.000    528.408     15.592    516.827    526.357    516.827    518.878    516.827
 32.670    539.000    528.799     10.201    516.497    526.817    516.497    518.478    516.497
 32.770    486.000    529.409    -43.409    516.168    527.491    516.168    518.085    516.168
 32.870    620.000    530.294     89.706    515.840    528.435    515.840    517.698    515.840
 32.970    545.714    531.534     14.180    515.513    529.729    515.513    517.317    515.513
 33.070    585.000    533.255     51.745    515.186    531.499    515.186    516.941    515.186
 33.170    592.000    535.674     56.326    514.860    533.963    514.860    516.569    514.860
 33.270    562.000    539.250     22.750    514.536    537.581    514.536    516.203    514.536
 33.370    512.000    545.068    -33.068    514.212    543.437    514.212    515.840    514.212
 33.470    593.000    555.651     37.349    513.889    554.053    513.889    515.481    513.889
 33.570    561.000    576.112    -15.112    513.566    574.543    513.566    515.126    513.566
 33.670    606.000    614.679     -8.679    513.245    613.132    513.245    514.774    513.245
 33.770    667.421    680.508    -13.087    512.925    678.979    512.925    514.426    512.925
 33.870    795.000    777.115     17.885    512.606    775.600    512.606    514.081    512.606
 33.970    904.000    892.439     11.561    512.287    890.943    512.287    513.739    512.287
 34.070   1000.000    990.736      9.264    511.970    989.268    511.970    513.400    511.970
 34.170    999.000   1021.547    -22.547    511.654   1020.116    511.654    513.063    511.654
 34.270    907.363    963.430    -56.068    511.339    962.033    511.339    512.729    511.339
 34.370    881.371    852.567     28.803    511.025    851.196    511.025    512.398    511.025
 34.470    703.000    739.327    -36.327    510.711    737.973    510.711    512.069    510.711
 34.570    677.852    651.599     26.252    510.399    650.260    510.399    511.743    510.399
 34.670    573.276    595.005    -21.729    510.088    593.677    510.088    511.419    510.088
 34.770    560.000    562.999     -2.999    509.779    561.682    509.779    511.097    509.779
 34.870    583.000    546.078     36.922    509.470    544.771    509.470    510.777    509.470
 34.970    571.000    536.914     34.086    509.162    535.617    509.162    510.459    509.162
 35.070    559.000    531.377     27.623    508.856    530.089    508.856    510.144    508.856
 35.170    539.000    527.567     11.433    508.551    526.287    508.551    509.831    508.551
 35.270    541.000    524.694     16.306    508.247    523.422    508.247    509.519    508.247
 35.370    503.604    522.415    -18.811    507.944    521.149    507.944    509.210    507.944
 35.470    556.246    520.553     35.693    507.642    519.293    507.642    508.902    507.642
 35.570    517.069    519.001     -1.931    507.342    517.745    507.342    508.597    507.342
 35.670    497.324    517.684    -20.359    507.042    516.433    507.042    508.293    507.042
 35.770    475.008    516.550    -41.542    506.744    515.303    506.744    507.992    506.744
 35.870    497.000    515.562    -18.562    506.448    514.318    506.448    507.692    506.448
 35.970    511.000    514.690     -3.690    506.152    513.449    506.152    507.394    506.152
 36.070    490.317    513.914    -23.598    505.858    512.675    505.858    507.098    505.858
 36.170    527.000    513.219     13.781    505.565    511.980    505.565    506.804    505.565
 36.270    528.000    512.591     15.409    505.274    511.353    505.274    506.512    505.274
 36.370    524.000    512.023     11.977    504.984    510.785    504.984    506.221    504.984
 36.470    505.000    511.508     -6.508    504.695    510.270    504.695    505.932    504.695
 36.570    502.921    511.043     -8.121    504.407    509.805    504.407    505.646    504.407
 36.670    471.768    510.627    -38.859    504.121    509.388    504.121    505.361    504.121
 36.770    532.916    510.264     22.652    503.836    509.023    503.836    505.077    503.836
 36.870    504.431    509.966     -5.535    503.553    508.723    503.553    504.796    503.553
 36.970    471.015    509.763    -38.747    503.271    508.517    503.271    504.516    503.271
 37.070    467.005    509.717    -42.711    502.990    508.469    502.990    504.239    502.990
 37.170    469.000    509.944    -40.944    502.711    508.693    502.711    503.963    502.711
 37.270    514.000    510.616      3.384    502.433    509.362    502.433    503.689    502.433
 37.370    504.891    511.926     -7.035    502.157    510.667    502.157    503.416    502.157
 37.470    515.442    513.987      1.455    501.882    512.725    501.882    503.146    501.882
 37.570    490.305    516.682    -26.377    501.608    515.415    501.608    502.877    501.608
 37.670    536.000    519.461     16.539    501.336    518.190    501.336    502.611    501.336
 37.770    503.259    521.292    -18.033    501.065    520.017    501.065    502.346    501.065
 37.870    561.257    521.235     40.021    500.796    519.957    500.796    502.082    500.796
 37.970    476.000    519.339    -43.339    500.529    518.056    500.529    501.821    500.529
 38.070    535.000    516.472     18.528    500.263    515.184    500.263    501.562    500.263
 38.170    480.897    513.435    -32.538    499.998    512.139    499.998    501.304    499.998
 38.270    502.000    510.669     -8.669    499.735    509.365    499.735    501.049    499.735
 38.370    502.000    508.407     -6.407    499.473    507.093    499.473    500.795    499.473
 38.470    509.666    506.713      2.953    499.213    505.389    499.213    500.543    499.213
 38.570    516.000    505.508     10.492    498.955    504.173    498.955    500.293    498.955
 38.670    530.019    504.660     25.359    498.698    503.316    498.698    500.045    498.698
 38.770    474.000    504.047    -30.047    498.443    502.692    498.443    499.799    498.443
 38.870    489.582    503.576    -13.994    498.189    502.211    498.189    499.555    498.189
 38.970    481.000    503.188    -22.188    497.937    501.813    497.937    499.313    497.937
 39.070    552.000    502.849     49.151    497.686    501.463    497.686    499.073    497.686
 39.170    469.000    502.542    -33.542    497.437    501.146    497.437    498.834    497.437
 39.270    499.000    502.258     -3.258    497.189    500.850    497.189    498.598    497.189
 39.370    469.437    501.991    -32.555    496.943    500.572    496.943    498.364    496.943
 39.470    506.000    501.736      4.264    496.699    500.304    496.699    498.132    496.699
 39.570    512.000    501.498     10.502    496.457    500.054    496.457    497.901    496.457
 39.670    528.764    501.273     27.490    496.216    499.816    496.216    497.673    496.216
 39.770    484.000    501.060    -17.060    495.976    499.590    495.976    497.447    495.976
 39.870    509.000    500.858      8.142    495.738    499.374    495.738    497.223    495.738
 39.970    496.000    500.667     -4.667    495.502    499.169    495.502    497.001    495.502
 40.070    498.000    500.487     -2.487    495.268    498.974    495.268    496.781    495.268
 40.170    472.771    500.319    -27.547    495.035    498.791    495.035    496.563    495.035
 40.270    536.187    500.162     36.025    494.804    498.619    494.804    496.348    494.804
 40.370    490.000    500.018    -10.018    494.574    498.459    494.574    496.134    494.574
 40.470    479.000    499.888    -20.888    494.346    498.313    494.346    495.923    494.346
 40.570    526.000    499.774     26.226    494.120    498.181    494.120    495.714    494.120
 40.670    470.000    499.677    -29.677    493.896    498.066    493.896    495.507    493.896
 40.770    526.756    499.599     27.156    493.673    497.971    493.673    495.302    493.673
 40.870    510.000    499.545     10.455    493.452    497.897    493.452    495.100    493.452
 40.970    466.395    499.516    -33.121    493.232    497.850    493.232    494.900    493.232
 41.070    540.382    499.519     40.863    493.014    497.833    493.014    494.702    493.014
 41.170    458.961    499.560    -40.599    492.798    497.854    492.798    494.506    492.798
 41.270    517.000    499.648     17.352    492.584    497.920    492.584    494.313    492.584
 41.370    490.000    499.793     -9.793    492.371    498.044    492.371    494.123    492.371
 41.470    501.000    500.013      0.987    492.160    498.241    492.160    493.934    492.160
 41.570    462.000    500.329    -38.329    491.951    498.534    491.951    493.748    491.951
 41.670    519.904    500.782     19.122    491.744    498.963    491.744    493.565    491.744
 41.770    518.660    501.445     17.215    491.538    499.602    491.538    493.384    491.538
 41.870    452.000    502.478    -50.478    491.334    500.609    491.334    493.205    491.334
 41.970    472.000    504.207    -32.207    491.131    502.313    491.131    493.030    491.131
 42.070    484.000    507.259    -23.259    490.931    505.339    490.931    492.856    490.931
 42.170    506.000    512.661     -6.661    490.732    510.716    490.732    492.686    490.732
 42.270    526.268    521.770      4.498    490.535    519.799    490.535    492.518    490.535
 42.370    513.000    535.839    -22.839    490.339    533.845    490.339    492.353    490.339
 42.470    578.496    555.179     23.316    490.146    553.164    490.146    492.191    490.146
 42.570    560.000    578.051    -18.051    489.954    576.015    489.954    492.031    489.954
 42.670    570.000    599.608    -29.608    489.764    597.551    489.764    491.874    489.764
 42.770    564.000    612.211    -48.211    489.575    610.128    489.575    491.721    489.575
 42.870    602.551    609.839     -7.288    489.389    607.722    489.389    491.570    489.389
 42.970    601.748    593.741      8.008    489.204    591.579    489.204    491.422    489.204
 43.070    568.901    571.004     -2.103    489.020    568.792    489.020    491.278    489.020
 43.170    495.000    548.612    -53.612    488.839    546.348    488.839    491.137    488.839
 43.270    525.000    530.472     -5.472    488.659    528.155    488.659    490.999    488.659
 43.370    508.000    517.649     -9.649    488.482    515.281    488.482    490.864    488.482
 43.470    518.926    509.478      9.448    488.305    507.060    488.305    490.733    488.305
 43.570    537.624    504.619     33.005    488.131    502.152    488.131    490.605    488.131
 43.670    528.000    501.792     26.208    487.958    499.273    487.958    490.481    487.958
 43.770    539.000    500.084     38.916    487.788    497.514    487.788    490.361    487.788
 43.870    488.000    498.967    -10.967    487.619    496.343    487.619    490.245    487.619
 43.970    459.000    498.167    -39.167    487.451    495.489    487.451    490.133    487.451
 44.070    472.000    497.558    -25.558    487.286    494.821    487.286    490.024    487.286
 44.170    512.000    497.076     14.924    487.122    494.279    487.122    489.920    487.122
 44.270    445.000    496.688    -51.688    486.960    493.829    486.960    489.821    486.960
 44.370    466.000    496.374    -30.374    486.800    493.449    486.800    489.726    486.800
 44.470    463.895    496.119    -32.224    486.641    493.126    486.641    489.636    486.641
 44.570    472.000    495.913    -23.913    486.484    492.849    486.484    489.550    486.484
 44.670    470.847    495.750    -24.903    486.329    492.610    486.329    489.470    486.329
 44.770    495.000    495.624     -0.624    486.176    492.405    486.176    489.396    486.176
 44.870    535.000    495.531     39.469    486.025    492.229    486.025    489.327    486.025
 44.970    480.000    495.467    -15.467    485.875    492.079    485.875    489.264    485.875
 45.070    503.000    495.431      7.569    485.727    491.952    485.727    489.207    485.727
 45.170    462.379    495.422    -33.043    485.581    491.846    485.581    489.157    485.581
 45.270    527.000    495.438     31.562    485.436    491.762    485.436    489.114    485.436
 45.370    476.244    495.480    -19.236    485.294    491.697    485.294    489.078    485.294
 45.470    520.000    495.548     24.452    485.153    491.651    485.153    489.050    485.153
 45.570    528.000    495.641     32.359    485.014    491.626    485.014    489.030    485.014
 45.670    495.707    495.763     -0.056    484.876    491.620    484.876    489.019    484.876
 45.770    457.074    495.913    -38.839    484.740    491.636    484.740    489.018    484.740
 45.870    504.967    496.094      8.873    484.606    491.675    484.606    489.026    484.606
 45.970    486.000    496.308    -10.308    484.474    491.738    484.474    489.045    484.474
 46.070    492.000    496.559     -4.559    484.344    491.828    484.344    489.076    484.344
 46.170    536.285    496.851     39.434    484.215    491.948    484.215    489.119    484.215
 46.270    473.000    497.189    -24.189    484.088    492.102    484.088    489.176    484.088
 46.370    512.000    497.579     14.421    483.963    492.295    483.963    489.247    483.963
 46.470    478.065    498.029    -19.964    483.840    492.535    483.840    489.334    483.840
 46.570    491.000    498.551     -7.551    483.718    492.831    483.718    489.438    483.718
 46.670    483.000    499.159    -16.159    483.598    493.196    483.598    489.561    483.598
 46.770    474.000    499.876    -25.876    483.479    493.651    483.479    489.704    483.479
 46.870    509.000    500.743      8.257    483.363    494.237    483.363    489.868    483.363
 46.970    489.000    501.839    -12.839    483.248    495.029    483.248    490.057    483.248
 47.070    516.000    503.317     12.683    483.135    496.178    483.135    490.272    483.135
 47.170    539.940    505.459     34.481    483.023    497.964    483.023    490.516    483.023
 47.270    522.000    508.727     13.273    482.914    500.845    482.914    490.790    482.914
 47.370    481.000    513.765    -32.765    482.806    505.464    482.806    491.099    482.806
 47.470    517.000    521.281     -4.281    482.699    512.524    482.699    491.444    482.699
 47.570    494.237    531.761    -37.524    482.595    522.505    482.595    491.830    482.595
 47.670    570.000    545.042     24.958    482.492    535.247    482.492    492.259    482.492
 47.770    567.000    559.839      7.161    482.391    549.457    482.391    492.734    482.391
 47.870    596.000    573.364     22.636    482.291    562.348    482.291    493.260    482.291
 47.970    541.000    581.688    -40.688    482.193    569.991    482.193    493.841    482.193
 48.070    551.609    581.880    -30.272    482.097    569.452    482.097    494.478    482.097
 48.170    567.090    574.527     -7.437    482.002    561.314    482.002    495.175    482.002
 48.270    560.000    563.145     -3.145    481.910    549.089    481.910    495.935    481.910
 48.370    558.912    551.475      7.437    481.818    536.514    481.818    496.758    481.818
 48.470    539.000    541.918     -2.918    481.729    525.988    481.729    497.645    481.729
 48.570    524.566    535.457    -10.891    481.641    518.497    481.641    498.593    481.641
 48.670    515.000    532.084    -17.084    481.555    514.039    481.555    499.596    481.555
 48.770    516.000    531.281    -15.281    481.470    512.104    481.470    500.646    481.470
 48.870    529.000    532.411     -3.411    481.387    512.070    481.387    501.729    481.387
 48.970    541.000    534.980      6.020    481.306    513.461    481.306    502.826    481.306
 49.070    512.670    538.754    -26.084    481.226    516.070    481.226    503.911    481.226
 49.170    504.000    543.868    -39.868    481.148    520.064    481.148    504.954    481.148
 49.270    550.000    551.128     -1.128    481.072    526.284    481.072    505.917    481.072
 49.370    570.191    562.805      7.386    480.997    537.042    480.997    506.759    480.997
 49.470    560.000    584.241    -24.241    480.924    557.719    480.924    507.440    480.924
 49.570    676.000    626.188     49.812    480.852    599.102    480.852    507.921    480.852
 49.670    698.000    706.678     -8.678    480.782    679.249    480.782    508.174    480.782
 49.770    839.000    849.519    -10.519    480.714    821.985    480.714    508.181    480.714
 49.870   1055.000   1075.983    -20.983    480.647   1048.585    480.647    507.942    480.647
 49.970   1390.000   1389.154      0.846    480.582   1362.133    480.582    507.469    480.582
 50.070   1772.000   1756.734     15.266    480.518   1730.324    480.518    506.791    480.518
 50.170   2075.000   2103.276    -28.276    480.456   2077.690    480.456    505.942    480.456
 50.270   2317.000   2324.906     -7.906    480.396   2300.318    480.396    504.964    480.396
 50.370   2353.000   2337.621     15.379    480.337   2314.142    480.337    503.899    480.337
 50.470   2154.000   2136.216     17.784    480.279   2113.871    480.279    502.784    480.279
 50.570   1840.315   1799.150     41.165    480.223   1777.911    480.223    501.652    480.223
 50.670   1398.202   1432.046    -33.844    480.169   1411.862    480.169    500.530    480.169
 50.770   1128.000   1115.295     12.705    480.116   1096.114    480.116    499.439    480.116
 50.870    833.445    885.970    -52.526    480.065    867.745    480.065    498.392    480.065
 50.970    766.000    743.639     22.361    480.015    726.324    480.015    497.402    480.015
 51.070    668.000    666.911      1.089    479.967    650.459    479.967    496.473    479.967
 51.170    630.000    629.566      0.434    479.920    613.923    479.920    495.608    479.920
 51.270    600.879    610.255     -9.376    479.875    595.361    479.875    494.809    479.875
 51.370    665.000    596.180     68.820    479.831    581.972    479.831    494.074    479.831
 51.470    549.828    582.590    -32.762    479.789    569.007    479.789    493.402    479.789
 51.570    596.000    569.341     26.659    479.748    556.324    479.748    492.790    479.748
 51.670    599.000    557.514     41.486    479.708    545.006    479.708    492.235    479.708
 51.770    544.169    547.938     -3.769    479.670    535.889    479.670    491.734    479.670
 51.870    566.567    540.908     25.659    479.634    529.270    479.634    491.283    479.634
 51.970    571.000    536.285     34.715    479.599    525.014    479.599    490.879    479.599
 52.070    556.000    533.696     22.304    479.565    522.749    479.565    490.519    479.565
 52.170    543.000    532.737     10.263    479.533    522.077    479.533    490.200    479.533
 52.270    556.000    533.118     22.882    479.502    522.707    479.502    489.919    479.502
 52.370    529.000    534.750     -5.750    479.473    524.554    479.473    489.674    479.473
 52.470    524.000    537.833    -13.833    479.445    527.821    479.445    489.461    479.445
 52.570    549.000    542.997      6.003    479.418    533.140    479.418    489.280    479.418
 52.670    565.939    551.546     14.394    479.393    541.815    479.393    489.128    479.393
 52.770    568.000    565.780      2.220    479.369    556.150    479.369    489.003    479.369
 52.870    594.000    589.219      4.781    479.347    579.665    479.347    488.905    479.347
 52.970    623.000    626.458     -3.458    479.326    616.956    479.326    488.830    479.326
 53.070    699.000    682.289     16.711    479.306    672.819    479.306    488.780    479.306
 53.170    816.000    759.909     56.091    479.287    750.450    479.287    488.752    479.287
 53.270    858.007    858.434     -0.428    479.270    848.969    479.270    488.745    479.270
 53.370    941.572    970.224    -28.652    479.254    960.736    479.254    488.760    479.254
 53.470   1073.000   1078.627     -5.627    479.240   1069.101    479.240    488.796    479.240
 53.570   1092.000   1158.147    -66.147    479.227   1148.566    479.227    488.852    479.227
 53.670   1174.955   1182.510     -7.555    479.215   1172.853    479.215    488.928    479.215
 53.770   1084.000   1142.004    -58.004    479.204   1132.245    479.204    489.025    479.204
 53.870   1047.000   1052.308     -5.308    479.195   1042.421    479.195    489.141    479.195
 53.970    994.469    941.327     53.142    479.187    931.287    479.187    489.278    479.187
 54.070    852.000    832.702     19.298    479.180    822.487    479.180    489.436    479.180
 54.170    699.000    740.438    -41.438    479.175    730.029    479.175    489.615    479.175
 54.270    666.802    670.009     -3.207    479.171    659.387    479.171    489.816    479.171
 54.370    631.000    620.871     10.129    479.168    610.016    479.168    490.039    479.168
 54.470    593.000    589.129      3.871    479.166    578.022    479.166    490.285    479.166
 54.570    578.497    569.883      8.614    479.165    558.501    479.165    490.556    479.165
 54.670    536.000    558.770    -22.770    479.166    547.090    479.166    490.853    479.166
 54.770    593.299    552.613     40.686    479.168    540.611    479.168    491.176    479.168
 54.870    534.000    549.420    -15.420    479.170    537.068    479.170    491.529    479.170
 54.970    580.248    548.078     32.170    479.175    535.347    479.175    491.911    479.175
 55.070    520.224    548.028    -27.805    479.180    534.888    479.180    492.326    479.180
 55.170    558.664    549.021      9.643    479.186    535.437    479.186    492.776    479.186
 55.270    589.788    550.971     38.817    479.194    536.907    479.194    493.263    479.194
 55.370    556.000    553.895      2.105    479.203    539.313    479.203    493.791    479.203
 55.470    577.000    557.897     19.103    479.213    542.754    479.213    494.362    479.213
 55.570    604.000    563.206     40.794    479.224    547.456    479.224    494.979    479.224
 55.670    608.000    570.278     37.722    479.236    553.872    479.236    495.648    479.236
 55.770    607.889    580.041     27.848    479.249    562.923    479.249    496.372    479.249
 55.870    601.380    594.332      7.048    479.263    576.444    479.263    497.157    479.263
 55.970    651.000    616.611     34.389    479.278    597.887    479.278    498.007    479.278
 56.070    686.569    652.854     33.715    479.295    633.222    479.295    498.928    479.295
 56.170    708.000    712.305     -4.305    479.312    691.686    479.312    499.927    479.312
 56.270    856.160    807.373     48.787    479.331    785.683    479.331    501.011    479.331
 56.370    889.000    951.761    -62.761    479.350    928.907    479.350    502.187    479.350
 56.470   1082.000   1156.233    -74.233    479.371   1132.119    479.371    503.464    479.371
 56.570   1373.000   1422.387    -49.387    479.392   1396.914    479.392    504.850    479.392
 56.670   1781.796   1735.936     45.860    479.415   1709.000    479.415    506.355    479.415
 56.770   2078.000   2061.491     16.509    479.438   2032.985    479.438    507.988    479.438
 56.870   2259.000   2341.631    -82.631    479.463   2311.438    479.463    509.759    479.463
 56.970   2533.000   2507.411     25.589    479.488   2475.400    479.488    511.681    479.488
 57.070   2564.000   2508.237     55.763    479.515   2474.243    479.515    513.762    479.515
 57.170   2282.940   2344.800    -61.860    479.542   2308.622    479.542    516.015    479.542
 57.270   2120.919   2068.546     52.372    479.571   2029.964    479.571    518.450    479.571
 57.370   1716.000   1748.426    -32.426    479.600   1707.218    479.600    521.076    479.600
 57.470   1453.000   1441.491     11.509    479.630   1397.439    479.630    523.902    479.630
 57.570   1168.000   1182.749    -14.749    479.661   1135.644    479.661    526.934    479.661
 57.670    933.000    986.265    -53.265    479.693    935.904    479.693    530.175    479.693
 57.770    840.000    850.511    -10.511    479.726    796.698    479.726    533.622    479.726
 57.870    804.085    765.227     38.858    479.759    707.774    479.759    537.268    479.759
 57.970    676.000    717.798    -41.798    479.794    656.533    479.794    541.095    479.794
 58.070    734.000    697.602     36.398    479.829    632.378    479.829    545.076    479.829
 58.170    726.532    697.882     28.650    479.865    628.590    479.865    549.170    479.865
 58.270    791.000    715.596     75.404    479.902    642.182    479.902    553.320    479.902
 58.370    788.124    750.073     38.051    479.940    672.554    479.940    557.453    479.940
 58.470    798.261    801.196     -2.935    479.979    719.683    479.979    561.478    479.979
 58.570    841.000    867.669    -26.669    480.018    782.380    480.018    565.287    480.018
 58.670    997.149    945.690     51.459    480.059    856.965    480.059    568.762    480.059
 58.770   1056.440   1028.475     27.965    480.100    936.781    480.100    571.777    480.100
 58.870   1081.486   1107.352    -25.867    480.141   1013.278    480.141    574.209    480.141
 58.970   1204.000   1174.289     29.711    480.184   1078.528    480.184    575.951    480.184
 59.070   1222.000   1223.175     -1.175    480.227   1126.500    480.227    576.922    480.227
 59.170   1244.000   1248.864     -4.864    480.271   1152.094    480.271    577.077    480.271
 59.270   1298.146   1248.178     49.968    480.315   1152.130    480.315    576.410    480.315
 59.370   1221.215   1224.108     -2.892    480.361   1129.557    480.361    574.958    480.361
 59.470   1317.000   1187.222    129.778    480.407   1094.867    480.407    572.796    480.407
 59.570   1213.898   1151.176     62.722    480.453   1061.612    480.453    570.026    480.453
 59.670   1234.000   1127.941    106.059    480.500   1041.649    480.500    566.768    480.500
 59.770   1102.157   1126.904    -24.747    480.548   1044.239    480.548    563.148    480.548
 59.870   1179.000   1155.125     23.875    480.597   1076.323    480.597    559.287    480.597
 59.970   1293.000   1215.130     77.870    480.646   1140.321    480.646    555.297    480.646
 60.070   1356.365   1301.154     55.211    480.696   1230.378    480.696    551.272    480.696
 60.170   1473.000   1397.146     75.854    480.746   1330.372    480.746    547.290    480.746
 60.270   1501.000   1478.111     22.889    480.797   1415.258    480.797    543.411    480.797
 60.370   1533.000   1516.091     16.909    480.849   1457.037    480.849    539.679    480.849
 60.470   1500.468   1491.796      8.672    480.901   1436.387    480.901    536.125    480.901
 60.570   1344.000   1405.402    -61.402    480.954   1353.452    480.954    532.767    480.954
 60.670   1304.000   1275.554     28.446    481.007   1226.855    481.007    529.617    481.007
 60.770   1130.173   1128.139      2.034    481.061   1082.472    481.061    526.676    481.061
 60.870    957.038    986.038    -29.000    481.115    943.184    481.115    523.943    481.115
 60.970    854.000    864.665    -10.665    481.169    824.412    481.169    521.412    481.169
 61.070    766.638    771.510     -4.872    481.225    733.656    481.225    519.075    481.225
 61.170    683.000    707.803    -24.803    481.280    672.159    481.280    516.920    481.280
 61.270    709.000    671.254     37.746    481.337    637.644    481.337    514.938    481.337
 61.370    640.000    658.868    -18.868    481.393    627.130    481.393    513.115    481.393
 61.470    685.466    668.965     16.501    481.450    638.949    481.450    511.440    481.450
 61.570    718.415    701.747     16.668    481.508    673.313    481.508    509.900    481.508
 61.670    763.237    758.604      4.633    481.565    731.624    481.565    508.483    481.565
 61.770    787.000    840.283    -53.283    481.624    814.643    481.624    507.179    481.624
 61.870    962.000    944.578     17.422    481.682    920.178    481.682    505.976    481.682
 61.970   1032.000   1064.226    -32.226    481.741   1040.977    481.741    504.865    481.741
 62.070   1129.000   1185.647    -56.647    481.801   1163.475    481.801    503.836    481.801
 62.170   1296.178   1289.239      6.939    481.861   1268.083    481.861    502.883    481.861
 62.270   1267.000   1352.740    -85.740    481.921   1332.549    481.921    501.997    481.921
 62.370   1387.063   1359.210     27.853    481.981   1339.934    481.981    501.173    481.981
 62.470   1321.347   1306.222     15.125    482.042   1287.808    482.042    500.406    482.042
 62.570   1172.000   1207.489    -35.489    482.103   1189.879    482.103    499.691    482.103
 62.670   1098.615   1084.855     13.760    482.164   1067.992    482.164    499.025    482.164
 62.770    945.309    959.084    -13.775    482.226    942.914    482.226    498.405    482.226
 62.870    792.000    845.252    -53.252    482.288    829.726    482.288    497.827    482.288
 62.970    756.000    751.784      4.216    482.350    736.857    482.350    497.290    482.350
 63.070    673.000    681.217     -8.217    482.412    666.849    482.412    496.791    482.412
 63.170    614.000    631.845    -17.845    482.475    618.000    482.475    496.327    482.475
 63.270    638.549    599.702     38.847    482.538    586.347    482.538    495.896    482.538
 63.370    567.000    580.318    -13.318    482.601    567.422    482.601    495.497    482.601
 63.470    585.968    569.904     16.064    482.664    557.439    482.664    495.127    482.664
 63.570    571.000    565.924      5.076    482.727    553.862    482.727    494.785    482.727
 63.670    596.000    567.202     28.798    482.791    555.517    482.791    494.468    482.791
 63.770    620.800    573.792     47.008    482.854    562.458    482.854    494.177    482.854
 63.870    620.000    586.709     33.291    482.918    575.702    482.918    493.908    482.918
 63.970    613.000    607.580      5.420    482.982    596.876    482.982    493.660    482.982
 64.070    606.000    638.150    -32.150    483.046    627.727    483.046    493.432    483.046
 64.170    717.000    679.649     37.351    483.110    669.485    483.110    493.224    483.110
 64.270    740.726    732.041      8.685    483.174    722.116    483.174    493.033    483.174
 64.370    772.665    793.274    -20.609    483.239    783.573    483.239    492.859    483.239
 64.470    904.057    858.662     45.395    483.303    849.171    483.303    492.700    483.303
 64.570    939.000    920.668     18.332    483.367    911.379    483.367    492.557    483.367
 64.670    921.000    969.737    -48.737    483.432    960.643    483.432    492.427    483.432
 64.770   1033.430    996.926     36.504    483.496    988.023    483.496    492.311    483.496
 64.870    957.000    997.531    -40.531    483.561    988.813    483.561    492.207    483.561
 64.970    975.000    972.928      2.072    483.625    964.388    483.625    492.115    483.625
 65.070    931.000    929.418      1.582    483.690    921.045    483.690    492.034    483.690
 65.170    842.000    875.595    -33.595    483.754    867.377    483.754    491.964    483.754
 65.270    861.882    819.647     42.235    483.818    811.569    483.818    491.905    483.818
 65.370    782.000    767.430     14.570    483.883    759.478    483.883    491.855    483.883
 65.470    743.000    721.883     21.117    483.947    714.044    483.947    491.815    483.947
 65.570    667.294    683.611    -16.316    484.011    675.870    484.011    491.784    484.011
 65.670    627.868    652.068    -24.200    484.075    644.414    484.075    491.762    484.075
 65.770    582.000    626.515    -44.515    484.139    618.936    484.139    491.748    484.139
 65.870    562.224    606.287    -44.063    484.203    598.772    484.203    491.742    484.203
 65.970    622.596    590.707     31.889    484.267    583.249    484.267    491.745    484.267
 66.070    587.000    579.086      7.914    484.331    571.675    484.331    491.755    484.331
 66.170    563.000    570.792     -7.792    484.394    563.424    484.394    491.773    484.394
 66.270    593.704    565.309     28.395    484.457    557.976    484.457    491.798    484.457
 66.370    531.000    562.233    -31.233    484.521    554.929    484.521    491.831    484.521
 66.470    560.000    561.273     -1.273    484.583    553.990    484.583    491.871    484.583
 66.570    526.878    562.264    -35.385    484.646    554.997    484.646    491.919    484.646
 66.670    548.917    565.240    -16.323    484.709    557.981    484.709    491.973    484.709
 66.770    547.000    570.552    -23.552    484.771    563.295    484.771    492.035    484.771
 66.870    584.000    579.059      4.941    484.833    571.795    484.833    492.105    484.833
 66.970    565.000    592.390    -27.390    484.895    585.112    484.895    492.181    484.895
 67.070    591.028    613.267    -22.238    484.956    605.967    484.956    492.266    484.956
 67.170    655.000    645.805      9.195    485.018    638.475    485.018    492.357    485.018
 67.270    678.000    695.640    -17.640    485.078    688.273    485.078    492.457    485.078
 67.370    725.862    769.649    -43.787    485.139    762.238    485.139    492.564    485.139
 67.470    890.000    875.046     14.954    485.199    867.584    485.199    492.680    485.199
 67.570    986.955   1017.733    -30.778    485.259   1010.216    485.259    492.804    485.259
 67.670   1197.000   1200.061     -3.061    485.319   1192.486    485.319    492.936    485.319
 67.770   1423.000   1418.390      4.610    485.378   1410.756    485.378    493.078    485.378
 67.870   1608.000   1661.018    -53.018    485.437   1653.326    485.437    493.229    485.437
 67.970   1933.000   1906.915     26.085    485.496   1899.165    485.496    493.391    485.496
 68.070   2145.000   2125.798     19.202    485.554   2117.989    485.554    493.562    485.554
 68.170   2380.000   2281.338     98.662    485.612   2273.465    485.612    493.745    485.612
 68.270   2412.000   2340.788     71.212    485.669   2332.836    485.669    493.939    485.669
 68.370   2334.084   2289.863     44.221    485.726   2281.806    485.726    494.145    485.726
 68.470   2061.942   2141.081    -79.139    485.783   2132.881    485.783    494.365    485.783
 68.570   1924.000   1926.313     -2.313    485.839   1917.927    485.839    494.598    485.839
 68.670   1803.000   1681.962    121.038    485.894   1673.351    485.894    494.847    485.894
 68.770   1383.669   1438.895    -55.227    485.949   1430.027    485.949    495.111    485.949
 68.870   1245.000   1218.857     26.143    486.004   1209.708    486.004    495.393    486.004
 68.970   1008.888   1034.219    -25.331    486.058   1024.772    486.058    495.694    486.058
 69.070    863.000    889.167    -26.167    486.112    879.405    486.112    496.016    486.112
 69.170    778.000    781.722     -3.722    486.165    771.630    486.165    496.360    486.165
 69.270    698.020    706.170     -8.149    486.217    695.732    486.217    496.728    486.217
 69.370    708.000    655.329     52.671    486.269    644.527    486.269    497.123    486.269
 69.470    668.000    622.251     45.749    486.321    611.060    486.321    497.548    486.321
 69.570    611.000    601.168      9.832    486.372    589.562    486.372    498.005    486.372
 69.670    603.000    587.813     15.187    486.422    575.757    486.422    498.498    486.422
 69.770    607.598    579.300     28.297    486.472    566.757    486.472    499.030    486.472
 69.870    562.000    573.828    -11.828    486.521    560.755    486.521    499.607    486.521
 69.970    574.000    570.342      3.658    486.569    556.690    486.569    500.232    486.569
 70.070    613.000    568.262     44.738    486.617    553.977    486.617    500.912    486.617
 70.170    568.482    567.289      1.194    486.664    552.310    486.664    501.651    486.664
 70.270    581.626    567.298     14.328    486.711    551.558    486.711    502.457    486.711
 70.370    632.000    568.281     63.719    486.757    551.707    486.757    503.337    486.757
 70.470    580.890    570.348     10.542    486.802    552.855    486.802    504.300    486.802
 70.570    564.000    573.758     -9.758    486.846    555.255    486.846    505.353    486.846
 70.670    569.260    578.998     -9.738    486.890    559.384    486.890    506.506    486.890
 70.770    590.000    586.905      3.095    486.933    566.069    486.933    507.770    486.933
 70.870    570.000    598.821    -28.821    486.976    576.639    486.976    509.155    486.976
 70.970    643.242    616.750     26.492    487.017    593.088    487.017    510.672    487.017
 71.070    644.287    643.482      0.805    487.058    618.193    487.058    512.333    487.058
 71.170    675.000    682.573     -7.573    487.098    655.498    487.098    514.150    487.098
 71.270    670.000    738.095    -68.095    487.138    709.063    487.138    516.135    487.138
 71.370    765.237    814.070    -48.833    487.176    782.898    487.176    518.298    487.176
 71.470    966.319    913.568     52.751    487.214    880.064    487.214    520.650    487.214
 71.570    983.000   1037.563    -54.563    487.251   1001.527    487.251    523.200    487.251
 71.670   1147.810   1183.733    -35.923    487.287   1144.962    487.287    525.952    487.287
 71.770   1297.000   1345.444    -48.444    487.323   1303.735    487.323    528.910    487.323
 71.870   1457.055   1511.089    -54.034    487.357   1466.247    487.357    532.069    487.357
 71.970   1589.705   1664.057    -74.352    487.391   1615.899    487.391    535.419    487.391
 72.070   1782.615   1784.052     -1.438    487.424   1732.421    487.424    538.939    487.424
 72.170   1805.000   1851.139    -46.139    487.456   1795.910    487.456    542.594    487.456
 72.270   1781.360   1852.594    -71.234    487.487   1793.689    487.487    546.335    487.487
 72.370   1878.000   1788.785     89.215    487.517   1726.185    487.517    550.095    487.517
 72.470   1668.787   1672.926     -4.138    487.546   1606.696    487.546    553.783    487.546
 72.570   1580.599   1524.978     55.622    487.575   1455.289    487.575    557.291    487.575
 72.670   1450.000   1364.921     85.079    487.602   1292.071    487.602    560.492    487.602
 72.770   1213.000   1208.918      4.082    487.629   1133.343    487.629    563.249    487.629
 72.870   1069.823   1068.110      1.713    487.654    990.384    487.654    565.426    487.654
 72.970    958.000    948.718      9.282    487.679    869.537    487.679    566.903    487.679
 73.070    844.604    852.745     -8.142    487.703    772.893    487.703    567.593    487.703
 73.170    744.000    779.035    -35.035    487.725    699.340    487.725    567.453    487.725
 73.270    730.850    724.473      6.377    487.747    645.755    487.747    566.493    487.747
 73.370    715.000    685.121     29.879    487.768    608.139    487.768    564.773    487.768
 73.470    651.000    657.076     -6.076    487.787    582.490    487.787    562.395    487.787
 73.570    638.000    637.011      0.989    487.806    565.351    487.806    559.485    487.806
 73.670    633.000    622.387     10.613    487.824    554.047    487.824    556.182    487.824
 73.770    585.182    611.442    -26.260    487.840    546.682    487.840    552.619    487.840
 73.870    623.563    603.056     20.507    487.856    542.012    487.856    548.918    487.856
 73.970    604.000    596.564      7.436    487.871    539.274    487.871    545.181    487.871
 74.070    630.540    591.586     38.955    487.884    538.005    487.884    541.489    487.884
 74.170    569.000    587.881    -18.881    487.897    537.903    487.897    537.902    487.897
 74.270    601.526    585.247     16.279    487.908    538.722    487.908    534.464    487.908
 74.370    593.177    583.454      9.723    487.918    540.203    487.918    531.205    487.918
 74.470    557.950    582.201    -24.251    487.927    542.029    487.927    528.141    487.927
 74.570    574.000    581.107     -7.107    487.935    543.809    487.935    525.280    487.935
 74.670    543.567    579.729    -36.162    487.942    545.099    487.942    522.623    487.942
 74.770    673.000    577.641     95.359    487.948    545.475    487.948    520.167    487.948
 74.870    592.560    574.572     17.987    487.953    544.673    487.953    517.904    487.953
 74.970    537.414    570.533    -33.118    487.956    542.712    487.956    515.827    487.956
 75.070    552.749    565.810    -13.061    487.958    539.891    487.958    513.923    487.958
 75.170    540.742    560.869    -20.127    487.960    536.686    487.960    512.182    487.960
 75.270    547.247    556.230     -8.983    487.960    533.631    487.960    510.592    487.960
 75.370    539.368    552.410    -13.042    487.958    531.255    487.958    509.140    487.958
 75.470    528.717    549.907    -21.190    487.956    530.067    487.956    507.816    487.956
 75.570    513.580    549.208    -35.628    487.952    530.566    487.952    506.608    487.952
 75.670    597.000    550.791     46.209    487.948    533.239    487.948    505.506    487.948
 75.770    546.000    555.107     -9.107    487.942    538.550    487.942    504.499    487.942
 75.870    589.000    562.541     26.459    487.934    546.889    487.934    503.579    487.934
 75.970    588.000    573.331     14.669    487.926    558.506    487.926    502.737    487.926
 76.070    550.400    587.479    -37.079    487.916    573.409    487.916    501.965    487.916
 76.170    613.000    604.644      8.356    487.905    591.264    487.905    501.256    487.905
 76.270    656.000    624.049     31.951    487.893    611.301    487.893    500.603    487.893
 76.370    597.000    644.420    -47.420    487.879    632.253    487.879    500.002    487.879
 76.470    683.178    663.962     19.216    487.864    652.330    487.864    499.446    487.864
 76.570    702.000    680.428     21.572    487.848    669.291    487.848    498.931    487.848
 76.670    659.631    691.391    -31.760    487.831    680.714    487.831    498.453    487.831
 76.770    703.749    694.852      8.897    487.812    684.604    487.812    498.008    487.812
 76.870    686.000    690.009     -4.009    487.792    680.161    487.792    497.592    487.792
 76.970    698.000    677.636     20.364    487.771    668.161    487.771    497.204    487.771
 77.070    632.000    659.705    -27.705    487.748    650.580    487.748    496.840    487.748
 77.170    632.000    638.618     -6.618    487.724    629.818    487.724    496.497    487.724
 77.270    635.000    616.591     18.409    487.699    608.095    487.699    496.175    487.699
 77.370    553.000    595.379    -42.379    487.672    587.166    487.672    495.870    487.672
 77.470    574.000    576.200     -2.200    487.644    568.252    487.644    495.582    487.644
 77.570    547.000    559.761    -12.761    487.614    552.060    487.614    495.309    487.614
 77.670    580.209    546.318     33.891    487.584    538.847    487.584    495.050    487.584
 77.770    536.000    535.776      0.224    487.551    528.522    487.551    494.803    487.551
 77.870    509.000    527.809    -18.809    487.518    520.758    487.518    494.568    487.518
 77.970    494.000    521.969    -27.969    487.483    515.108    487.483    494.343    487.483
 78.070    540.857    517.785     23.072    487.446    511.103    487.446    494.128    487.446
 78.170    508.000    514.825     -6.825    487.409    508.311    487.409    493.922    487.409
 78.270    526.000    512.734     13.266    487.369    506.379    487.369    493.725    487.369
 78.370    500.000    511.242    -11.242    487.329    505.037    487.329    493.534    487.329
 78.470    507.619    510.158     -2.539    487.287    504.094    487.287    493.351    487.287
 78.570    498.904    509.355    -10.450    487.243    503.424    487.243    493.175    487.243
 78.670    508.647    508.754     -0.106    487.198    502.948    487.198    493.004    487.198
 78.770    502.367    508.311     -5.945    487.152    502.625    487.152    492.839    487.152
 78.870    490.000    508.008    -18.008    487.104    502.433    487.104    492.679    487.104
 78.970    522.055    507.841     14.214    487.054    502.372    487.054    492.524    487.054
 79.070    507.000    507.820     -0.820    487.004    502.451    487.004    492.374    487.004
 79.170    480.846    507.963    -27.117    486.951    502.687    486.951    492.227    486.951
 79.270    526.450    508.294     18.156    486.898    503.107    486.898    492.085    486.898
 79.370    507.000    508.830     -1.830    486.842    503.727    486.842    491.946    486.842
 79.470    514.000    509.625      4.375    486.786    504.600    486.786    491.810    486.786
 79.570    510.000    510.752     -0.752    486.727    505.801    486.727    491.677    486.727
 79.670    547.683    512.254     35.429    486.668    507.374    486.668    491.547    486.668
 79.770    527.101    514.212     12.888    486.606    509.398    486.606    491.419    486.606
 79.870    526.000    516.738      9.262    486.544    511.985    486.544    491.294    486.544
 79.970    476.365    519.978    -43.613    486.479    515.285    486.479    491.170    486.479
 80.070    530.000    524.126      5.874    486.414    519.489    486.414    491.048    486.414
 80.170    529.000    529.420     -0.420    486.346    524.837    486.346    490.927    486.346
 80.270    514.000    536.151    -22.151    486.277    531.619    486.277    490.807    486.277
 80.370    540.509    544.656     -4.148    486.207    540.174    486.207    490.688    486.207
 80.470    524.000    555.281    -31.281    486.135    550.847    486.135    490.570    486.135
 80.570    612.000    568.303     43.697    486.062    563.917    486.062    490.451    486.062
 80.670    586.000    583.835      2.165    485.986    579.495    485.986    490.333    485.986
 80.770    572.000    601.732    -29.732    485.910    597.439    485.910    490.214    485.910
 80.870    579.735    621.538    -41.802    485.832    617.290    485.832    490.095    485.832
 80.970    630.469    642.466    -11.997    485.752    638.264    485.752    489.975    485.752
 81.070    625.089    663.452    -38.363    485.671    659.296    485.671    489.854    485.671
 81.170    677.000    683.282     -6.282    485.588    679.172    485.588    489.732    485.588
 81.270    686.676    700.764    -14.088    485.503    696.699    485.503    489.610    485.503
 81.370    741.285    714.880     26.406    485.417    710.858    485.417    489.486    485.417
 81.470    690.000    724.861    -34.861    485.329    720.883    485.329    489.362    485.329
 81.570    776.998    730.235     46.763    485.240    726.299    485.240    489.237    485.240
 81.670    695.239    730.846    -35.607    485.149    726.950    485.149    489.112    485.149
 81.770    736.000    726.816      9.184    485.057    722.957    485.057    488.986    485.057
 81.870    691.000    718.489    -27.489    484.963    714.665    484.963    488.860    484.963
 81.970    696.160    706.434    -10.274    484.867    702.643    484.867    488.733    484.867
 82.070    672.000    691.483    -19.483    484.770    687.722    484.770    488.606    484.770
 82.170    626.891    674.664    -47.773    484.671    670.928    484.671    488.479    484.671
 82.270    683.000    657.002     25.998    484.571    653.290    484.571    488.352    484.571
 82.370    634.000    639.325     -5.325    484.468    635.635    484.468    488.225    484.468
 82.470    596.000    622.187    -26.187    484.365    618.516    484.365    488.097    484.365
 82.570    623.780    605.930     17.849    484.259    602.275    484.259    487.970    484.259
 82.670    583.018    590.806     -7.789    484.152    587.166    484.152    487.842    484.152
 82.770    597.000    577.061     19.939    484.044    573.433    484.044    487.715    484.044
 82.870    571.000    564.941      6.059    483.934    561.324    483.934    487.587    483.934
 82.970    537.000    554.670    -17.670    483.822    551.061    483.822    487.459    483.822
 83.070    502.045    546.413    -44.368    483.708    542.811    483.708    487.331    483.708
 83.170    523.000    540.263    -17.263    483.593    536.666    483.593    487.202    483.593
 83.270    555.000    536.239     18.761    483.476    532.646    483.476    487.074    483.476
 83.370    558.842    534.277     24.565    483.358    530.686    483.358    486.945    483.358
 83.470    531.597    534.222     -2.625    483.238    530.633    483.238    486.816    483.238
 83.570    501.000    535.823    -34.823    483.116    532.233    483.116    486.687    483.116
 83.670    513.000    538.727    -25.727    482.993    535.136    482.993    486.557    482.993
 83.770    530.000    542.487    -12.487    482.868    538.896    482.868    486.427    482.868
 83.870    522.000    546.578    -24.578    482.741    542.984    482.741    486.296    482.741
 83.970    570.000    550.414     19.586    482.613    546.818    482.613    486.166    482.613
 84.070    547.000    553.403     -6.403    482.483    549.806    482.483    486.034    482.483
 84.170    532.000    555.015    -23.015    482.351    551.417    482.351    485.903    482.351
 84.270    512.417    554.892    -42.475    482.218    551.293    482.218    485.770    482.218
 84.370    516.000    552.930    -36.930    482.083    549.331    482.083    485.638    482.083
 84.470    565.917    549.300     16.617    481.947    545.701    481.947    485.505    481.947
 84.570    504.994    544.378    -39.384    481.808    540.780    481.808    485.371    481.808
 84.670    498.267    538.634    -40.367    481.669    535.035    481.669    485.237    481.669
 84.770    527.000    532.537     -5.537    481.527    528.936    481.527    485.103    481.527
 84.870    521.000    526.497     -5.497    481.384    522.892    481.384    484.968    481.384
 84.970    542.906    520.837     22.068    481.239    517.228    481.239    484.832    481.239
 85.070    486.000    515.785    -29.785    481.093    512.168    481.093    484.696    481.093
 85.170    543.637    511.472     32.165    480.945    507.846    480.945    484.559    480.945
 85.270    521.000    507.946     13.054    480.795    504.310    480.795    484.422    480.795
 85.370    541.662    505.189     36.473    480.643    501.541    480.643    484.285    480.643
 85.470    516.000    503.141     12.859    480.490    499.479    480.490    484.147    480.490
 85.570    499.000    501.719     -2.719    480.336    498.041    480.336    484.008    480.336
 85.670    462.000    500.837    -38.837    480.179    497.142    480.179    483.869    480.179
 85.770    495.000    500.426     -5.426    480.021    496.712    480.021    483.730    480.021
 85.870    496.000    500.440     -4.440    479.862    496.705    479.862    483.590    479.862
 85.970    471.978    500.867    -28.889    479.700    497.111    479.700    483.450    479.700
 86.070    493.645    501.731     -8.087    479.537    497.951    479.537    483.310    479.537
 86.170    470.000    503.092    -33.092    479.373    499.286    479.373    483.169    479.373
 86.270    507.677    505.045      2.633    479.207    501.211    479.207    483.028    479.207
 86.370    509.000    507.710      1.290    479.039    503.846    479.039    482.886    479.039
 86.470    518.000    511.226      6.774    478.869    507.329    478.869    482.745    478.869
 86.570    499.780    515.732    -15.952    478.698    511.801    478.698    482.603    478.698
 86.670    551.531    521.350     30.182    478.526    517.381    478.526    482.461    478.526
 86.770    554.578    528.155     26.423    478.351    524.147    478.351    482.319    478.351
 86.870    567.144    536.153     30.991    478.175    532.102    478.175    482.177    478.175
 86.970    514.498    545.248    -30.750    477.998    541.152    477.998    482.035    477.998
 87.070    610.000    555.220     54.780    477.818    551.076    477.818    481.893    477.818
 87.170    597.152    565.708     31.444    477.638    561.514    477.638    481.751    477.638
 87.270    594.000    576.200     17.800    477.455    571.956    477.455    481.610    477.455
 87.370    605.000    586.044     18.956    477.271    581.749    477.271    481.469    477.271
 87.470    601.383    594.482      6.900    477.085    590.136    477.085    481.328    477.085
 87.570    609.000    600.742      8.258    476.898    596.346    476.898    481.187    476.898
 87.670    621.000    604.189     16.811    476.709    599.745    476.709    481.048    476.709
 87.770    621.634    604.501     17.133    476.519    600.010    476.519    480.909    476.519
 87.870    644.000    601.767     42.233    476.327    597.230    476.327    480.770    476.327
 87.970    650.000    596.456     53.544    476.133    591.873    476.133    480.633    476.133
 88.070    627.000    589.285     37.715    475.938    584.655    475.938    480.497    475.938
 88.170    570.000    581.072    -11.072    475.741    576.393    475.741    480.362    475.741
 88.270    587.653    572.631     15.023    475.543    567.899    475.543    480.228    475.543
 88.370    513.000    564.702    -51.702    475.343    559.915    475.343    480.096    475.343
 88.470    565.259    557.909      7.350    475.141    553.062    475.141    479.965    475.141
 88.570    573.953    552.721     21.232    474.938    547.810    474.938    479.837    474.938
 88.670    548.504    549.441     -0.937    474.734    544.461    474.734    479.711    474.734
 88.770    520.000    548.185    -28.185    474.528    543.132    474.528    479.587    474.528
 88.870    596.000    548.898     47.102    474.320    543.766    474.320    479.465    474.320
 88.970    554.000    551.358      2.642    474.111    546.144    474.111    479.347    474.111
 89.070    569.000    555.201     13.799    473.900    549.900    473.900    479.231    473.900
 89.170    560.000    559.944      0.056    473.688    554.549    473.688    479.119    473.688
 89.270    543.000    565.004    -22.004    473.474    559.511    473.474    479.011    473.474
 89.370    583.000    569.741     13.259    473.259    564.144    473.259    478.907    473.259
 89.470    561.000    573.506    -12.506    473.042    567.798    473.042    478.808    473.042
 89.570    651.000    575.716     75.284    472.824    569.889    472.824    478.713    472.824
 89.670    592.018    575.959     16.059    472.604    570.004    472.604    478.624    472.604
 89.770    615.643    574.077     41.566    472.383    567.985    472.383    478.540    472.383
 89.870    553.000    570.197    -17.197    472.160    563.958    472.160    478.463    472.160
 89.970    567.000    564.670      2.330    471.936    558.275    471.936    478.392    471.936
 90.070    553.000    557.977     -4.977    471.710    551.415    471.710    478.328    471.710
 90.170    532.000    550.625    -18.625    471.483    543.887    471.483    478.271    471.483
 90.270    548.000    543.085      4.915    471.255    536.161    471.255    478.223    471.255
 90.370    533.248    535.756     -2.508    471.025    528.635    471.025    478.183    471.025
 90.470    497.000    528.946    -31.946    470.793    521.619    470.793    478.153    470.793
 90.570    510.000    522.876    -12.876    470.560    515.330    470.560    478.132    470.560
 90.670    508.000    517.673     -9.673    470.326    509.899    470.326    478.121    470.326
 90.770    529.621    513.391     16.231    470.091    505.376    470.091    478.121    470.091
 90.870    528.000    510.017     17.983    469.854    501.750    469.854    478.133    469.854
 90.970    545.896    507.499     38.397    469.615    498.967    469.615    478.156    469.615
 91.070    473.000    505.756    -32.756    469.375    496.946    469.375    478.192    469.375
 91.170    508.708    504.705      4.003    469.134    495.603    469.134    478.241    469.134
 91.270    517.000    504.271     12.729    468.892    494.862    468.892    478.303    468.892
 91.370    519.012    504.401     14.611    468.648    494.671    468.648    478.379    468.648
 91.470    527.000    505.072     21.928    468.403    495.006    468.403    478.469    468.403
 91.570    526.000    506.297     19.703    468.156    495.879    468.156    478.573    468.156
 91.670    553.000    508.124     44.876    467.908    497.337    467.908    478.692    467.908
 91.770    490.000    510.628    -20.628    467.659    499.458    467.659    478.825    467.659
 91.870    485.000    513.970    -28.970    467.408    502.401    467.408    478.972    467.408
 91.970    555.275    518.282     36.994    467.157    506.298    467.157    479.132    467.157
 92.070    541.000    523.730     17.270    466.904    511.318    466.904    479.305    466.904
 92.170    535.000    530.489      4.511    466.649    517.635    466.649    479.489    466.649
 92.270    544.000    538.720      5.280    466.394    525.413    466.394    479.683    466.394
 92.370    551.000    548.558      2.442    466.137    534.788    466.137    479.884    466.137
 92.470    541.000    560.088    -19.088    465.879    545.849    465.879    480.090    465.879
 92.570    596.000    573.329     22.671    465.620    558.616    465.620    480.298    465.620
 92.670    587.000    588.217     -1.217    465.359    573.031    465.359    480.505    465.359
 92.770    617.363    604.590     12.773    465.098    588.937    465.098    480.704    465.098
 92.870    597.498    622.181    -24.683    464.835    606.070    464.835    480.893    464.835
 92.970    615.000    640.609    -25.609    464.571    624.057    464.571    481.065    464.571
 93.070    620.000    659.391    -39.391    464.305    642.420    464.305    481.214    464.305
 93.170    733.000    677.983     55.017    464.039    660.620    464.039    481.335    464.039
 93.270    745.729    695.830     49.900    463.772    678.111    463.772    481.421    463.772
 93.370    750.960    712.485     38.475    463.503    694.450    463.503    481.467    463.503
 93.470    726.000    727.702     -1.702    463.233    709.396    463.233    481.468    463.233
 93.570    792.000    741.469     50.531    462.963    722.943    462.963    481.419    462.963
 93.670    716.119    753.964    -37.844    462.691    735.269    462.691    481.317    462.691
 93.770    771.000    765.437      5.563    462.418    746.628    462.418    481.161    462.418
 93.870    728.690    776.111    -47.421    462.144    757.242    462.144    480.949    462.144
 93.970    819.000    786.138     32.862    461.869    767.264    461.869    480.683    461.869
 94.070    802.901    795.627      7.273    461.593    776.798    461.593    480.365    461.593
 94.170    857.032    804.708     52.324    461.315    785.970    461.315    479.999    461.315
 94.270    834.000    813.563     20.437    461.037    794.959    461.037    479.590    461.037
 94.370    864.000    822.382     41.618    460.758    803.950    460.758    479.143    460.758
 94.470    801.492    831.249    -29.757    460.478    813.018    460.478    478.665    460.478
 94.570    863.000    840.015     22.985    460.197    822.011    460.197    478.162    460.197
 94.670    876.000    848.222     27.778    459.915    830.462    459.915    477.640    459.915
 94.770    841.585    855.080    -13.496    459.632    837.578    459.632    477.105    459.632
 94.870    830.000    859.634    -29.634    459.349    842.395    459.349    476.564    459.349
 94.970    846.000    860.839    -14.839    459.064    843.866    459.064    476.020    459.064
 95.070    872.000    857.718     14.282    458.778    841.007    458.778    475.480    458.778
 95.170    888.000    849.676     38.324    458.492    833.220    458.492    474.947    458.492
 95.270    863.000    836.670     26.330    458.205    820.455    458.205    474.424    458.205
 95.370    861.000    819.230     41.770    457.917    803.242    457.917    473.915    457.917
 95.470    823.000    798.402     24.598    457.628    782.622    457.628    473.422    457.628
 95.570    814.000    775.573     38.427    457.338    759.981    457.338    472.948    457.338
 95.670    764.725    752.299     12.426    457.048    736.872    457.048    472.493    457.048
 95.770    741.000    730.174     10.826    456.757    714.888    456.757    472.061    456.757
 95.870    726.000    710.742     15.258    456.465    695.572    456.465    471.650    456.465
 95.970    678.000    695.441    -17.441    456.172    680.362    456.172    471.264    456.172
 96.070    679.000    685.571     -6.571    455.879    670.556    455.879    470.902    455.879
 96.170    691.000    682.264      8.736    455.585    667.287    455.585    470.565    455.585
 96.270    709.000    686.467     22.533    455.290    671.500    455.290    470.254    455.290
 96.370    670.000    698.925    -28.925    454.995    683.941    454.995    469.969    454.995
 96.470    733.177    720.161     13.016    454.699    705.131    454.699    469.712    454.699
 96.570    765.973    750.448     15.525    454.402    735.344    454.402    469.482    454.402
 96.670    812.000    789.771     22.229    454.105    774.563    454.105    469.281    454.105
 96.770    805.720    837.774    -32.054    453.807    822.435    453.807    469.109    453.807
 96.870    866.000    893.710    -27.710    453.509    878.208    453.509    468.967    453.509
 96.970    987.000    956.377     30.623    453.210    940.684    453.210    468.855    453.210
 97.070   1071.000   1024.083     46.917    452.911   1008.168    452.911    468.775    452.911
 97.170   1133.894   1094.619     39.276    452.611   1078.451    452.611    468.727    452.611
 97.270   1200.000   1165.259     34.741    452.311   1148.808    452.311    468.713    452.311
 97.370   1202.000   1232.808    -30.808    452.010   1216.041    452.010    468.733    452.010
 97.470   1242.671   1293.712    -51.040    451.709   1276.596    451.709    468.789    451.709
 97.570   1360.000   1344.298     15.702    451.407   1326.799    451.407    468.883    451.407
 97.670   1391.376   1381.166     10.209    451.105   1363.249    451.105    469.015    451.105
 97.770   1363.078   1401.713    -38.635    450.803   1383.339    450.803    469.187    450.803
 97.870   1405.000   1404.624      0.376    450.500   1385.752    450.500    469.401    450.500
 97.970   1389.000   1390.137     -1.137    450.197   1370.722    450.197    469.658    450.197
 98.070   1347.000   1359.944    -12.944    449.894   1339.940    449.894    469.960    449.894
 98.170   1270.756   1316.810    -46.054    449.590   1296.166    449.590    470.309    449.590
 98.270   1220.647   1264.079    -43.432    449.286   1242.743    449.286    470.706    449.286
 98.370   1255.000   1205.310     49.690    448.982   1183.228    448.982    471.153    448.982
 98.470   1088.427   1143.953    -55.527    448.678   1121.068    448.678    471.653    448.678
 98.570   1078.000   1083.181     -5.181    448.373   1059.436    448.373    472.207    448.373
 98.670    981.000   1025.826    -44.826    448.068   1001.162    448.068    472.816    448.068
 98.770    982.881    974.336      8.545    447.764    948.694    447.764    473.482    447.764
 98.870    882.000    930.776    -48.776    447.459    904.096    447.459    474.207    447.459
 98.970    895.000    896.832     -1.832    447.154    869.054    447.154    474.992    447.154
 99.070    879.000    873.835      5.165    446.849    844.897    446.849    475.837    446.849
 99.170    878.893    862.773     16.120    446.543    832.614    446.543    476.745    446.543
 99.270    804.000    864.319    -60.319    446.238    832.879    446.238    477.713    446.238
 99.370    904.848    878.850     25.998    445.933    846.067    445.933    478.744    445.933
 99.470    915.752    906.460      9.292    445.628    872.277    445.628    479.835    445.628
 99.570    950.000    946.966      3.034    445.323    911.327    445.323    480.984    445.323
 99.670   1016.000    999.895     16.105    445.018    962.746    445.018    482.189    445.018
 99.770   1036.000   1064.454    -28.454    444.713   1025.747    444.713    483.446    444.713
 99.870   1124.000   1139.493    -15.493    444.408   1099.183    444.408    484.750    444.408
 99.970   1254.344   1223.459     30.885    444.104   1181.511    444.104    486.094    444.104
100.070   1272.000   1314.360    -42.360    443.799   1270.747    443.799    487.468    443.799
100.170   1427.000   1409.742     17.258    443.495   1364.447    443.495    488.863    443.495
100.270   1475.128   1506.713    -31.585    443.191   1459.732    443.191    490.265    443.191
100.370   1651.704   1602.038     49.665    442.887   1553.383    442.887    491.660    442.887
100.470   1677.000   1692.331    -15.331    442.584   1642.029    442.584    493.029    442.584
100.570   1698.999   1774.312    -75.312    442.281   1722.410    442.281    494.353    442.281
100.670   1931.000   1845.075     85.925    441.978   1791.641    441.978    495.611    441.978
100.770   1905.000   1902.245      2.755    441.676   1847.367    441.676    496.780    441.676
100.870   1834.000   1943.984   -109.984    441.374   1887.774    441.374    497.834    441.374
100.970   1969.000   1968.904      0.096    441.072   1911.498    441.072    498.749    441.072
101.070   1948.805   1976.018    -27.213    440.771   1917.576    440.771    499.502    440.771
101.170   2003.940   1964.861     39.079    440.471   1905.562    440.471    500.071    440.471
101.270   1927.000   1935.768     -8.768    440.170   1875.811    440.170    500.437    440.170
101.370   1964.811   1890.168     74.643    439.871   1829.765    439.871    500.585    439.871
101.470   1902.868   1830.678     72.190    439.572   1770.054    439.572    500.506    439.572
101.570   1809.120   1760.898     48.222    439.274   1700.279    439.274    500.194    439.274
101.670   1655.000   1684.932    -29.932    438.976   1624.545    438.976    499.651    438.976
101.770   1616.000   1606.861      9.139    438.679   1546.929    438.679    498.885    438.679
101.870   1565.000   1530.327     34.673    438.382   1471.058    438.382    497.907    438.382
101.970   1447.000   1458.262    -11.262    438.087   1399.851    438.087    496.734    438.087
102.070   1323.000   1392.773    -69.773    437.792   1335.395    437.792    495.388    437.792
102.170   1326.000   1335.118     -9.118    437.498   1278.926    437.498    493.890    437.498
102.270   1345.826   1285.740     60.086    437.204   1230.864    437.204    492.266    437.204
102.370   1221.000   1244.322    -23.322    436.912   1190.866    436.912    490.539    436.912
102.470   1148.000   1209.898    -61.898    436.620   1157.944    436.620    488.733    436.620
102.570   1196.000   1180.975     15.025    436.330   1130.584    436.330    486.872    436.330
102.670   1121.000   1155.658    -34.658    436.040   1106.867    436.040    484.976    436.040
102.770   1156.000   1131.900     24.100    435.751   1084.728    435.751    483.064    435.751
102.870   1080.000   1107.755    -27.755    435.464   1062.204    435.464    481.152    435.464
102.970   1096.000   1081.637     14.363    435.177   1037.693    435.177    479.254    435.177
103.070   1089.000   1052.517     36.483    434.891   1010.156    434.891    477.383    434.891
103.170   1005.307   1020.005    -14.698    434.607    979.191    434.607    475.548    434.607
103.270    980.000    984.289     -4.289    434.323    944.979    434.323    473.756    434.323
103.370    911.000    945.988    -34.988    434.041    908.131    434.041    472.015    434.041
103.470    951.000    905.965     45.035    433.760    869.507    433.760    470.329    433.760
103.570    869.000    865.187      3.813    433.481    830.069    433.481    468.701    433.481
103.670    830.000    824.606      5.394    433.202    790.770    433.202    467.133    433.202
103.770    786.000    785.101      0.899    432.925    752.484    432.925    465.628    432.925
103.870    790.833    747.429     43.404    432.649    715.970    432.649    464.185    432.649
103.970    725.000    712.203     12.797    432.375    681.842    432.375    462.804    432.375
104.070    675.000    679.881     -4.881    432.102    650.557    432.102    461.486    432.102
104.170    629.000    650.758    -21.758    431.830    622.411    431.830    460.229    431.830
104.270    614.234    624.976    -10.742    431.560    597.549    431.560    459.032    431.560
104.370    596.000    602.540     -6.540    431.292    575.976    431.292    457.894    431.292
104.470    574.000    583.338     -9.338    431.025    557.582    431.025    456.813    431.025
104.570    599.000    567.171     31.829    430.760    542.170    430.760    455.787    430.760
104.670    586.000    553.780     32.220    430.496    529.483    430.496    454.815    430.496
104.770    570.000    542.874     27.126    430.234    519.232    430.234    453.894    430.234
104.870    508.000    534.156    -26.156    429.974    511.121    429.974    453.023    429.974
104.970    536.000    527.340      8.660    429.715    504.866    429.715    452.200    429.715
105.070    537.000    522.165     14.835    429.458    500.210    429.458    451.423    429.458
105.170    489.944    518.412    -28.467    429.203    496.932    429.203    450.689    429.203
105.270    484.926    515.898    -30.972    428.950    494.855    428.950    449.998    428.950
105.370    526.810    514.489     12.321    428.699    493.844    428.699    449.347    428.699
105.470    510.000    514.090     -4.090    428.450    493.806    428.450    448.734    428.450
105.570    553.991    514.646     39.344    428.203    494.689    428.203    448.159    428.203
105.670    499.875    516.137    -16.262    427.958    496.473    427.958    447.618    427.958
105.770    539.622    518.567     21.055    427.714    499.164    427.714    447.112    427.714
105.870    581.000    521.963     59.037    427.473    502.791    427.473    446.638    427.473
105.970    564.000    526.366     37.634    427.234    507.396    427.234    446.195    427.234
106.070    559.000    531.818     27.182    426.998    513.022    426.998    445.781    426.998
106.170    563.033    538.355     24.678    426.763    519.706    426.763    445.397    426.763
106.270    564.000    545.992     18.008    426.531    527.465    426.531    445.040    426.531
106.370    554.000    554.713     -0.713    426.301    536.283    426.301    444.710    426.301
106.470    538.812    564.464    -25.652    426.074    546.108    426.074    444.406    426.074
106.570    593.000    575.144     17.856    425.848    556.839    425.848    444.126    425.848
106.670    584.000    586.600     -2.600    425.626    568.324    425.626    443.872    425.626
106.770    622.000    598.629     23.371    425.405    580.361    425.405    443.641    425.405
106.870    608.000    610.979     -2.979    425.188    592.698    425.188    443.433    425.188
106.970    611.000    623.349    -12.349    424.972    605.035    424.972    443.249    424.972
107.070    624.966    635.404    -10.438    424.760    617.039    424.760    443.087    424.760
107.170    620.000    646.784    -26.784    424.550    628.347    424.550    442.947    424.550
107.270    612.608    657.126    -44.518    424.343    638.599    424.343    442.830    424.343
107.370    631.000    666.093    -35.093    424.138    647.457    424.138    442.735    424.138
107.470    661.305    673.420    -12.115    423.936    654.657    423.936    442.663    423.936
107.570    724.785    678.951     45.834    423.737    660.042    423.737    442.612    423.737
107.670    697.000    682.674     14.326    423.541    663.601    423.541    442.585    423.541
107.770    622.000    684.729    -62.729    423.348    665.471    423.348    442.580    423.348
107.870    712.000    685.396     26.604    423.158    665.934    423.158    442.598    423.158
107.970    717.322    685.036     32.286    422.971    665.350    422.971    442.639    422.971
108.070    669.000    684.049    -15.049    422.787    664.118    422.787    442.705    422.787
108.170    654.000    682.823    -28.823    422.606    662.625    422.606    442.795    422.606
108.270    702.573    681.691     20.882    422.428    661.205    422.428    442.911    422.428
108.370    677.000    680.910     -3.910    422.253    660.112    422.253    443.052    422.253
108.470    692.877    680.639     12.238    422.082    659.506    422.082    443.220    422.082
108.570    633.689    680.934    -47.244    421.913    659.441    421.913    443.416    421.913
108.670    678.290    681.739     -3.448    421.749    659.861    421.749    443.641    421.749
108.770    699.818    682.896     16.922    421.587    660.606    421.587    443.895    421.587
108.870    676.000    684.163     -8.163    421.429    661.434    421.429    444.180    421.429
108.970    653.000    685.201    -32.201    421.274    662.004    421.274    444.497    421.274
109.070    649.000    685.627    -36.627    421.123    661.932    421.123    444.847    421.123
109.170    678.000    685.053     -7.053    420.976    660.828    420.976    445.232    420.976
109.270    676.000    683.132     -7.132    420.832    658.344    420.832    445.654    420.832
109.370    668.000    679.613    -11.613    420.692    654.228    420.692    446.113    420.692
109.470    713.139    674.381     38.758    420.555    648.362    420.555    446.612    420.555
109.570    675.315    667.468      7.847    420.423    640.776    420.423    447.152    420.423
109.670    649.396    659.042     -9.645    420.294    631.638    420.294    447.736    420.294
109.770    666.253    649.372     16.881    420.169    621.214    420.169    448.364    420.169
109.870    626.943    638.786    -11.843    420.047    609.830    420.047    449.040    420.047
109.970    638.000    627.635     10.365    419.930    597.834    419.930    449.764    419.930
110.070    582.528    616.259    -33.731    419.817    585.567    419.817    450.541    419.817
110.170    655.000    604.975     50.025    419.708    573.341    419.708    451.371    419.708
110.270    632.000    594.064     37.936    419.603    561.437    419.603    452.257    419.603
110.370    605.663    583.764     21.899    419.502    550.088    419.502    453.202    419.502
110.470    585.000    574.268     10.732    419.406    539.487    419.406    454.208    419.406
110.570    542.891    565.724    -22.833    419.314    529.778    419.314    455.277    419.314
110.670    581.630    558.233     23.397    419.226    521.062    419.226    456.412    419.226
110.770    561.934    551.855     10.079    419.142    513.393    419.142    457.617    419.142
110.870    589.380    546.610     42.770    419.063    506.791    419.063    458.892    419.063
110.970    530.000    542.484    -12.484    418.989    501.239    418.989    460.242    418.989
111.070    550.000    539.436     10.564    418.919    496.692    418.919    461.669    418.919
111.170    547.000    537.403      9.597    418.853    493.087    418.853    463.175    418.853
111.270    532.000    536.309     -4.309    418.793    490.342    418.793    464.762    418.793
111.370    553.145    536.065     17.081    418.736    488.368    418.736    466.434    418.736
111.470    542.000    536.582      5.418    418.685    487.074    418.685    468.193    418.685
111.570    530.000    537.773     -7.773    418.639    486.370    418.639    470.041    418.639
111.670    524.578    539.554    -14.976    418.597    486.169    418.597    471.980    418.597
111.770    556.586    541.845     14.740    418.561    486.391    418.561    474.013    418.561
111.870    499.000    544.579    -45.579    418.529    486.965    418.529    476.139    418.529
111.970    553.000    547.696      5.304    418.502    487.833    418.502    478.362    418.502
112.070    567.161    551.148     16.013    418.481    488.943    418.481    480.681    418.481
112.170    571.248    554.897     16.351    418.465    490.259    418.465    483.098    418.465
112.270    513.000    558.920    -45.920    418.454    491.756    418.454    485.612    418.454
112.370    576.000    563.202     12.798    418.448    493.422    418.448    488.222    418.448
112.470    537.000    567.742    -30.742    418.447    495.257    418.447    490.927    418.447
112.570    579.000    572.551      6.449    418.452    497.273    418.452    493.725    418.452
112.670    546.000    577.652    -31.652    418.463    499.497    418.463    496.612    418.463
112.770    579.161    583.078     -3.916    418.478    501.967    418.478    499.584    418.478
112.870    541.000    588.877    -47.877    418.500    504.736    418.500    502.635    418.500
112.970    593.000    595.111     -2.111    418.527    507.875    418.527    505.758    418.527
113.070    588.000    601.864    -13.864    418.560    511.475    418.560    508.943    418.560
113.170    616.000    609.244      6.756    418.598    515.654    418.598    512.181    418.598
113.270    572.010    617.391    -45.382    418.643    520.568    418.643    515.459    418.643
113.370    649.000    626.489     22.511    418.693    526.411    418.693    518.762    418.693
113.470    608.202    636.773    -28.571    418.749    533.440    418.749    522.073    418.749
113.570    621.000    648.549    -27.549    418.811    541.976    418.811    525.372    418.811
113.670    628.000    662.203    -34.203    418.880    552.429    418.880    528.639    418.880
113.770    622.000    678.224    -56.224    418.954    565.312    418.954    531.849    418.954
113.870    677.000    697.222    -20.222    419.035    581.259    419.035    534.976    419.035
113.970    697.000    719.940    -22.940    419.121    601.043    419.121    537.992    419.121
114.070    714.000    747.244    -33.244    419.215    625.558    419.215    540.868    419.215
114.170    818.000    780.309     37.691    419.314    656.010    419.314    543.573    419.314
114.270    750.000    820.369    -70.369    419.420    693.663    419.420    546.076    419.420
114.370    813.135    868.883    -55.749    419.532    740.006    419.532    548.346    419.532
114.470    881.000    927.508    -46.508    419.651    796.727    419.651    550.355    419.651
114.570    930.000    998.078    -68.078    419.777    865.685    419.777    552.076    419.777
114.670   1027.000   1082.572    -55.572    419.909    948.884    419.909    553.483    419.909
114.770   1183.000   1183.074     -0.074    420.048   1048.427    420.048    554.559    420.048
114.870   1313.000   1301.700     11.300    420.194   1166.446    420.194    555.287    420.194
114.970   1502.000   1440.521     61.479    420.347   1305.022    420.347    555.658    420.347
115.070   1661.000   1601.461     59.539    420.507   1466.081    420.507    555.668    420.507
115.170   1823.000   1786.176     36.824    420.674   1651.280    420.674    555.319    420.674
115.270   2121.000   1995.925    125.075    420.848   1861.869    420.848    554.620    420.848
115.370   2312.000   2231.436     80.564    421.029   2098.563    421.029    553.585    421.029
115.470   2504.000   2492.767     11.233    421.217   2361.404    421.217    552.232    421.217
115.570   2866.000   2779.180     86.820    421.412   2649.630    421.412    550.585    421.412
115.670   3089.192   3089.030      0.161    421.615   2961.572    421.615    548.670    421.615
115.770   3467.000   3419.680     47.320    421.826   3294.566    421.826    546.515    421.826
115.870   3663.283   3767.447   -104.164    422.044   3644.899    422.044    544.152    422.044
115.970   4141.397   4127.585     13.812    422.269   4007.796    422.269    541.610    422.269
116.070   4325.000   4494.312   -169.312    422.502   4377.447    422.502    538.922    422.502
116.170   4816.000   4860.875    -44.875    422.743   4747.068    422.743    536.117    422.743
116.270   5114.000   5219.661   -105.661    422.991   5109.021    422.991    533.223    422.991
116.370   5634.000   5562.360     71.640    423.248   5454.969    423.248    530.268    423.248
116.470   5975.000   5880.191     94.809    423.512   5776.106    423.512    527.275    423.512
116.570   6139.000   6164.194    -25.194    423.784   6063.450    423.784    524.268    423.784
116.670   6538.000   6405.627    132.373    424.065   6308.238    424.065    521.266    424.065
116.770   6564.000   6596.447    -32.447    424.353   6502.410    424.353    518.287    424.353
116.870   6663.000   6729.876    -66.876    424.650   6639.166    424.650    515.346    424.650
116.970   6795.000   6800.964     -5.964    424.955   6713.543    424.955    512.457    424.955
117.070   6880.000   6807.068     72.932    425.268   6722.882    425.268    509.631    425.268
117.170   6716.000   6748.128    -32.128    425.590   6667.110    425.590    506.878    425.590
117.270   6663.686   6626.665     37.021    425.920   6548.735    425.920    504.204    425.920
117.370   6409.681   6447.508    -37.828    426.259   6372.578    426.259    501.617    426.259
117.470   6066.793   6217.321   -150.528    426.606   6145.295    426.606    499.121    426.606
117.570   5971.000   5944.027     26.973    426.962   5874.806    426.962    496.720    426.962
117.670   5518.000   5636.253   -118.253    427.327   5569.732    427.327    494.417    427.327
117.770   5203.000   5302.835    -99.835    427.701   5238.910    427.701    492.213    427.701
117.870   4862.000   4952.428    -90.428    428.084   4890.995    428.084    490.110    428.084
117.970   4676.000   4593.211     82.789    428.475   4534.164    428.475    488.108    428.475
118.070   4196.000   4232.657    -36.657    428.876   4175.894    428.876    486.206    428.876
118.170   3929.000   3877.382     51.618    429.286   3822.804    429.286    484.405    429.286
118.270   3567.005   3533.035     33.970    429.705   3480.544    429.705    482.703    429.705
118.370   3219.000   3204.246     14.754    430.134   3153.749    430.134    481.098    430.134
118.470   2971.000   2894.612     76.388    430.572   2846.018    430.572    479.589    430.572
118.570   2622.394   2606.732     15.662    431.019   2559.956    431.019    478.175    431.019
118.670   2252.936   2342.272    -89.336    431.476   2297.231    431.476    476.852    431.476
118.770   2015.477   2102.058    -86.581    431.943   2058.672    431.943    475.619    431.943
118.870   1880.000   1886.183     -6.183    432.419   1844.377    432.419    474.473    432.419
118.970   1650.489   1694.123    -43.634    432.905   1653.826    432.905    473.412    432.905
119.070   1484.000   1524.861    -40.861    433.401   1486.002    433.401    472.434    433.401
119.170   1441.903   1377.000     64.903    433.907   1339.514    433.907    471.535    433.907
119.270   1295.568   1248.881     46.687    434.423   1212.704    434.423    470.714    434.423
119.370   1186.000   1138.685     47.315    434.949   1103.757    434.949    469.967    434.949
119.470   1081.785   1044.525     37.259    435.485   1010.788    435.485    469.293    435.485
119.570    965.490    964.529      0.961    436.032    931.926    436.032    468.689    436.032
119.670    875.000    896.893    -21.893    436.588    865.371    436.588    468.151    436.588
119.770    820.487    839.935    -19.448    437.156    809.443    437.156    467.679    437.156
119.870    840.066    792.119     47.946    437.733    762.606    437.733    467.269    437.733
119.970    785.000    752.072     32.928    438.322    723.492    438.322    466.919    438.322
120.070    733.000    718.592     14.408    438.921    690.898    438.921    466.628    438.921
120.170    649.056    690.638    -41.582    439.531    663.787    439.531    466.392    439.531
120.270    673.000    667.326      5.674    440.151    641.277    440.151    466.209    440.151
120.370    632.394    647.914    -15.520    440.783    622.626    440.783    466.079    440.783
120.470    621.000    631.784    -10.784    441.425    607.218    441.425    465.998    441.425
120.570    649.000    618.425     30.575    442.079    594.547    442.079    465.965    442.079
120.670    610.932    607.422      3.509    442.744    584.196    442.744    465.977    442.744
120.770    580.000    598.435    -18.435    443.420    575.828    443.420    466.035    443.420
120.870    559.000    591.189    -32.189    444.107    569.170    444.107    466.135    444.107
120.970    590.000    585.460      4.540    444.806    563.999    444.806    466.276    444.806
121.070    551.300    581.066    -29.766    445.517    560.135    445.517    466.457    445.517
121.170    600.000    577.858     22.142    446.239    557.431    446.239    466.675    446.239
121.270    564.827    575.714    -10.887    446.972    555.766    446.972    466.931    446.972
121.370    555.000    574.526    -19.526    447.718    555.033    447.718    467.223    447.718
121.470    591.000    574.187     16.813    448.475    555.128    448.475    467.548    448.475
121.570    584.784    574.640     10.144    449.244    555.993    449.244    467.907    449.244
121.670    558.000    575.826    -17.826    450.026    557.571    450.026    468.297    450.026
121.770    586.000    577.657      8.343    450.819    559.776    450.819    468.718    450.819
121.870    560.000    580.062    -20.062    451.625    562.538    451.625    469.169    451.625
121.970    550.000    582.969    -32.969    452.443    565.786    452.443    469.649    452.443
122.070    541.044    586.304    -45.259    453.273    569.446    453.273    470.156    453.273
122.170    545.000    589.986    -44.986    454.116    573.439    454.116    470.690    454.116
122.270    596.000    593.933      2.067    454.971    577.684    454.971    471.250    454.971
122.370    578.000    598.055    -20.055    455.839    582.093    455.839    471.834    455.839
122.470    611.725    602.260      9.465    456.720    586.573    456.720    472.443    456.720
122.570    631.000    606.448     24.552    457.614    591.027    457.614    473.074    457.614
122.670    627.678    610.519     17.159    458.521    595.353    458.521    473.728    458.521
122.770    601.594    614.369    -12.775    459.440    599.451    459.440    474.403    459.440
122.870    642.000    617.897     24.103    460.373    603.219    460.373    475.098    460.373
122.970    659.000    621.007     37.993    461.319    606.561    461.319    475.813    461.319
123.070    602.912    623.609    -20.697    462.279    609.390    462.279    476.547    462.279
123.170    652.981    625.631     27.351    463.251    611.634    463.251    477.300    463.251
123.270    649.000    627.016     21.984    464.238    613.237    464.238    478.070    464.238
123.370    675.365    627.730     47.635    465.237    614.164    465.237    478.858    465.237
123.470    587.989    627.762    -39.773    466.251    614.406    466.251    479.662    466.251
123.570    628.000    627.121      0.879    467.278    613.972    467.278    480.482    467.278
123.670    596.066    625.839    -29.773    468.319    612.894    468.319    481.318    468.319
123.770    648.534    623.960     24.574    469.375    611.218    469.375    482.169    469.375
123.870    669.475    621.544     47.931    470.444    609.003    470.444    483.036    470.444
123.970    581.022    618.657    -37.635    471.527    606.316    471.527    483.917    471.527
124.070    673.000    615.369     57.631    472.625    603.227    472.625    484.814    472.625
124.170    628.507    611.753     16.754    473.737    599.808    473.737    485.725    473.737
124.270    610.000    607.880      2.120    474.863    596.133    474.863    486.652    474.863
124.370    556.000    603.822    -47.822    476.004    592.271    476.004    487.594    476.004
124.470    557.780    599.644    -41.864    477.160    588.289    477.160    488.551    477.160
124.570    647.000    595.407     51.593    478.330    584.247    478.330    489.523    478.330
124.670    578.000    591.167    -13.167    479.516    580.201    479.516    490.511    479.516
124.770    548.361    586.974    -38.613    480.716    576.201    480.716    491.516    480.716
124.870    624.000    582.869     41.131    481.931    572.288    481.931    492.536    481.931
124.970    568.000    578.888    -10.888    483.162    568.498    483.162    493.574    483.162
