neutron_powder_diffraction_0248
R_wp: 4.070
Temperature (K): 962.092
Counts: 83846.00
Wavelength (Ã…): 2.52098
COMMENTS
Test file for demonstrating the .xyy file format in Reel1.0
END OF HEADER
   tth       Y_obs     Y_calc      Y_res    Background    Phase_1_Nuc    Phase_1_Mag    Phase_2_Nuc    Phase_2_Mag
  9.970    619.000    559.104     59.896    558.422    559.075    558.422    558.451    558.422
 10.070    581.049    559.531     21.519    558.782    559.501    558.782    558.811    558.782
 10.170    654.000    559.947     94.053    559.133    559.918    559.133    559.162    559.133
 10.270    544.000    560.364    -16.364    559.475    560.335    559.475    559.504    559.475
 10.370    583.000    560.785     22.215    559.808    560.755    559.808    559.837    559.808
 10.470    526.208    561.211    -35.003    560.132    561.181    560.132    560.161    560.132
 10.570    632.000    561.646     70.354    560.447    561.616    560.447    560.476    560.447
 10.670    582.000    562.096     19.904    560.754    562.066    560.754    560.783    560.754
 10.770    552.000    562.567    -10.567    561.052    562.536    561.052    561.081    561.052
 10.870    575.000    563.067     11.933    561.341    563.036    561.341    561.371    561.341
 10.970    541.799    563.608    -21.809    561.622    563.577    561.622    561.652    561.622
 11.070    556.000    564.207     -8.207    561.895    564.176    561.895    561.925    561.895
 11.170    577.000    564.889     12.111    562.159    564.857    562.159    562.189    562.159
 11.270    603.519    565.691     37.828    562.415    565.657    562.415    562.447    562.415
 11.370    521.139    566.675    -45.537    562.663    566.641    562.663    562.695    562.663
 11.470    573.592    567.974      5.618    562.902    567.939    562.902    562.935    562.902
 11.570    606.168    569.938     36.231    563.134    569.901    563.134    563.167    563.134
 11.670    608.000    573.542     34.458    563.358    573.504    563.358    563.391    563.358
 11.770    618.000    581.092     36.908    563.573    581.049    563.573    563.607    563.573
 11.870    640.191    596.515     43.675    563.781    596.464    563.781    563.815    563.781
 11.970    610.000    623.475    -13.475    563.981    623.409    563.981    564.015    563.981
 12.070    684.000    660.090     23.910    564.174    660.003    564.174    564.208    564.174
 12.170    704.000    692.931     11.069    564.358    692.823    564.358    564.396    564.358
 12.270    628.000    700.836    -72.836    564.536    700.714    564.536    564.584    564.536
 12.370    635.560    676.898    -41.338    564.705    676.788    564.705    564.755    564.705
 12.470    615.000    639.410    -24.410    564.868    639.320    564.868    564.917    564.868
 12.570    586.000    607.570    -21.570    565.022    607.497    565.022    565.072    565.022
 12.670    591.000    587.776      3.224    565.170    587.714    565.170    565.220    565.170
 12.770    577.000    577.825     -0.825    565.311    577.768    565.311    565.361    565.311
 12.870    537.374    573.353    -35.979    565.444    573.298    565.444    565.495    565.444
 12.970    553.000    571.268    -18.268    565.570    571.214    565.570    565.621    565.570
 13.070    558.000    570.128    -12.128    565.689    570.073    565.689    565.742    565.689
 13.170    607.851    569.403     38.448    565.801    569.343    565.801    565.859    565.801
 13.270    558.334    568.896    -10.562    565.907    568.836    565.907    565.965    565.907
 13.370    553.042    568.532    -15.490    566.005    568.472    566.005    566.064    566.005
 13.470    524.000    568.266    -44.266    566.097    568.205    566.097    566.156    566.097
 13.570    570.000    568.068      1.932    566.182    568.007    566.182    566.241    566.182
 13.670    525.631    567.919    -42.288    566.260    567.858    566.260    566.320    566.260
 13.770    499.000    567.806    -68.806    566.332    567.745    566.332    566.392    566.332
 13.870    537.000    567.719    -30.719    566.397    567.658    566.397    566.458    566.397
 13.970    595.984    567.651     28.333    566.456    567.590    566.456    566.517    566.456
 14.070    604.000    567.597     36.403    566.509    567.535    566.509    566.570    566.509
 14.170    547.000    567.553    -20.553    566.555    567.491    566.555    566.617    566.555
 14.270    614.434    567.515     46.919    566.595    567.453    566.595    566.657    566.595
 14.370    541.000    567.482    -26.482    566.629    567.420    566.629    566.691    566.629
 14.470    565.656    567.453     -1.798    566.656    567.390    566.656    566.719    566.656
 14.570    525.000    567.428    -42.428    566.678    567.365    566.678    566.741    566.678
 14.670    531.000    567.400    -36.400    566.694    567.337    566.694    566.757    566.694
 14.770    541.000    567.372    -26.372    566.703    567.308    566.703    566.767    566.703
 14.870    576.000    567.343      8.657    566.707    567.279    566.707    566.771    566.707
 14.970    555.000    567.312    -12.312    566.705    567.247    566.705    566.770    566.705
 15.070    530.107    567.277    -37.171    566.697    567.212    566.697    566.762    566.697
 15.170    522.202    567.240    -45.038    566.684    567.175    566.684    566.749    566.684
 15.270    574.000    567.201      6.799    566.665    567.134    566.665    566.732    566.665
 15.370    535.000    567.160    -32.160    566.640    567.090    566.640    566.710    566.640
 15.470    530.678    567.113    -36.435    566.610    567.042    566.610    566.681    566.610
 15.570    599.658    567.063     32.595    566.574    566.991    566.574    566.646    566.574
 15.670    601.695    567.008     34.687    566.533    566.935    566.533    566.605    566.533
 15.770    541.000    566.949    -25.949    566.487    566.876    566.487    566.559    566.487
 15.870    539.000    566.887    -27.887    566.435    566.813    566.435    566.509    566.435
 15.970    567.000    566.820      0.180    566.378    566.746    566.378    566.452    566.378
 16.070    552.000    566.749    -14.749    566.316    566.674    566.316    566.391    566.316
 16.170    574.354    566.674      7.680    566.249    566.599    566.249    566.324    566.249
 16.270    569.727    566.594      3.133    566.177    566.519    566.177    566.252    566.177
 16.370    546.000    566.511    -20.511    566.099    566.435    566.099    566.175    566.099
 16.470    583.000    566.423     16.577    566.017    566.346    566.017    566.094    566.017
 16.570    609.000    566.331     42.669    565.930    566.254    565.930    566.007    565.930
 16.670    526.000    566.235    -40.235    565.838    566.157    565.838    565.916    565.838
 16.770    604.165    566.134     38.031    565.742    566.056    565.742    565.820    565.742
 16.870    599.121    566.029     33.092    565.640    565.951    565.640    565.719    565.640
 16.970    592.000    565.921     26.079    565.534    565.842    565.534    565.613    565.534
 17.070    549.000    565.808    -16.808    565.424    565.729    565.424    565.503    565.424
 17.170    587.000    565.694     21.306    565.309    565.613    565.309    565.389    565.309
 17.270    573.000    565.573      7.427    565.189    565.492    565.189    565.270    565.189
 17.370    554.000    565.447    -11.447    565.065    565.366    565.065    565.146    565.065
 17.470    530.000    565.318    -35.318    564.936    565.236    564.936    565.018    564.936
 17.570    570.000    565.186      4.814    564.804    565.102    564.804    564.887    564.804
 17.670    569.000    565.049      3.951    564.666    564.965    564.666    564.751    564.666
 17.770    544.765    564.908    -20.144    564.525    564.823    564.525    564.610    564.525
 17.870    578.000    564.763     13.237    564.380    564.677    564.380    564.465    564.380
 17.970    532.000    564.615    -32.615    564.230    564.528    564.230    564.316    564.230
 18.070    538.680    564.462    -25.782    564.076    564.375    564.076    564.163    564.076
 18.170    518.609    564.306    -45.696    563.918    564.218    563.918    564.006    563.918
 18.270    608.962    564.146     44.817    563.757    564.057    563.757    563.845    563.757
 18.370    543.000    563.982    -20.982    563.591    563.893    563.591    563.680    563.591
 18.470    563.403    563.817     -0.413    563.422    563.727    563.422    563.511    563.422
 18.570    560.000    563.647     -3.647    563.248    563.556    563.248    563.339    563.248
 18.670    582.000    563.473     18.527    563.071    563.382    563.071    563.162    563.071
 18.770    588.867    563.295     25.572    562.891    563.203    562.891    562.982    562.891
 18.870    557.169    563.114     -5.945    562.706    563.022    562.706    562.799    562.706
 18.970    597.000    562.930     34.070    562.518    562.837    562.518    562.611    562.518
 19.070    529.914    562.742    -32.828    562.326    562.648    562.326    562.420    562.326
 19.170    543.000    562.552    -19.552    562.131    562.457    562.131    562.226    562.131
 19.270    517.850    562.358    -44.508    561.933    562.263    561.933    562.028    561.933
 19.370    525.705    562.162    -36.457    561.731    562.065    561.731    561.827    561.731
 19.470    563.000    561.961      1.039    561.525    561.864    561.525    561.622    561.525
 19.570    555.000    561.761     -6.761    561.316    561.662    561.316    561.415    561.316
 19.670    552.294    561.577     -9.283    561.104    561.474    561.104    561.208    561.104
 19.770    557.000    561.376     -4.376    560.889    561.270    560.889    560.996    560.889
 19.870    581.880    561.166     20.714    560.671    561.058    560.671    560.779    560.671
 19.970    515.000    560.952    -45.952    560.449    560.843    560.449    560.558    560.449
 20.070    562.297    560.735      1.563    560.225    560.625    560.225    560.334    560.225
 20.170    566.000    560.515      5.485    559.997    560.405    559.997    560.108    559.997
 20.270    567.000    560.294      6.706    559.766    560.182    559.766    559.878    559.766
 20.370    521.551    560.069    -38.518    559.533    559.957    559.533    559.645    559.533
 20.470    519.057    559.843    -40.785    559.296    559.729    559.296    559.410    559.296
 20.570    593.000    559.614     33.386    559.057    559.499    559.057    559.171    559.057
 20.670    558.000    559.383     -1.383    558.814    559.267    558.814    558.930    558.814
 20.770    540.896    559.150    -18.254    558.569    559.032    558.569    558.687    558.569
 20.870    505.000    558.914    -53.914    558.322    558.796    558.322    558.440    558.322
 20.970    580.000    558.677     21.323    558.071    558.558    558.071    558.191    558.071
 21.070    527.000    558.438    -31.438    557.818    558.318    557.818    557.939    557.818
 21.170    590.587    558.198     32.389    557.563    558.076    557.563    557.685    557.563
 21.270    543.000    557.956    -14.956    557.305    557.833    557.305    557.428    557.305
 21.370    524.625    557.712    -33.087    557.044    557.588    557.044    557.168    557.044
 21.470    555.000    557.468     -2.468    556.781    557.342    556.781    556.907    556.781
 21.570    594.000    557.222     36.778    556.515    557.095    556.515    556.643    556.515
 21.670    573.000    556.975     16.025    556.247    556.847    556.247    556.376    556.247
 21.770    553.000    556.728     -3.728    555.977    556.598    555.977    556.107    555.977
 21.870    561.000    556.480      4.520    555.704    556.348    555.704    555.836    555.704
 21.970    583.576    556.232     27.344    555.430    556.099    555.430    555.563    555.430
 22.070    528.368    555.987    -27.619    555.153    555.852    555.153    555.288    555.153
 22.170    575.000    555.744     19.256    554.873    555.608    554.873    555.010    554.873
 22.270    522.548    555.520    -32.971    554.592    555.381    554.592    554.731    554.592
 22.370    567.000    555.358     11.642    554.309    555.218    554.309    554.449    554.309
 22.470    574.000    555.123     18.877    554.023    554.982    554.023    554.165    554.023
 22.570    555.000    554.888      0.112    553.736    554.744    553.736    553.880    553.736
 22.670    572.000    554.704     17.296    553.446    554.558    553.446    553.592    553.446
 22.770    510.000    554.534    -44.534    553.155    554.386    553.155    553.303    553.155
 22.870    534.000    554.314    -20.314    552.862    554.164    552.862    553.012    552.862
 22.970    554.000    554.096     -0.096    552.567    553.944    552.567    552.719    552.567
 23.070    564.000    553.887     10.113    552.270    553.733    552.270    552.425    552.270
 23.170    508.837    553.690    -44.853    551.971    553.534    551.971    552.128    551.971
 23.270    566.000    553.509     12.491    551.671    553.350    551.671    551.831    551.671
 23.370    566.000    553.348     12.652    551.369    553.186    551.369    551.531    551.369
 23.470    589.000    553.215     35.785    551.065    553.048    551.065    551.232    551.065
 23.570    581.000    553.115     27.885    550.760    552.944    550.760    550.931    550.760
 23.670    584.382    553.060     31.322    550.453    552.887    550.453    550.627    550.453
 23.770    585.512    553.069     32.442    550.144    552.893    550.144    550.322    550.144
 23.870    591.000    553.169     37.831    549.834    552.990    549.834    550.015    549.834
 23.970    557.066    553.405      3.661    549.523    553.223    549.523    549.707    549.523
 24.070    541.000    553.879    -12.879    549.210    553.694    549.210    549.398    549.210
 24.170    566.538    554.859     11.679    548.896    554.671    548.896    549.087    548.896
 24.270    541.000    557.052    -16.052    548.580    556.862    548.580    548.775    548.580
 24.370    608.000    562.016     45.984    548.263    561.826    548.263    548.462    548.263
 24.470    569.000    572.202     -3.202    547.945    572.015    547.945    548.149    547.945
 24.570    612.787    589.643     23.144    547.625    589.465    547.625    547.834    547.625
 24.670    626.000    612.789     13.211    547.305    612.623    547.305    547.518    547.305
 24.770    642.000    633.178      8.822    546.983    633.023    546.983    547.201    546.983
 24.870    642.000    637.904      4.096    546.660    637.747    546.660    546.883    546.660
 24.970    581.523    622.691    -41.168    546.336    622.518    546.336    546.565    546.336
 25.070    585.773    598.465    -12.692    546.010    598.267    546.010    546.245    546.010
 25.170    599.326    577.180     22.145    545.684    576.961    545.684    545.926    545.684
 25.270    605.647    563.275     42.372    545.357    563.039    545.357    545.605    545.357
 25.370    507.668    555.799    -48.131    545.029    555.550    545.029    545.284    545.029
 25.470    553.000    552.153      0.847    544.699    551.894    544.699    544.962    544.699
 25.570    581.000    550.281     30.719    544.369    550.013    544.369    544.641    544.369
 25.670    627.000    549.127     77.873    544.038    548.849    544.038    544.318    544.038
 25.770    547.000    548.288     -1.288    543.706    548.000    543.706    543.996    543.706
 25.870    590.621    547.625     42.996    543.374    547.326    543.374    543.673    543.374
 25.970    534.384    547.081    -12.697    543.040    546.771    543.040    543.351    543.040
 26.070    568.000    546.622     21.378    542.706    546.301    542.706    543.028    542.706
 26.170    571.000    546.231     24.769    542.371    545.897    542.371    542.706    542.371
 26.270    518.275    545.898    -27.622    542.036    545.549    542.036    542.384    542.036
 26.370    540.000    545.619     -5.619    541.699    545.255    541.699    542.063    541.699
 26.470    548.000    545.392      2.608    541.363    545.012    541.363    541.743    541.363
 26.570    562.000    545.254     16.746    541.025    544.856    541.025    541.423    541.025
 26.670    530.255    545.149    -14.894    540.687    544.732    540.687    541.105    540.687
 26.770    553.000    545.081      7.919    540.349    544.642    540.349    540.787    540.349
 26.870    550.404    545.085      5.319    540.010    544.623    540.010    540.472    540.010
 26.970    543.000    545.171     -2.171    539.670    544.682    539.670    540.159    539.670
 27.070    573.824    545.360     28.463    539.330    544.842    539.330    539.848    539.330
 27.170    565.000    545.688     19.312    538.990    545.137    538.990    539.540    538.990
 27.270    517.739    546.202    -28.463    538.649    545.615    538.649    539.236    538.649
 27.370    601.000    546.987     54.013    538.308    546.358    538.308    538.935    538.308
 27.470    547.840    548.162     -0.322    537.966    547.486    537.966    538.640    537.966
 27.570    589.737    550.008     39.729    537.625    549.279    537.625    538.351    537.625
 27.670    584.000    553.609     30.391    537.283    552.819    537.283    538.069    537.283
 27.770    597.000    562.704     34.296    536.940    561.842    536.940    537.796    536.940
 27.870    626.000    587.363     38.637    536.598    586.412    536.598    537.534    536.598
 27.970    603.642    644.990    -41.348    536.255    643.926    536.255    537.285    536.255
 28.070    738.000    747.599     -9.599    535.912    746.395    535.912    537.053    535.912
 28.170    872.000    873.870     -1.870    535.570    872.507    535.570    536.841    535.570
 28.270    945.000    956.110    -11.110    535.227    954.591    535.227    536.655    535.227
 28.370    967.000    933.384     33.616    534.883    931.705    534.883    536.503    534.883
 28.470    833.000    832.179      0.821    534.540    830.299    534.540    536.395    534.540
 28.570    705.000    733.712    -28.712    534.197    731.552    534.197    536.348    534.197
 28.670    703.287    695.951      7.336    533.854    693.406    533.854    536.388    533.854
 28.770    692.000    727.185    -35.185    533.511    724.112    533.511    536.565    533.511
 28.870    807.444    794.881     12.562    533.168    791.060    533.168    536.966    533.168
 28.970    846.000    841.277      4.723    532.825    836.339    532.825    537.749    532.825
 29.070    813.000    821.524     -8.524    532.482    814.847    532.482    539.162    532.482
 29.170    719.257    749.460    -30.203    532.139    740.077    532.139    541.536    532.139
 29.270    622.377    671.297    -48.919    531.796    657.892    531.796    545.214    531.796
 29.370    621.000    617.509      3.491    531.454    598.584    531.454    550.387    531.454
 29.470    618.000    591.810     26.190    531.112    566.142    531.112    556.782    531.112
 29.570    565.000    583.830    -18.830    530.770    551.406    530.770    563.192    530.770
 29.670    650.000    581.870     68.130    530.428    545.035    530.428    567.260    530.428
 29.770    636.000    578.563     57.437    530.086    541.887    530.086    566.758    530.086
 29.870    585.000    572.005     12.995    529.745    539.961    529.745    561.786    529.745
 29.970    568.000    563.865      4.135    529.404    538.621    529.404    554.646    529.404
 30.070    585.000    556.237     28.763    529.064    537.671    529.064    547.627    529.064
 30.170    522.000    550.203    -28.203    528.724    537.059    528.724    541.866    528.724
 30.270    569.000    546.059     22.941    528.384    536.846    528.384    537.594    528.384
 30.370    581.331    543.927     37.405    528.045    537.360    528.045    534.608    528.045
 30.470    561.000    544.388     16.612    527.706    539.527    527.706    532.561    527.706
 30.570    555.000    548.986      6.014    527.367    545.216    527.367    531.127    527.367
 30.670    513.652    559.872    -46.221    527.030    556.820    527.030    530.062    527.030
 30.770    588.000    577.723     10.277    526.692    575.165    526.692    529.217    526.692
 30.870    622.439    598.449     23.989    526.355    596.252    526.355    528.505    526.355
 30.970    639.000    611.806     27.194    526.019    609.892    526.019    527.878    526.019
 31.070    617.000    608.232      8.768    525.683    606.555    525.683    527.311    525.683
 31.170    608.398    590.080     18.317    525.348    588.605    525.348    526.789    525.348
 31.270    576.000    568.182      7.818    525.013    566.874    525.013    526.301    525.013
 31.370    549.462    550.859     -1.396    524.679    549.689    524.679    525.839    524.679
 31.470    522.464    540.297    -17.833    524.346    539.240    524.346    525.398    524.346
 31.570    568.000    534.899     33.101    524.013    533.935    524.013    524.974    524.013
 31.670    545.000    532.324     12.676    523.682    531.439    523.682    524.564    523.682
 31.770    576.638    530.994     45.644    523.350    530.177    523.350    524.166    523.350
 31.870    525.000    530.174     -5.174    523.020    529.415    523.020    523.777    523.020
 31.970    518.000    529.595    -11.595    522.690    528.886    522.690    523.397    522.690
 32.070    539.148    529.167      9.982    522.361    528.503    522.361    523.024    522.361
 32.170    499.000    528.859    -29.859    522.033    528.234    522.033    522.657    522.033
 32.270    563.000    528.658     34.342    521.706    528.068    521.706    522.295    521.706
 32.370    542.000    528.563     13.437    521.379    528.004    521.379    521.938    521.379
 32.470    514.883    528.580    -13.697    521.053    528.048    521.053    521.585    521.053
 32.570    556.000    528.724     27.276    520.729    528.216    520.729    521.236    520.729
 32.670    543.000    529.015     13.985    520.405    528.528    520.405    520.890    520.405
 32.770    561.653    529.481     32.172    520.082    529.015    520.082    520.547    520.082
 32.870    583.000    530.175     52.825    519.759    529.726    519.759    520.207    519.759
 32.970    576.000    531.167     44.833    519.438    530.734    519.438    519.870    519.438
 33.070    577.390    532.565     44.825    519.118    532.146    519.118    519.535    519.118
 33.170    528.836    534.556     -5.719    518.799    534.149    518.799    519.203    518.799
 33.270    504.376    537.542    -33.166    518.481    537.147    518.481    518.873    518.481
 33.370    556.000    542.588     13.412    518.163    542.203    518.163    518.545    518.163
 33.470    548.815    552.546     -3.731    517.847    552.169    517.847    518.219    517.847
 33.570    618.877    573.956     44.921    517.532    573.584    517.532    517.894    517.532
 33.670    611.214    618.250     -7.036    517.218    617.876    517.218    517.572    517.218
 33.770    674.000    698.338    -24.338    516.905    697.957    516.905    517.251    516.905
 33.870    830.000    817.239     12.761    516.593    816.847    516.593    516.932    516.593
 33.970    995.822    951.876     43.946    516.282    951.479    516.282    516.615    516.282
 34.070   1082.000   1046.058     35.942    515.972   1045.674    515.972    516.299    515.972
 34.170   1068.845   1042.646     26.199    515.663   1042.291    515.663    515.986    515.663
 34.270    960.065    943.942     16.123    515.356    943.614    515.356    515.673    515.356
 34.370    780.176    808.504    -28.328    515.050    808.193    515.050    515.362    515.050
 34.470    683.000    690.841     -7.841    514.744    690.537    514.744    515.053    514.744
 34.570    650.929    612.257     38.673    514.440    611.955    514.440    514.746    514.440
 34.670    581.000    568.839     12.161    514.138    568.539    514.138    514.439    514.138
 34.770    518.828    547.584    -28.756    513.836    547.285    513.836    514.135    513.836
 34.870    555.800    537.320     18.480    513.536    537.024    513.536    513.832    513.536
 34.970    501.000    531.754    -30.754    513.237    531.460    513.237    513.530    513.237
 35.070    527.000    528.164     -1.164    512.939    527.872    512.939    513.230    512.939
 35.170    550.204    525.536     24.668    512.643    525.247    512.643    512.932    512.643
 35.270    526.743    523.482      3.260    512.347    523.195    512.347    512.634    512.347
 35.370    531.000    521.820      9.180    512.054    521.535    512.054    512.339    512.054
 35.470    566.946    520.443     46.503    511.761    520.159    511.761    512.045    511.761
 35.570    539.000    519.279     19.721    511.470    518.996    511.470    511.752    511.470
 35.670    519.635    518.278      1.357    511.180    517.996    511.180    511.461    511.180
 35.770    543.568    517.404     26.163    510.891    517.123    510.891    511.172    510.891
 35.870    473.518    516.632    -43.114    510.604    516.352    510.604    510.884    510.604
 35.970    543.000    515.941     27.059    510.318    515.662    510.318    510.598    510.318
 36.070    489.642    515.318    -25.676    510.034    515.039    510.034    510.313    510.034
 36.170    485.000    514.751    -29.751    509.751    514.473    509.751    510.029    509.751
 36.270    480.776    514.233    -33.457    509.469    513.954    509.469    509.747    509.469
 36.370    517.000    513.756      3.244    509.189    513.478    509.189    509.467    509.189
 36.470    478.512    513.319    -34.807    508.910    513.041    508.910    509.188    508.910
 36.570    495.000    512.918    -17.918    508.633    512.639    508.633    508.911    508.633
 36.670    454.000    512.553    -58.553    508.357    512.274    508.357    508.636    508.357
 36.770    516.000    512.228      3.772    508.083    511.949    508.083    508.362    508.083
 36.870    474.774    511.953    -37.179    507.810    511.673    507.810    508.089    507.810
 36.970    503.000    511.758     -8.758    507.539    511.478    507.539    507.819    507.539
 37.070    556.641    511.719     44.922    507.269    511.439    507.269    507.549    507.269
 37.170    517.000    511.998      5.002    507.000    511.717    507.000    507.282    507.000
 37.270    498.973    512.868    -13.895    506.734    512.586    506.734    507.016    506.734
 37.370    472.002    514.653    -42.651    506.468    514.371    506.468    506.751    506.468
 37.470    532.000    517.515     14.485    506.205    517.232    506.205    506.489    506.205
 37.570    555.717    521.127     34.589    505.942    520.845    505.942    506.228    505.942
 37.670    505.000    524.406    -19.406    505.682    524.124    505.682    505.968    505.682
 37.770    494.000    525.725    -31.725    505.423    525.443    505.423    505.710    505.423
 37.870    535.000    524.245     10.755    505.165    523.963    505.165    505.454    505.165
 37.970    562.658    520.926     41.731    504.909    520.646    504.909    505.200    504.909
 38.070    547.449    517.211     30.238    504.655    516.929    504.655    504.947    504.655
 38.170    469.486    513.906    -44.421    504.402    513.623    504.402    504.696    504.402
 38.270    526.000    511.313     14.687    504.151    511.026    504.151    504.447    504.151
 38.370    477.000    509.451    -32.451    503.902    509.159    503.902    504.199    503.902
 38.470    567.000    508.182     58.818    503.654    507.886    503.654    503.953    503.654
 38.570    479.000    507.327    -28.327    503.408    507.028    503.408    503.709    503.408
 38.670    484.000    506.733    -22.733    503.163    506.430    503.163    503.467    503.163
 38.770    532.463    506.289     26.174    502.920    505.984    502.920    503.226    502.920
 38.870    514.000    505.927      8.073    502.679    505.620    502.679    502.987    502.679
 38.970    501.389    505.610     -4.221    502.440    505.301    502.440    502.750    502.440
 39.070    495.685    505.320     -9.635    502.202    505.008    502.202    502.514    502.202
 39.170    490.165    505.049    -14.884    501.966    504.734    501.966    502.281    501.966
 39.270    475.000    504.791    -29.791    501.731    504.474    501.731    502.049    501.731
 39.370    495.000    504.546     -9.546    501.498    504.226    501.498    501.819    501.498
 39.470    501.000    504.310     -3.310    501.267    503.988    501.267    501.590    501.267
 39.570    501.000    504.084     -3.084    501.038    503.759    501.038    501.364    501.038
 39.670    482.818    503.867    -21.049    500.810    503.538    500.810    501.139    500.810
 39.770    474.982    503.658    -28.676    500.584    503.326    500.584    500.916    500.584
 39.870    477.000    503.457    -26.457    500.360    503.122    500.360    500.695    500.360
 39.970    501.000    503.264     -2.264    500.138    502.926    500.138    500.476    500.138
 40.070    493.000    503.080    -10.080    499.917    502.738    499.917    500.259    499.917
 40.170    477.000    502.904    -25.904    499.698    502.558    499.698    500.043    499.698
 40.270    532.000    502.737     29.263    499.481    502.388    499.481    499.830    499.481
 40.370    504.000    502.579      1.421    499.265    502.227    499.265    499.618    499.265
 40.470    509.000    502.433      6.567    499.051    502.076    499.051    499.408    499.051
 40.570    514.000    502.298     11.702    498.839    501.937    498.839    499.200    498.839
 40.670    482.000    502.176    -20.176    498.629    501.812    498.629    498.994    498.629
 40.770    478.000    502.070    -24.070    498.421    501.701    498.421    498.790    498.421
 40.870    460.000    501.980    -41.980    498.214    501.607    498.214    498.588    498.214
 40.970    513.562    501.912     11.650    498.010    501.534    498.010    498.388    498.010
 41.070    483.122    501.868    -18.746    497.806    501.486    497.806    498.189    497.806
 41.170    511.817    501.854      9.963    497.605    501.467    497.605    497.993    497.605
 41.270    523.982    501.877     22.106    497.406    501.485    497.406    497.799    497.406
 41.370    482.667    501.945    -19.279    497.208    501.549    497.208    497.606    497.208
 41.470    529.181    502.073     27.107    497.012    501.671    497.012    497.416    497.012
 41.570    524.293    502.280     22.014    496.818    501.872    496.818    497.227    496.818
 41.670    485.000    502.596    -17.596    496.626    502.183    496.626    497.041    496.626
 41.770    494.000    503.085     -9.085    496.436    502.667    496.436    496.856    496.436
 41.870    526.000    503.896     22.104    496.247    503.471    496.247    496.674    496.247
 41.970    508.000    505.379      2.621    496.061    504.949    496.061    496.493    496.061
 42.070    510.000    508.300      1.700    495.876    507.865    495.876    496.315    495.876
 42.170    518.000    514.060      3.940    495.693    513.620    495.693    496.139    495.693
 42.270    535.314    524.637     10.677    495.511    524.195    495.511    495.964    495.511
 42.370    529.000    541.854    -12.854    495.332    541.413    495.332    495.792    495.332
 42.470    545.000    565.818    -20.818    495.154    565.382    495.154    495.622    495.154
 42.570    604.000    593.043     10.957    494.979    592.614    494.979    495.454    494.979
 42.670    566.000    615.448    -49.448    494.805    615.025    494.805    495.288    494.805
 42.770    637.000    622.728     14.272    494.633    622.304    494.633    495.125    494.633
 42.870    604.517    610.483     -5.966    494.462    610.047    494.462    494.963    494.462
 42.970    632.866    585.426     47.441    494.294    584.968    494.294    494.804    494.294
 43.070    579.896    558.077     21.818    494.128    557.595    494.128    494.647    494.128
 43.170    484.000    535.412    -51.412    493.963    534.906    493.963    494.492    493.963
 43.270    485.000    519.800    -34.800    493.800    519.275    493.800    494.339    493.800
 43.370    537.382    510.479     26.903    493.639    509.937    493.639    494.189    493.639
 43.470    549.976    505.433     44.543    493.480    504.877    493.480    494.041    493.480
 43.570    510.000    502.780      7.220    493.323    502.211    493.323    493.895    493.323
 43.670    457.993    501.297    -43.304    493.167    500.715    493.167    493.752    493.167
 43.770    515.000    500.355     14.645    493.014    499.760    493.014    493.611    493.014
 43.870    507.000    499.677      7.323    492.862    499.069    492.862    493.472    492.862
 43.970    471.877    499.151    -27.274    492.712    498.529    492.712    493.336    492.712
 44.070    461.000    498.726    -37.726    492.564    498.089    492.564    493.202    492.564
 44.170    485.000    498.375    -13.375    492.418    497.723    492.418    493.071    492.418
 44.270    470.000    498.082    -28.082    492.274    497.413    492.274    492.943    492.274
 44.370    461.000    497.834    -36.834    492.132    497.150    492.132    492.817    492.132
 44.470    473.000    497.625    -24.625    491.991    496.923    491.991    492.694    491.991
 44.570    469.653    497.447    -27.794    491.852    496.727    491.852    492.574    491.852
 44.670    520.000    497.297     22.703    491.716    496.557    491.716    492.456    491.716
 44.770    523.926    497.171     26.755    491.581    496.410    491.581    492.342    491.581
 44.870    500.069    497.066      3.003    491.448    496.283    491.448    492.230    491.448
 44.970    541.260    496.980     44.280    491.316    496.175    491.316    492.121    491.316
 45.070    505.986    496.913      9.073    491.187    496.084    491.187    492.016    491.187
 45.170    463.361    496.864    -33.503    491.059    496.009    491.059    491.914    491.059
 45.270    469.000    496.832    -27.832    490.934    495.950    490.934    491.816    490.934
 45.370    500.000    496.817      3.183    490.810    495.906    490.810    491.721    490.810
 45.470    449.000    496.819    -47.819    490.688    495.878    490.688    491.629    490.688
 45.570    498.000    496.839      1.161    490.568    495.865    490.568    491.542    490.568
 45.670    510.809    496.878     13.930    490.449    495.869    490.449    491.459    490.449
 45.770    453.930    496.937    -43.007    490.333    495.890    490.333    491.380    490.333
 45.870    529.935    497.017     32.917    490.218    495.930    490.218    491.305    490.218
 45.970    477.000    497.121    -20.121    490.106    495.990    490.106    491.235    490.106
 46.070    487.000    497.250    -10.250    489.995    496.073    489.995    491.171    489.995
 46.170    500.257    497.408      2.849    489.886    496.181    489.886    491.112    489.886
 46.270    471.000    497.599    -26.599    489.778    496.317    489.778    491.059    489.778
 46.370    503.000    497.828      5.172    489.673    496.487    489.673    491.013    489.673
 46.470    494.000    498.101     -4.101    489.569    496.697    489.569    490.973    489.569
 46.570    478.031    498.428    -20.397    489.468    496.953    489.468    490.941    489.468
 46.670    473.000    498.820    -25.820    489.368    497.268    489.368    490.918    489.368
 46.770    511.000    499.296     11.704    489.270    497.661    489.270    490.904    489.270
 46.870    490.000    499.894     -9.894    489.173    498.166    489.173    490.900    489.173
 46.970    485.000    500.691    -15.691    489.079    498.861    489.079    490.907    489.079
 47.070    505.000    501.858      3.142    488.986    499.913    488.986    490.928    488.986
 47.170    448.000    503.744    -55.744    488.895    501.672    488.895    490.963    488.895
 47.270    537.401    506.972     30.429    488.806    504.757    488.806    491.015    488.806
 47.370    466.000    512.456    -46.456    488.719    510.078    488.719    491.087    488.719
 47.470    529.000    521.186      7.814    488.634    518.622    488.634    491.180    488.634
 47.570    560.000    533.728     26.272    488.550    530.952    488.550    491.300    488.550
 47.670    539.000    549.443    -10.443    488.468    546.424    488.468    491.450    488.468
 47.770    600.000    565.821     34.179    488.388    562.525    488.388    491.637    488.388
 47.870    564.000    578.409    -14.409    488.310    574.796    488.310    491.868    488.310
 47.970    626.925    582.412     44.513    488.233    578.439    488.233    492.151    488.233
 48.070    551.797    576.295    -24.498    488.159    571.904    488.159    492.501    488.159
 48.170    605.970    563.435     42.535    488.086    558.549    488.086    492.934    488.086
 48.270    542.000    549.003     -7.003    488.015    543.514    488.015    493.477    488.015
 48.370    539.070    536.805      2.265    487.945    530.560    487.945    494.172    487.945
 48.470    499.659    528.601    -28.942    487.878    521.374    487.878    495.093    487.878
 48.570    509.000    524.592    -15.592    487.812    516.026    487.812    496.371    487.812
 48.670    561.580    524.218     37.362    487.747    513.733    487.747    498.227    487.747
 48.770    515.000    526.891    -11.891    487.685    513.553    487.685    501.019    487.685
 48.870    514.000    532.424    -18.424    487.624    514.775    487.624    505.269    487.624
 48.970    572.634    541.115     31.519    487.566    517.033    487.566    511.643    487.566
 49.070    561.000    553.607      7.393    487.508    520.272    487.508    520.837    487.508
 49.170    598.944    570.683     28.260    487.453    524.770    487.453    533.359    487.453
 49.270    609.569    593.242     16.327    487.399    531.435    487.399    549.196    487.399
 49.370    645.099    622.847     22.252    487.347    542.783    487.347    567.399    487.347
 49.470    690.000    663.426     26.574    487.297    565.123    487.297    585.583    487.297
 49.570    747.382    724.540     22.842    487.248    612.124    487.248    599.637    487.248
 49.670    888.000    825.716     62.284    487.201    708.058    487.201    604.813    487.201
 49.770    980.976    997.710    -16.734    487.156    885.874    487.156    598.916    487.156
 49.870   1285.000   1271.235     13.765    487.113   1173.856    487.113    584.376    487.113
 49.970   1714.000   1649.398     64.602    487.071   1570.319    487.071    565.997    487.071
 50.070   2082.015   2078.821      3.193    487.031   2017.883    487.031    547.809    487.031
 50.170   2409.762   2442.644    -32.882    486.992   2397.426    486.992    532.091    486.992
 50.270   2552.000   2596.895    -44.895    486.955   2564.113    486.955    519.718    486.955
 50.370   2381.000   2464.160    -83.160    486.920   2440.530    486.920    510.655    486.920
 50.470   2180.000   2104.691     75.309    486.887   2087.400    486.887    504.373    486.887
 50.570   1589.051   1659.144    -70.093    486.855   1646.051    486.855    500.169    486.855
 50.670   1196.079   1253.311    -57.231    486.824   1242.945    486.824    497.385    486.824
 50.770    900.000    953.930    -53.930    486.796    945.363    486.796    495.510    486.796
 50.870    741.942    769.272    -27.330    486.769    761.947    486.769    494.194    486.769
 50.970    601.000    672.711    -71.711    486.743    666.298    486.743    493.223    486.743
 51.070    633.701    628.717      4.983    486.720    623.013    486.720    492.473    486.720
 51.170    605.000    608.454     -3.454    486.698    603.321    486.698    491.871    486.698
 51.270    525.000    594.676    -69.676    486.677    590.011    486.677    491.378    486.677
 51.370    609.584    580.649     28.935    486.658    576.370    486.658    490.966    486.658
 51.470    555.000    565.998    -10.998    486.641    562.042    486.641    490.620    486.641
 51.570    567.000    552.397     14.603    486.625    548.712    486.625    490.327    486.625
 51.670    517.793    541.253    -23.460    486.611    537.797    486.611    490.078    486.611
 51.770    538.000    533.109      4.891    486.598    529.850    486.598    489.865    486.598
 51.870    544.000    527.775     16.225    486.587    524.685    486.587    489.683    486.587
 51.970    573.000    524.681     48.319    486.577    521.735    486.577    489.527    486.577
 52.070    588.000    523.209     64.791    486.569    520.387    486.569    489.395    486.569
 52.170    528.000    522.899      5.101    486.563    520.183    486.563    489.281    486.563
 52.270    501.328    523.519    -22.191    486.558    520.893    486.558    489.186    486.558
 52.370    493.159    525.070    -31.911    486.554    522.520    486.554    489.106    486.554
 52.470    567.000    527.849     39.151    486.552    525.363    486.552    489.039    486.552
 52.570    560.410    532.648     27.762    486.552    530.216    486.552    488.985    486.552
 52.670    586.000    541.158     44.842    486.553    538.770    486.553    488.942    486.553
 52.770    516.956    556.528    -39.572    486.555    554.174    486.555    488.910    486.555
 52.870    593.000    583.788      9.212    486.559    581.460    486.559    488.887    486.559
 52.970    598.000    629.556    -31.556    486.565    627.246    486.565    488.873    486.565
 53.070    695.674    700.317     -4.643    486.572    698.018    486.572    488.867    486.572
 53.170    798.000    799.048     -1.048    486.580    796.755    486.580    488.870    486.580
 53.270    871.684    920.956    -49.272    486.590    918.665    486.590    488.880    486.590
 53.370   1084.000   1049.831     34.169    486.601   1047.539    486.601    488.897    486.601
 53.470   1099.000   1156.980    -57.980    486.614   1154.685    486.614    488.922    486.614
 53.570   1227.139   1207.901     19.238    486.628   1205.600    486.628    488.954    486.628
 53.670   1120.531   1182.378    -61.847    486.643   1180.065    486.643    488.992    486.643
 53.770   1104.078   1091.467     12.611    486.660   1089.131    486.660    489.038    486.660
 53.870    963.000    967.245     -4.245    486.678    964.874    486.678    489.090    486.678
 53.970    794.526    841.376    -46.850    486.698    838.959    486.698    489.150    486.698
 54.070    758.023    734.384     23.639    486.719    731.914    486.719    489.216    486.719
 54.170    646.000    654.669     -8.669    486.741    652.139    486.741    489.290    486.741
 54.270    626.720    601.478     25.243    486.765    598.884    486.765    489.371    486.765
 54.370    589.000    569.141     19.859    486.790    566.479    486.790    489.460    486.790
 54.470    575.000    550.862     24.138    486.816    548.127    486.816    489.557    486.816
 54.570    572.000    541.004     30.996    486.844    538.189    486.844    489.662    486.844
 54.670    565.000    535.802     29.198    486.873    532.901    486.873    489.776    486.873
 54.770    578.613    533.118     45.495    486.904    530.123    486.904    489.900    486.904
 54.870    548.000    531.879     16.121    486.935    528.782    486.935    490.033    486.935
 54.970    543.000    531.597     11.403    486.968    528.389    486.968    490.177    486.968
 55.070    569.000    532.071     36.929    487.002    528.742    487.002    490.332    487.002
 55.170    589.000    533.233     55.767    487.038    529.771    487.038    490.500    487.038
 55.270    547.000    535.082     11.918    487.075    531.477    487.075    490.681    487.075
 55.370    531.000    537.671     -6.671    487.113    533.908    487.113    490.876    487.113
 55.470    565.000    541.109     23.891    487.152    537.174    487.152    491.087    487.152
 55.570    539.342    545.597     -6.255    487.192    541.475    487.192    491.315    487.192
 55.670    517.460    551.535    -34.076    487.234    547.207    487.234    491.562    487.234
 55.770    571.000    559.773     11.227    487.277    555.219    487.277    491.830    487.277
 55.870    611.137    572.160     38.977    487.321    567.356    487.321    492.121    487.321
 55.970    606.000    592.555     13.445    487.366    587.474    487.366    492.439    487.366
 56.070    620.289    628.310     -8.021    487.413    622.922    487.413    492.786    487.413
 56.170    717.041    691.788     25.253    487.460    686.055    487.460    493.165    487.460
 56.270    793.000    800.641     -7.641    487.509    794.523    487.509    493.582    487.509
 56.370   1030.990    975.001     55.989    487.559    968.454    487.559    494.041    487.559
 56.470   1228.000   1230.109     -2.109    487.610   1223.091    487.610    494.549    487.610
 56.570   1510.000   1565.172    -55.172    487.662   1557.642    487.662    495.113    487.662
 56.670   1928.000   1952.103    -24.103    487.715   1944.025    487.715    495.741    487.715
 56.770   2293.000   2329.346    -36.346    487.770   2320.681    487.770    496.444    487.770
 56.870   2665.291   2607.203     58.088    487.825   2597.895    487.825    497.235    487.825
 56.970   2720.000   2696.744     23.256    487.882   2686.693    487.882    498.130    487.882
 57.070   2541.000   2564.035    -23.035    487.939   2553.087    487.939    499.148    487.939
 57.170   2287.496   2258.656     28.840    487.998   2246.614    487.998    500.315    487.998
 57.270   1902.000   1874.708     27.292    488.058   1861.350    488.058    501.664    488.058
 57.370   1507.000   1497.867      9.133    488.119   1482.942    488.119    503.241    488.119
 57.470   1157.000   1182.533    -25.533    488.180   1165.738    488.180    505.118    488.180
 57.570    939.859    950.222    -10.363    488.243    931.152    488.243    507.406    488.243
 57.670    782.708    797.468    -14.760    488.307    775.536    488.307    510.295    488.307
 57.770    741.000    707.651     33.349    488.372    681.955    488.372    514.099    488.372
 57.870    707.000    661.866     45.134    488.438    630.986    488.438    519.332    488.438
 57.970    695.000    645.632     49.368    488.505    607.349    488.505    526.792    488.505
 58.070    685.000    651.182     33.818    488.572    602.123    488.572    537.627    488.572
 58.170    647.000    676.755    -29.755    488.641    612.050    488.641    553.332    488.641
 58.270    712.000    724.460    -12.460    488.711    637.519    488.711    575.626    488.711
 58.370    800.512    797.636      2.876    488.781    680.233    488.781    606.148    488.781
 58.470    898.000    898.133     -0.133    488.853    740.968    488.853    645.968    488.853
 58.570   1045.000   1023.873     21.127    488.925    817.769    488.925    694.969    488.925
 58.670   1201.000   1167.071     33.929    488.998    904.880    488.998    751.124    488.998
 58.770   1265.000   1313.844    -48.844    489.073    993.140    489.073    809.716    489.073
 58.870   1515.000   1446.427     68.573    489.148   1072.833    489.148    862.693    489.148
 58.970   1551.351   1546.384      4.967    489.224   1136.333    489.224    899.243    489.224
 59.070   1616.000   1596.890     19.110    489.300   1176.787    489.300    909.391    489.300
 59.170   1660.230   1587.687     72.543    489.378   1187.184    489.378    889.889    489.378
 59.270   1542.000   1522.838     19.162    489.456   1165.627    489.456    846.691    489.456
 59.370   1365.713   1422.049    -56.336    489.536   1120.843    489.536    790.765    489.536
 59.470   1377.243   1311.454     65.790    489.616   1068.751    489.616    732.327    489.616
 59.570   1228.820   1214.113     14.707    489.697   1025.485    489.697    678.304    489.697
 59.670   1181.000   1147.587     33.413    489.778   1004.893    489.778    632.411    489.778
 59.770   1196.000   1125.169     70.831    489.861   1018.981    489.861    595.938    489.861
 59.870   1163.000   1154.723      8.277    489.944   1075.979    489.944    568.522    489.944
 59.970   1237.078   1234.135      2.943    490.028   1175.115    490.028    548.830    490.028
 60.070   1396.000   1347.437     48.563    490.112   1302.146    490.112    535.146    490.112
 60.170   1517.000   1464.597     52.403    490.198   1428.722    490.198    525.796    490.198
 60.270   1609.000   1546.392     62.608    490.284   1517.018    490.284    519.393    490.284
 60.370   1596.000   1557.215     38.785    490.370   1532.448    490.370    514.913    490.370
 60.470   1502.000   1483.937     18.063    490.458   1462.561    490.458    511.664    490.458
 60.570   1409.193   1344.035     65.158    490.546   1325.253    490.546    509.212    490.546
 60.670   1170.479   1172.222     -1.743    490.635   1155.487    490.635    507.299    490.635
 60.770    954.532   1002.112    -47.580    490.724    987.020    490.724    505.775    490.724
 60.870    907.000    856.831     50.169    490.814    843.064    490.814    504.559    490.814
 60.970    737.000    747.106    -10.106    490.905    734.392    490.905    503.605    490.905
 61.070    676.000    673.503      2.497    490.996    661.595    490.996    502.891    490.996
 61.170    696.000    630.874     65.126    491.088    619.539    491.088    502.409    491.088
 61.270    672.000    613.048     58.952    491.181    602.055    491.181    502.153    491.181
 61.370    639.000    616.215     22.785    491.274    605.343    491.274    502.116    491.274
 61.470    664.135    640.396     23.740    491.367    629.442    491.367    502.277    491.367
 61.570    708.000    688.987     19.013    491.461    677.786    491.461    502.597    491.461
 61.670    720.000    766.628    -46.628    491.556    755.084    491.556    503.007    491.556
 61.770    867.196    875.769     -8.573    491.651    863.897    491.651    503.402    491.651
 61.870    951.000   1012.783    -61.783    491.747   1000.740    491.747    503.640    491.747
 61.970   1130.000   1164.894    -34.894    491.843   1152.983    491.843    503.586    491.843
 62.070   1358.756   1309.192     49.564    491.940   1297.788    491.940    503.174    491.940
 62.170   1391.000   1415.067    -24.067    492.037   1404.497    492.037    502.455    492.037
 62.270   1374.000   1453.017    -79.017    492.135   1443.481    492.135    501.554    492.135
 62.370   1386.807   1410.336    -23.529    492.233   1401.890    492.233    500.603    492.233
 62.470   1235.113   1300.308    -65.195    492.332   1292.900    492.332    499.698    492.332
 62.570   1128.711   1152.728    -24.017    492.431   1146.244    492.431    498.898    492.431
 62.670    957.000    998.153    -41.153    492.530    992.450    492.530    498.231    492.530
 62.770    847.000    859.163    -12.163    492.630    854.097    492.630    497.700    492.630
 62.870    700.000    748.012    -48.012    492.730    743.452    492.730    497.296    492.730
 62.970    679.566    667.619     11.947    492.831    663.456    492.831    496.997    492.831
 63.070    644.898    614.451     30.447    492.932    610.599    492.932    496.784    492.932
 63.170    591.287    581.997      9.290    493.033    578.394    493.033    496.634    493.033
 63.270    551.160    563.593    -12.432    493.135    560.193    493.135    496.530    493.135
 63.370    517.000    554.010    -37.010    493.237    550.781    493.237    496.460    493.237
 63.470    511.038    549.941    -38.903    493.339    546.858    493.339    496.415    493.339
 63.570    551.000    549.859      1.141    493.441    546.904    493.441    496.388    493.441
 63.670    601.478    553.702     47.777    493.544    550.860    493.544    496.375    493.544
 63.770    539.289    562.590    -23.301    493.647    559.848    493.647    496.373    493.647
 63.870    586.000    578.578      7.422    493.751    575.923    493.751    496.381    493.751
 63.970    646.000    604.275     41.725    493.855    601.696    493.855    496.398    493.855
 64.070    717.000    642.185     74.815    493.958    639.671    493.958    496.422    493.958
 64.170    698.000    693.727      4.273    494.063    691.269    494.063    496.452    494.063
 64.270    768.000    758.068      9.932    494.167    755.658    494.167    496.489    494.167
 64.370    884.000    831.072     52.928    494.272    828.706    494.272    496.531    494.272
 64.470    849.550    904.710    -55.160    494.376    902.387    494.376    496.578    494.376
 64.570    976.586    967.524      9.062    494.481    965.249    494.481    496.630    494.481
 64.670   1001.000   1007.321     -6.321    494.586   1005.100    494.586    496.686    494.586
 64.770   1062.000   1016.188     45.812    494.692   1014.028    494.692    496.746    494.692
 64.870   1005.921    994.098     11.824    494.797    992.002    494.797    496.808    494.797
 64.970    884.655    947.871    -63.216    494.902    945.841    494.902    496.874    494.902
 65.070    927.000    887.819     39.181    495.008    885.850    495.008    496.944    495.008
 65.170    850.000    824.385     25.615    495.114    822.472    495.114    497.017    495.114
 65.270    764.000    765.433     -1.433    495.220    763.568    495.220    497.094    495.220
 65.370    698.000    715.023    -17.023    495.325    713.196    495.325    497.172    495.325
 65.470    643.523    673.897    -30.375    495.431    672.101    495.431    497.254    495.431
 65.570    668.000    641.029     26.971    495.537    639.256    495.537    497.338    495.537
 65.670    618.000    615.046      2.954    495.643    613.290    495.643    497.424    495.643
 65.770    589.000    594.776     -5.776    495.750    593.032    495.750    497.512    495.750
 65.870    595.000    579.251     15.749    495.856    577.517    495.856    497.603    495.856
 65.970    558.000    567.671     -9.671    495.962    565.946    495.962    497.695    495.962
 66.070    558.388    559.389     -1.002    496.068    557.672    496.068    497.790    496.068
 66.170    518.000    553.874    -35.874    496.174    552.163    496.174    497.887    496.174
 66.270    525.086    550.670    -25.583    496.280    548.965    496.280    497.985    496.280
 66.370    557.000    549.387      7.613    496.386    547.687    496.386    498.086    496.386
 66.470    558.000    549.725      8.275    496.492    548.028    496.492    498.188    496.492
 66.570    566.298    551.524     14.774    496.597    549.830    496.597    498.292    496.597
 66.670    592.701    554.849     37.852    496.703    553.154    496.703    498.399    496.703
 66.770    539.000    560.119    -21.119    496.809    558.422    496.809    498.506    496.809
 66.870    586.000    568.350     17.650    496.914    566.649    496.914    498.616    496.914
 66.970    494.000    581.524    -87.524    497.020    579.816    497.020    498.728    497.020
 67.070    562.729    603.102    -40.373    497.125    601.384    497.125    498.842    497.125
 67.170    643.000    638.543      4.457    497.230    636.812    497.230    498.957    497.230
 67.270    743.139    695.575     47.564    497.335    693.828    497.335    499.075    497.335
 67.370    760.000    783.780    -23.780    497.440    782.014    497.440    499.194    497.440
 67.470    907.000    913.064     -6.064    497.544    911.277    497.544    499.316    497.544
 67.570   1092.000   1090.821      1.179    497.649   1089.014    497.649    499.440    497.649
 67.670   1331.000   1318.125     12.875    497.753   1316.303    497.753    499.566    497.753
 67.770   1654.985   1585.881     69.103    497.857   1584.053    497.857    499.695    497.857
 67.870   1775.000   1872.134    -97.134    497.961   1870.310    497.961    499.826    497.961
 67.970   2216.000   2141.608     74.392    498.064   2139.803    498.064    499.960    498.064
 68.070   2306.000   2349.145    -43.145    498.167   2347.370    498.167    500.097    498.167
 68.170   2374.133   2450.427    -76.294    498.270   2448.686    498.270    500.236    498.270
 68.270   2480.250   2420.392     59.858    498.373   2418.673    498.373    500.379    498.373
 68.370   2296.000   2267.072     28.928    498.475   2265.346    498.475    500.526    498.475
 68.470   2073.616   2026.595     47.021    498.577   2024.825    498.577    500.676    498.577
 68.570   1720.000   1745.264    -25.264    498.679   1743.417    498.679    500.830    498.679
 68.670   1484.000   1464.430     19.570    498.780   1462.484    498.780    500.988    498.780
 68.770   1186.000   1213.496    -27.496    498.881   1211.436    498.881    501.151    498.881
 68.870    944.000   1008.433    -64.433    498.982   1006.254    498.982    501.320    498.982
 68.970    797.000    853.363    -56.363    499.082    851.065    499.082    501.494    499.082
 69.070    724.000    743.911    -19.911    499.182    741.496    499.182    501.674    499.182
 69.170    689.000    671.169     17.831    499.282    668.641    499.282    501.861    499.282
 69.270    654.000    625.140     28.860    499.381    622.498    499.381    502.055    499.381
 69.370    614.000    596.976     17.024    499.479    594.218    499.479    502.258    499.479
 69.470    621.000    579.960     41.040    499.577    577.082    499.577    502.470    499.577
 69.570    537.105    569.555    -32.450    499.675    566.549    499.675    502.692    499.675
 69.670    593.000    562.979     30.021    499.773    559.833    499.773    502.925    499.773
 69.770    572.000    558.653     13.347    499.869    555.356    499.869    503.171    499.869
 69.870    577.000    555.737     21.263    499.966    552.275    499.966    503.432    499.966
 69.970    552.932    553.805     -0.874    500.062    550.160    500.062    503.709    500.062
 70.070    607.000    552.648     54.352    500.157    548.802    500.157    504.005    500.157
 70.170    531.000    552.170    -21.170    500.252    548.102    500.252    504.321    500.252
 70.270    571.000    552.347     18.653    500.346    548.033    500.346    504.661    500.346
 70.370    571.145    553.221     17.924    500.440    548.631    500.440    505.028    500.440
 70.470    553.000    554.917     -1.917    500.533    550.021    500.533    505.427    500.533
 70.570    576.000    557.710     18.290    500.626    552.470    500.626    505.863    500.626
 70.670    550.038    562.133    -12.095    500.718    556.505    500.718    506.341    500.718
 70.770    604.000    569.150     34.850    500.810    563.083    500.810    506.869    500.810
 70.870    601.739    580.398     21.341    500.901    573.829    500.901    507.457    500.901
 70.970    585.000    598.455    -13.455    500.991    591.307    500.991    508.119    500.991
 71.070    660.990    627.055     33.936    501.081    619.231    501.081    508.875    501.081
 71.170    626.099    671.103    -45.004    501.170    662.474    501.170    509.755    501.170
 71.270    718.000    736.259    -18.259    501.258    726.646    501.258    510.808    501.258
 71.370    842.000    827.994     14.006    501.346    817.137    501.346    512.114    501.346
 71.470    906.324    950.048    -43.723    501.433    937.558    501.433    513.804    501.433
 71.570   1077.384   1102.542    -25.158    501.519   1087.828    501.519    516.083    501.519
 71.670   1264.000   1280.159    -16.159    501.605   1262.324    501.605    519.259    501.605
 71.770   1475.000   1470.915      4.085    501.690   1448.625    501.690    523.774    501.690
 71.870   1728.470   1655.952     72.517    501.774   1627.295    501.774    530.213    501.774
 71.970   1778.000   1811.027    -33.027    501.858   1773.377    501.858    539.293    501.858
 72.070   1916.000   1911.008      4.992    501.941   1860.958    501.941    551.798    501.941
 72.170   1988.000   1938.161     49.839    502.023   1871.567    502.023    568.461    502.023
 72.270   1938.000   1890.504     47.496    502.104   1802.707    502.104    589.786    502.104
 72.370   1752.000   1782.982    -30.982    502.185   1669.251    502.185    615.839    502.185
 72.470   1667.000   1639.987     27.013    502.264   1496.179    502.264    646.024    502.264
 72.570   1421.157   1485.953    -64.796    502.343   1309.371    502.343    678.897    502.343
 72.670   1377.000   1339.554     37.446    502.422   1129.948    502.422    712.011    502.422
 72.770   1218.697   1211.564      7.133    502.499    972.168    502.499    741.883    502.499
 72.870   1059.681   1105.031    -45.350    502.575    843.311    502.575    764.282    502.575
 72.970    971.000   1017.280    -46.280    502.651    744.722    502.651    775.196    502.651
 73.070    846.000    943.216    -97.216    502.726    673.552    502.726    772.376    502.726
 73.170    907.265    878.393     28.871    502.800    624.716    502.800    756.464    502.800
 73.270    873.970    820.332     53.638    502.873    592.560    502.873    730.633    502.873
 73.370    727.285    768.190    -40.905    502.945    571.997    502.945    699.128    502.945
 73.470    717.000    721.958     -4.958    503.017    559.042    503.017    665.925    503.017
 73.570    652.454    681.905    -29.451    503.087    550.903    503.087    634.085    503.087
 73.670    684.117    648.282     35.834    503.157    545.806    503.157    605.631    503.157
 73.770    646.671    621.137     25.535    503.225    542.724    503.225    581.639    503.225
 73.870    611.807    600.223     11.584    503.293    541.112    503.293    562.408    503.293
 73.970    561.000    584.994    -23.994    503.360    540.693    503.360    547.669    503.360
 74.070    582.002    574.667      7.336    503.426    541.306    503.426    536.799    503.426
 74.170    610.342    568.315     42.028    503.490    542.794    503.490    529.029    503.490
 74.270    542.000    564.958    -22.958    503.554    544.942    503.554    523.594    503.554
 74.370    594.000    563.618     30.382    503.617    547.439    503.617    519.826    503.617
 74.470    550.069    563.353    -13.284    503.679    549.869    503.679    517.200    503.679
 74.570    610.000    563.291     46.709    503.740    551.741    503.740    515.331    503.740
 74.670    629.000    562.693     66.307    503.800    552.580    503.800    513.957    503.800
 74.770    598.000    561.077     36.923    503.859    552.074    503.859    512.907    503.859
 74.870    585.000    558.328     26.672    503.917    550.215    503.917    512.072    503.917
 74.970    644.000    554.687     89.313    503.973    547.311    503.973    511.388    503.973
 75.070    592.633    550.613     42.020    504.029    543.863    504.029    510.813    504.029
 75.170    579.000    546.639     32.361    504.084    540.427    504.084    510.322    504.084
 75.270    520.285    543.283    -22.998    504.137    537.542    504.137    509.899    504.137
 75.370    536.000    541.042     -5.042    504.190    535.715    504.190    509.531    504.190
 75.470    539.078    540.404     -1.326    504.241    535.444    504.241    509.209    504.241
 75.570    521.004    541.870    -20.866    504.292    537.238    504.292    508.926    504.292
 75.670    583.437    545.972     37.465    504.341    541.631    504.341    508.677    504.341
 75.770    556.000    553.235      2.765    504.389    549.156    504.389    508.457    504.389
 75.870    571.000    564.106      6.894    504.436    560.262    504.436    508.262    504.436
 75.970    552.737    578.811    -26.074    504.482    575.179    504.482    508.089    504.482
 76.070    558.352    597.192    -38.840    504.526    593.749    504.526    507.936    504.526
 76.170    603.000    618.541    -15.541    504.570    615.270    504.570    507.798    504.570
 76.270    656.000    641.494     14.506    504.612    638.379    504.612    507.676    504.612
 76.370    650.254    663.998    -13.744    504.654    661.026    504.654    507.566    504.654
 76.470    650.000    683.417    -33.417    504.694    680.579    504.694    507.468    504.694
 76.570    678.241    696.859    -18.619    504.732    694.146    504.732    507.379    504.732
 76.670    688.000    701.881    -13.881    504.770    699.288    504.770    507.300    504.770
 76.770    630.000    697.430    -67.430    504.806    694.950    504.806    507.228    504.806
 76.870    645.000    684.340    -39.340    504.842    681.968    504.842    507.164    504.842
 76.970    698.000    664.922     33.078    504.876    662.652    504.876    507.105    504.876
 77.070    623.000    642.038    -19.038    504.908    639.863    504.908    507.052    504.908
 77.170    621.000    618.356      2.644    504.940    616.269    504.940    507.004    504.940
 77.270    624.354    595.975     28.380    504.970    593.969    504.970    506.960    504.970
 77.370    578.595    576.297      2.297    504.999    574.366    504.999    506.920    504.999
 77.470    550.822    560.042     -9.220    505.027    558.179    505.027    506.883    505.027
 77.570    527.000    547.342    -20.342    505.053    545.541    505.053    506.849    505.053
 77.670    581.133    537.904     43.229    505.078    536.161    505.078    506.818    505.078
 77.770    536.413    531.196      5.217    505.102    529.506    505.102    506.790    505.102
 77.870    543.000    526.596     16.404    505.125    524.956    505.125    506.763    505.125
 77.970    487.592    523.493    -35.901    505.146    521.900    505.146    506.738    505.146
 78.070    504.000    521.474    -17.474    505.166    519.924    505.166    506.715    505.166
 78.170    534.000    520.153     13.847    505.185    518.643    505.185    506.693    505.185
 78.270    494.000    519.272    -25.272    505.202    517.800    505.202    506.673    505.202
 78.370    534.214    518.670     15.544    505.218    517.234    505.218    506.653    505.218
 78.470    513.940    518.252     -4.312    505.233    516.848    505.233    506.635    505.233
 78.570    476.000    517.963    -41.963    505.246    516.591    505.246    506.617    505.246
 78.670    515.000    517.781     -2.781    505.258    516.437    505.258    506.600    505.258
 78.770    539.000    517.696     21.304    505.268    516.379    505.268    506.584    505.268
 78.870    511.687    517.714     -6.027    505.277    516.422    505.277    506.569    505.277
 78.970    508.275    517.855     -9.580    505.285    516.585    505.285    506.555    505.285
 79.070    486.000    518.140    -32.140    505.292    516.889    505.292    506.542    505.292
 79.170    521.995    518.598      3.398    505.297    517.363    505.297    506.530    505.297
 79.270    532.573    519.260     13.313    505.300    518.038    505.300    506.521    505.300
 79.370    545.799    520.161     25.638    505.302    518.947    505.302    506.515    505.302
 79.470    539.461    521.335     18.126    505.303    520.124    505.303    506.512    505.303
 79.570    540.749    522.820     17.930    505.302    521.604    505.302    506.515    505.302
 79.670    550.000    524.661     25.339    505.300    523.433    505.300    506.524    505.300
 79.770    477.000    526.927    -49.927    505.297    525.679    505.297    506.540    505.297
 79.870    516.000    529.724    -13.724    505.292    528.445    505.292    506.566    505.292
 79.970    508.000    533.215    -25.215    505.285    531.894    505.285    506.601    505.285
 80.070    560.000    537.636     22.364    505.278    536.264    505.278    506.645    505.278
 80.170    537.000    543.322     -6.322    505.268    541.889    505.268    506.697    505.268
 80.270    520.000    550.703    -30.703    505.258    549.201    505.258    506.756    505.258
 80.370    581.341    560.263     21.078    505.245    558.690    505.245    506.818    505.245
 80.470    529.000    572.444    -43.444    505.232    570.800    505.232    506.877    505.232
 80.570    583.000    587.518     -4.518    505.216    585.813    505.216    506.927    505.216
 80.670    572.000    605.471    -33.471    505.200    603.721    505.200    506.960    505.200
 80.770    619.879    625.911     -6.032    505.181    624.140    505.181    506.968    505.181
 80.870    663.000    648.030     14.970    505.162    646.268    505.162    506.945    505.162
 80.970    604.000    670.640    -66.640    505.140    668.917    505.140    506.891    505.140
 81.070    699.000    692.313      6.687    505.118    690.656    505.118    506.808    505.118
 81.170    703.000    711.598     -8.598    505.094    710.028    505.094    506.705    505.094
 81.270    722.868    727.226     -4.358    505.068    725.753    505.068    506.589    505.068
 81.370    738.000    738.219     -0.219    505.041    736.847    505.041    506.467    505.041
 81.470    725.000    743.965    -18.965    505.012    742.692    505.012    506.346    505.012
 81.570    768.000    744.280     23.720    504.981    743.097    504.981    506.230    504.981
 81.670    740.181    739.386      0.796    504.949    738.284    504.949    506.120    504.949
 81.770    829.000    729.818     99.182    504.916    728.786    504.916    506.019    504.916
 81.870    729.824    716.376     13.448    504.881    715.402    504.881    505.927    504.881
 81.970    742.000    700.126     41.874    504.845    699.197    504.845    505.844    504.845
 82.070    679.798    682.284     -2.487    504.806    681.391    504.806    505.768    504.806
 82.170    678.000    663.984     14.016    504.767    663.119    504.767    505.698    504.767
 82.270    675.000    646.055     28.945    504.726    645.209    504.726    505.633    504.726
 82.370    610.000    628.964    -18.964    504.683    628.132    504.683    505.572    504.683
 82.470    584.000    612.924    -28.924    504.638    612.102    504.638    505.513    504.638
 82.570    596.623    598.064     -1.441    504.593    597.248    504.593    505.456    504.593
 82.670    614.000    584.550     29.450    504.545    583.737    504.545    505.399    504.545
 82.770    578.000    572.597      5.403    504.496    571.786    504.496    505.342    504.496
 82.870    533.431    562.429    -28.999    504.445    561.617    504.445    505.285    504.445
 82.970    530.000    554.236    -24.236    504.393    553.421    504.393    505.227    504.393
 83.070    495.000    548.153    -53.153    504.339    547.335    504.339    505.169    504.339
 83.170    500.871    544.253    -43.382    504.284    543.432    504.284    505.109    504.284
 83.270    595.000    542.528     52.472    504.227    541.703    504.227    505.049    504.227
 83.370    579.000    542.869     36.131    504.168    542.039    504.168    504.987    504.168
 83.470    569.851    545.051     24.801    504.108    544.216    504.108    504.924    504.108
 83.570    572.830    548.721     24.109    504.046    547.881    504.046    504.861    504.046
 83.670    567.000    553.403     13.597    503.982    552.557    503.982    504.795    503.982
 83.770    568.000    558.507      9.493    503.917    557.656    503.917    504.729    503.917
 83.870    569.544    563.361      6.183    503.850    562.506    503.850    504.661    503.850
 83.970    512.000    567.262    -55.262    503.782    566.405    503.782    504.592    503.782
 84.070    585.120    569.572     15.548    503.712    568.714    503.712    504.522    503.712
 84.170    547.000    569.844    -22.844    503.640    568.987    503.640    504.451    503.640
 84.270    593.785    567.947     25.838    503.567    567.092    503.567    504.378    503.567
 84.370    552.000    564.094    -12.094    503.492    563.243    503.492    504.304    503.492
 84.470    565.933    558.761      7.172    503.416    557.914    503.416    504.228    503.416
 84.570    507.000    552.534    -45.534    503.338    551.691    503.338    504.151    503.338
 84.670    494.000    545.990    -51.990    503.258    545.151    503.258    504.073    503.258
 84.770    530.000    539.623     -9.623    503.177    538.787    503.177    503.994    503.177
 84.870    521.000    533.802    -12.802    503.094    532.967    503.094    503.913    503.094
 84.970    505.888    528.762    -22.875    503.009    527.929    503.009    503.831    503.009
 85.070    478.577    524.615    -46.038    502.923    523.781    502.923    503.747    502.923
 85.170    513.273    521.362     -8.088    502.835    520.527    502.835    503.663    502.835
 85.270    566.000    518.932     47.068    502.745    518.095    502.745    503.576    502.745
 85.370    510.696    517.213     -6.517    502.654    516.373    502.654    503.489    502.654
 85.470    516.000    516.079     -0.079    502.561    515.236    502.561    503.400    502.561
 85.570    520.891    515.417      5.474    502.467    514.570    502.467    503.310    502.467
 85.670    542.000    515.140     26.860    502.370    514.288    502.370    503.218    502.370
 85.770    499.000    515.195    -16.195    502.273    514.337    502.273    503.125    502.273
 85.870    515.477    515.571     -0.094    502.173    514.707    502.173    503.031    502.173
 85.970    471.700    516.300    -44.599    502.072    515.429    502.072    502.936    502.072
 86.070    539.000    517.455     21.545    501.969    516.577    501.969    502.839    501.969
 86.170    535.000    519.155     15.845    501.865    518.268    501.865    502.741    501.865
 86.270    488.978    521.555    -32.577    501.759    520.658    501.759    502.641    501.759
 86.370    504.115    524.838    -20.724    501.652    523.930    501.652    502.541    501.652
 86.470    512.918    529.201    -16.283    501.542    528.281    501.542    502.439    501.542
 86.570    577.000    534.826     42.174    501.431    533.891    501.431    502.336    501.431
 86.670    566.000    541.846     24.154    501.319    540.894    501.319    502.231    501.319
 86.770    567.000    550.303     16.697    501.205    549.332    501.205    502.126    501.205
 86.870    550.000    560.107    -10.107    501.089    559.115    501.089    502.019    501.089
 86.970    567.000    571.000     -4.000    500.971    569.987    500.971    501.911    500.971
 87.070    579.000    582.536     -3.536    500.852    581.500    500.852    501.802    500.852
 87.170    573.000    594.075    -21.075    500.732    593.016    500.732    501.692    500.732
 87.270    656.180    604.803     51.377    500.609    603.724    500.609    501.580    500.609
 87.370    625.028    613.794     11.234    500.485    612.696    500.485    501.468    500.485
 87.470    595.646    620.123    -24.476    500.360    619.009    500.360    501.354    500.360
 87.570    642.000    623.053     18.947    500.232    621.928    500.232    501.240    500.232
 87.670    577.018    622.304    -45.286    500.104    621.172    500.104    501.124    500.104
 87.770    600.080    618.068    -17.988    499.973    616.932    499.973    501.008    499.973
 87.870    563.013    610.982    -47.969    499.841    609.843    499.841    500.890    499.841
 87.970    637.000    601.941     35.059    499.707    600.801    499.707    500.772    499.707
 88.070    591.000    591.929     -0.929    499.572    590.787    499.572    500.652    499.572
 88.170    620.000    581.898     38.102    499.435    580.755    499.435    500.531    499.435
 88.270    565.007    572.700     -7.693    499.297    571.552    499.297    500.410    499.297
 88.370    566.000    565.027      0.973    499.156    563.871    499.156    500.289    499.156
 88.470    522.253    559.383    -37.130    499.015    558.218    499.015    500.167    499.015
 88.570    565.000    556.065      8.935    498.871    554.888    498.871    500.044    498.871
 88.670    595.000    555.162     39.838    498.726    553.972    498.726    499.921    498.726
 88.770    569.000    556.567     12.433    498.580    555.362    498.580    499.798    498.580
 88.870    582.020    559.990     22.030    498.432    558.767    498.432    499.675    498.432
 88.970    572.000    564.978      7.022    498.282    563.737    498.282    499.551    498.282
 89.070    598.000    570.945     27.055    498.131    569.686    498.131    499.427    498.131
 89.170    599.000    577.202     21.798    497.978    575.921    497.978    499.303    497.978
 89.270    566.000    582.992    -16.992    497.824    581.688    497.824    499.180    497.824
 89.370    582.068    587.557     -5.489    497.668    586.226    497.668    499.056    497.668
 89.470    589.703    590.227     -0.523    497.510    588.866    497.510    498.933    497.510
 89.570    617.000    590.543     26.457    497.351    589.148    497.351    498.811    497.351
 89.670    596.000    588.365      7.635    497.190    586.931    497.190    498.690    497.190
 89.770    552.214    583.892    -31.678    497.028    582.414    497.028    498.570    497.028
 89.870    520.000    577.590    -57.590    496.864    576.063    496.864    498.451    496.864
 89.970    536.000    570.061    -34.061    496.699    568.480    496.699    498.334    496.699
 90.070    556.000    561.922     -5.922    496.532    560.283    496.532    498.219    496.532
 90.170    587.000    553.732     33.268    496.364    552.031    496.364    498.106    496.364
 90.270    539.000    545.948     -6.948    496.194    544.180    496.194    497.996    496.194
 90.370    578.623    538.903     39.720    496.023    537.063    496.023    497.890    496.023
 90.470    480.000    532.805    -52.805    495.850    530.888    495.850    497.787    495.850
 90.570    494.000    527.745    -33.745    495.676    525.747    495.676    497.690    495.676
 90.670    540.000    523.722     16.278    495.500    521.636    495.500    497.598    495.500
 90.770    520.000    520.663     -0.663    495.322    518.481    495.322    497.513    495.322
 90.870    545.000    518.455     26.545    495.144    516.166    495.144    497.437    495.144
 90.970    507.000    516.971     -9.971    494.963    514.564    494.963    497.373    494.963
 91.070    478.000    516.090    -38.090    494.781    513.549    494.781    497.324    494.781
 91.170    522.000    515.707      6.293    494.598    513.010    494.598    497.295    494.598
 91.270    527.000    515.727     11.273    494.414    512.847    494.414    497.293    494.414
 91.370    527.000    516.223     10.777    494.227    513.122    494.227    497.327    494.227
 91.470    495.000    517.179    -22.179    494.040    513.807    494.040    497.409    494.040
 91.570    532.000    518.660     13.340    493.851    514.952    493.851    497.555    493.851
 91.670    520.000    520.791     -0.791    493.660    516.658    493.660    497.787    493.660
 91.770    527.550    523.740      3.810    493.469    519.071    493.469    498.130    493.469
 91.870    494.000    527.723    -33.723    493.275    522.373    493.275    498.615    493.275
 91.970    522.000    532.986    -10.986    493.081    526.776    493.081    499.278    493.081
 92.070    559.000    539.796     19.204    492.885    532.508    492.885    500.156    492.885
 92.170    593.735    548.416     45.319    492.687    539.790    492.687    501.292    492.687
 92.270    589.000    559.081     29.919    492.488    548.818    492.488    502.726    492.488
 92.370    544.000    571.961    -27.961    492.288    559.727    492.288    504.490    492.288
 92.470    541.000    587.132    -46.132    492.087    572.572    492.087    506.608    492.087
 92.570    582.845    604.551    -21.706    491.884    587.293    491.884    509.096    491.884
 92.670    674.000    624.020     49.980    491.680    603.704    491.680    511.943    491.680
 92.770    684.000    645.168     38.832    491.474    621.468    491.474    515.114    491.474
 92.870    661.000    667.473     -6.473    491.267    640.126    491.267    518.548    491.267
 92.970    690.861    690.234      0.627    491.059    659.073    491.059    522.148    491.059
 93.070    694.000    712.636    -18.636    490.850    677.625    490.850    525.784    490.850
 93.170    770.089    733.838     36.250    490.639    695.109    490.639    529.288    490.639
 93.270    779.000    753.104     25.896    490.427    710.994    490.427    532.455    490.427
 93.370    753.656    769.935    -16.278    490.214    725.010    490.214    535.056    490.214
 93.470    836.000    784.137     51.863    489.999    737.192    489.999    536.864    489.999
 93.570    779.000    795.801    -16.801    489.784    747.815    489.784    537.690    489.784
 93.670    845.000    805.214     39.786    489.567    757.273    489.567    537.429    489.567
 93.770    769.907    812.786    -42.879    489.348    765.969    489.348    536.090    489.348
 93.870    889.000    819.008     69.992    489.129    774.276    489.129    533.788    489.129
 93.970    790.000    824.450    -34.450    488.908    782.568    488.908    530.720    488.908
 94.070    882.964    829.761     53.204    488.687    791.265    488.687    527.115    488.687
 94.170    881.000    835.608     45.392    488.464    800.807    488.464    523.200    488.464
 94.270    887.000    842.534     44.466    488.239    811.537    488.239    519.175    488.239
 94.370    890.000    850.774     39.226    488.014    823.525    488.014    515.205    488.014
 94.470    894.000    860.108     33.892    487.788    836.425    487.788    511.415    487.788
 94.570    872.002    869.813      2.189    487.560    849.425    487.560    507.898    487.560
 94.670    939.000    878.706     60.294    487.331    861.281    487.331    504.712    487.331
 94.770    915.000    885.274     29.726    487.102    870.451    487.102    501.888    487.102
 94.870    925.000    887.894     37.106    486.871    875.305    486.871    499.431    486.871
 94.970    911.847    885.129     26.718    486.639    874.418    486.639    497.330    486.639
 95.070    907.000    876.059     30.941    486.406    866.896    486.406    495.559    486.406
 95.170    869.000    860.534      8.466    486.172    852.622    486.172    494.082    486.172
 95.270    870.000    839.221     30.779    485.937    832.305    485.937    492.859    485.937
 95.370    910.000    813.464     96.536    485.701    807.326    485.701    491.849    485.701
 95.470    766.000    785.066    -19.066    485.464    779.529    485.464    491.015    485.464
 95.570    772.000    755.961     16.039    485.225    750.881    485.225    490.321    485.225
 95.670    717.000    728.097    -11.097    484.986    723.361    484.986    489.737    484.986
 95.770    769.000    703.305     65.695    484.746    698.825    484.746    489.239    484.746
 95.870    661.022    683.237    -22.215    484.505    678.944    484.505    488.806    484.505
 95.970    709.454    669.330     40.123    484.264    665.173    484.264    488.423    484.264
 96.070    664.000    662.812      1.188    484.021    658.749    484.021    488.078    484.021
 96.170    648.000    664.705    -16.705    483.777    660.705    483.777    487.763    483.777
 96.270    663.000    675.841    -12.841    483.532    671.878    483.532    487.472    483.532
 96.370    703.000    696.860      6.140    483.287    692.915    483.287    487.199    483.287
 96.470    748.000    728.182     19.818    483.041    724.235    483.041    486.942    483.041
 96.570    767.846    769.940     -2.093    482.793    765.978    482.793    486.699    482.793
 96.670    853.000    821.892     31.108    482.545    817.901    482.545    486.469    482.545
 96.770    861.089    883.309    -22.220    482.297    879.277    482.297    486.251    482.297
 96.870    936.000    952.869    -16.869    482.047    948.785    482.047    486.043    482.047
 96.970   1024.000   1028.576     -4.576    481.797   1024.431    481.797    485.847    481.797
 97.070   1127.000   1107.724     19.276    481.546   1103.509    481.546    485.661    481.546
 97.170   1214.000   1186.907     27.093    481.294   1182.614    481.294    485.487    481.294
 97.270   1263.000   1262.111      0.889    481.041   1257.733    481.041    485.324    481.041
 97.370   1384.242   1328.905     55.337    480.788   1324.434    480.788    485.173    480.788
 97.470   1381.000   1382.779     -1.779    480.534   1378.206    480.534    485.034    480.534
 97.570   1422.817   1419.700      3.118    480.280   1415.015    480.280    484.909    480.280
 97.670   1504.000   1436.781     67.219    480.024   1431.973    480.024    484.798    480.024
 97.770   1420.689   1432.874    -12.185    479.768   1427.927    479.768    484.703    479.768
 97.870   1448.521   1408.782     39.739    479.512   1403.677    479.512    484.625    479.512
 97.970   1371.000   1367.010      3.990    479.255   1361.724    479.255    484.567    479.255
 98.070   1309.015   1311.207     -2.193    478.997   1305.715    478.997    484.531    478.997
 98.170   1228.000   1245.572    -17.572    478.739   1239.842    478.739    484.521    478.739
 98.270   1227.000   1174.395     52.605    478.480   1168.390    478.480    484.543    478.480
 98.370   1055.556   1101.749    -46.193    478.221   1095.427    478.221    484.603    478.221
 98.470   1023.000   1031.301     -8.301    477.961   1024.610    477.961    484.712    477.961
 98.570    952.000    966.206    -14.206    477.701    959.081    477.701    484.882    477.701
 98.670    905.000    909.071     -4.071    477.440    901.429    477.440    485.131    477.440
 98.770    874.448    861.970     12.479    477.179    853.708    477.179    485.482    477.179
 98.870    805.480    826.499    -21.019    476.918    817.481    476.918    485.968    476.918
 98.970    849.267    803.841     45.426    476.656    793.893    476.656    486.627    476.656
 99.070    829.099    794.833     34.266    476.393    783.728    476.393    487.512    476.393
 99.170    804.793    800.102      4.691    476.131    787.554    476.131    488.684    476.131
 99.270    786.000    820.003    -34.003    475.868    805.646    475.868    490.221    475.868
 99.370    828.000    854.700    -26.700    475.605    838.081    475.605    492.212    475.605
 99.470    897.000    904.125     -7.125    475.341    884.691    475.341    494.759    475.341
 99.570   1001.000    967.923     33.077    475.077    945.007    475.077    497.973    475.077
 99.670   1062.000   1045.357     16.643    474.813   1018.178    474.813    501.972    474.813
 99.770   1162.000   1135.225     26.775    474.549   1102.885    474.549    506.870    474.549
 99.870   1217.000   1235.761    -18.761    474.284   1197.256    474.284    512.775    474.284
 99.970   1270.076   1344.568    -74.492    474.020   1298.808    474.020    519.773    474.020
100.070   1422.883   1458.582    -35.699    473.755   1404.420    473.755    527.923    473.755
100.170   1610.857   1574.107     36.750    473.490   1510.381    473.490    537.237    473.490
100.270   1722.000   1686.961     35.039    473.225   1612.550    473.225    547.678    473.225
100.370   1726.000   1792.759    -66.759    472.960   1706.645    472.960    559.139    472.960
100.470   1849.000   1887.313    -38.313    472.694   1788.655    472.694    571.443    472.694
100.570   1980.000   1967.013     12.987    472.429   1855.228    472.429    584.331    472.429
100.670   2032.502   2029.044      3.458    472.164   1903.894    472.164    597.457    472.164
100.770   2171.000   2071.368     99.632    471.899   1933.049    471.899    610.384    471.899
100.870   2091.787   2092.590     -0.803    471.633   1941.818    471.633    622.592    471.633
100.970   2022.869   2091.915    -69.046    471.368   1929.999    471.368    633.488    471.368
101.070   2135.000   2069.310     65.690    471.103   1898.187    471.103    642.441    471.103
101.170   2111.000   2025.823     85.177    470.838   1848.036    470.838    648.848    470.838
101.270   1908.613   1963.824    -55.211    470.574   1782.407    470.574    652.215    470.574
101.370   2039.000   1886.975    152.025    470.309   1705.253    470.309    652.252    470.309
101.470   1795.000   1799.872     -4.872    470.044   1621.195    470.044    648.934    470.044
101.570   1709.000   1707.490      1.510    469.780   1534.961    469.780    642.510    469.780
101.670   1589.000   1614.618    -25.618    469.516   1450.878    469.516    633.442    469.516
101.770   1509.000   1525.423    -16.423    469.252   1372.521    469.252    622.323    469.252
101.870   1444.812   1443.167      1.645    468.989   1302.523    468.989    609.785    468.989
101.970   1397.000   1370.080     26.920    468.726   1242.512    468.726    596.431    468.726
102.070   1250.788   1307.329    -56.541    468.463   1193.119    468.463    582.795    468.463
102.170   1208.453   1255.066    -46.613    468.201   1154.046    468.201    569.329    468.201
102.270   1190.000   1212.526    -22.526    467.939   1124.169    467.939    556.394    467.939
102.370   1154.000   1178.173    -24.173    467.677   1101.677    467.677    544.264    467.677
102.470   1102.000   1149.889    -47.889    467.416   1084.260    467.416    533.131    467.416
102.570   1063.000   1125.209    -62.209    467.156   1069.336    467.156    523.111    467.156
102.670   1065.000   1101.621    -36.621    466.895   1054.345    466.895    514.254    466.895
102.770   1071.944   1076.895     -4.951    466.636   1037.059    466.636    506.555    466.636
102.870   1015.000   1049.374    -34.374    466.377   1015.872    466.377    499.963    466.377
102.970   1043.000   1018.157     24.843    466.119    989.965    466.119    494.395    466.119
103.070    978.000    983.111     -5.111    465.861    959.310    465.861    489.747    465.861
103.170    916.000    944.731    -28.731    465.604    924.514    465.604    485.904    465.604
103.270    923.544    903.927     19.617    465.347    886.606    465.347    482.749    465.347
103.370    810.000    861.820    -51.820    465.092    846.819    465.092    480.169    465.092
103.470    845.000    819.578     25.422    464.837    806.425    464.837    478.061    464.837
103.570    793.000    778.308     14.692    464.583    766.624    464.583    476.333    464.583
103.670    769.000    738.983     30.017    464.329    728.465    464.329    474.906    464.329
103.770    708.000    702.388      5.612    464.077    692.803    464.077    473.715    464.077
103.870    697.000    669.099     27.901    463.825    660.263    463.825    472.707    463.825
103.970    616.000    639.477    -23.477    463.575    631.250    463.575    471.840    463.575
104.070    612.000    613.670     -1.670    463.325    605.946    463.325    471.081    463.325
104.170    641.000    591.643     49.357    463.076    584.339    463.076    470.406    463.076
104.270    618.000    573.209     44.791    462.828    566.262    462.828    469.797    462.828
104.370    563.489    558.074      5.415    462.581    551.435    462.581    469.238    462.581
104.470    516.000    545.872    -29.872    462.336    539.501    462.336    468.721    462.336
104.570    551.077    536.229     14.847    462.091    530.094    462.091    468.237    462.091
104.670    555.254    528.752     26.502    461.848    522.826    461.848    467.781    461.848
104.770    543.493    523.080     20.413    461.605    517.341    461.605    467.349    461.605
104.870    485.763    518.896    -33.133    461.364    513.326    461.364    466.938    461.364
104.970    545.000    515.937     29.063    461.124    510.519    461.124    466.544    461.124
105.070    470.799    513.992    -43.193    460.886    508.714    460.886    466.163    460.886
105.170    524.000    512.919     11.081    460.648    507.764    460.648    465.802    460.648
105.270    512.000    512.617     -0.617    460.412    507.571    460.412    465.455    460.412
105.370    547.181    513.036     34.145    460.178    508.088    460.178    465.121    460.178
105.470    534.000    514.172     19.828    459.945    509.311    459.945    464.800    459.945
105.570    494.000    516.057    -22.057    459.713    511.272    459.713    464.489    459.713
105.670    510.000    518.754     -8.754    459.482    514.037    459.482    464.190    459.482
105.770    518.000    522.348     -4.348    459.254    517.689    459.254    463.900    459.254
105.870    497.000    526.934    -29.934    459.026    522.328    459.026    463.617    459.026
105.970    513.000    532.605    -19.605    458.801    528.051    458.801    463.337    458.801
106.070    564.000    539.457     24.543    458.577    534.939    458.577    463.074    458.577
106.170    584.000    547.534     36.466    458.354    543.044    458.354    462.821    458.354
106.270    544.000    556.839    -12.839    458.133    552.370    458.133    462.576    458.133
106.370    595.559    567.321     28.238    457.914    562.866    457.914    462.339    457.914
106.470    551.494    578.860    -27.366    457.697    574.413    457.697    462.110    457.697
106.570    655.000    591.268     63.732    457.482    586.824    457.482    461.889    457.482
106.670    593.000    604.284    -11.284    457.268    599.836    457.268    461.675    457.268
106.770    604.675    617.580    -12.905    457.056    613.124    457.056    461.469    457.056
106.870    608.765    630.769    -22.004    456.846    626.300    456.846    461.270    456.846
106.970    669.000    643.426     25.574    456.639    638.939    456.639    461.078    456.639
107.070    635.126    655.100    -19.974    456.433    650.591    456.433    460.894    456.433
107.170    676.822    665.356     11.466    456.229    660.820    456.229    460.717    456.229
107.270    651.018    673.814    -22.796    456.027    669.248    456.027    460.547    456.027
107.370    593.000    680.207    -87.207    455.827    675.606    455.827    460.385    455.827
107.470    721.000    684.426     36.574    455.630    679.785    455.630    460.230    455.630
107.570    687.000    686.548      0.452    455.434    681.863    455.434    460.083    455.434
107.670    693.461    686.833      6.628    455.241    682.099    455.241    459.944    455.241
107.770    664.000    685.680    -21.680    455.050    680.891    455.050    459.812    455.050
107.870    648.000    683.568    -35.568    454.862    678.718    454.862    459.688    454.862
107.970    705.135    680.988     24.147    454.676    676.073    454.676    459.572    454.676
108.070    669.000    678.393     -9.393    454.492    673.406    454.492    459.465    454.492
108.170    664.198    676.150    -11.952    454.310    671.085    454.310    459.366    454.310
108.270    646.000    674.517    -28.517    454.131    669.367    454.131    459.276    454.131
108.370    693.542    673.627     19.916    453.955    668.385    453.955    459.195    453.955
108.470    714.242    673.478     40.764    453.781    668.137    453.781    459.124    453.781
108.570    677.000    673.938      3.062    453.610    668.492    453.610    459.062    453.610
108.670    663.574    674.755    -11.181    453.441    669.196    453.441    459.010    453.441
108.770    712.809    675.575     37.234    453.275    669.895    453.275    458.969    453.275
108.870    661.448    675.977    -14.529    453.112    670.167    453.112    458.938    453.112
108.970    683.000    675.516      7.484    452.952    669.567    452.952    458.919    452.952
109.070    638.000    673.783    -35.783    452.794    667.686    452.794    458.912    452.794
109.170    672.377    670.460      1.917    452.639    664.205    452.639    458.917    452.639
109.270    667.000    665.371      1.629    452.487    658.948    452.487    458.935    452.487
109.370    659.000    658.500      0.500    452.339    651.898    452.339    458.967    452.339
109.470    613.000    649.987    -36.987    452.193    643.192    452.193    459.013    452.193
109.570    581.000    640.088    -59.088    452.050    633.088    452.050    459.074    452.050
109.670    621.000    629.134     -8.134    451.910    621.917    451.910    459.152    451.910
109.770    605.000    617.490    -12.490    451.773    610.041    451.773    459.246    451.773
109.870    644.000    605.495     38.505    451.640    597.797    451.640    459.359    451.640
109.970    596.000    593.545      2.455    451.509    585.583    451.509    459.491    451.509
110.070    562.000    581.948    -19.948    451.382    573.704    451.382    459.644    451.382
110.170    617.115    570.957     46.158    451.258    562.411    451.258    459.820    451.258
110.270    571.000    560.783     10.217    451.138    551.915    451.138    460.020    451.138
110.370    531.129    551.588    -20.459    451.021    542.373    451.021    460.247    451.021
110.470    565.000    543.476     21.524    450.908    533.889    450.908    460.504    450.908
110.570    510.425    536.505    -26.080    450.798    526.516    450.798    460.794    450.798
110.670    497.590    530.684    -33.093    450.691    520.259    450.691    461.121    450.691
110.770    524.000    525.986     -1.986    450.588    515.087    450.588    461.491    450.588
110.870    512.000    522.357    -10.357    450.489    510.937    450.489    461.911    450.489
110.970    497.714    519.721    -22.007    450.393    507.726    450.393    462.389    450.393
111.070    476.203    517.991    -41.788    450.301    505.354    450.301    462.937    450.301
111.170    525.000    517.077      7.923    450.213    503.719    450.213    463.569    450.213
111.270    505.000    516.891    -11.891    450.129    502.715    450.129    464.302    450.129
111.370    520.000    517.357      2.643    450.049    502.243    450.049    465.158    450.049
111.470    522.572    518.408      4.164    449.972    502.208    449.972    466.167    449.972
111.570    538.000    519.996     18.004    449.900    502.528    449.900    467.361    449.900
111.670    523.000    522.090      0.910    449.832    503.131    449.832    468.784    449.832
111.770    552.000    524.680     27.320    449.767    503.954    449.767    470.486    449.767
111.870    527.000    527.776     -0.776    449.707    504.947    449.707    472.528    449.707
111.970    496.888    531.412    -34.524    449.651    506.073    449.651    474.981    449.651
112.070    567.140    535.644     31.497    449.600    507.305    449.600    477.929    449.600
112.170    549.000    540.550      8.450    449.552    508.628    449.552    481.464    449.552
112.270    534.772    546.233    -11.461    449.509    510.039    449.509    485.693    449.509
112.370    564.133    552.815     11.318    449.470    511.545    449.470    490.730    449.470
112.470    603.000    560.435     42.565    449.436    513.161    449.436    496.699    449.436
112.570    530.000    569.245    -39.245    449.406    514.914    449.406    503.725    449.406
112.670    608.000    579.407     28.593    449.381    516.837    449.381    511.939    449.381
112.770    567.000    591.089    -24.089    449.361    518.973    449.361    521.464    449.361
112.870    607.000    604.459      2.541    449.345    521.375    449.345    532.415    449.345
112.970    606.160    619.682    -13.522    449.334    524.112    449.334    544.889    449.334
113.070    613.000    636.919    -23.919    449.327    527.272    449.327    558.958    449.327
113.170    641.000    656.323    -15.323    449.326    530.969    449.326    574.662    449.326
113.270    674.000    678.046     -4.046    449.329    535.354    449.329    592.002    449.329
113.370    712.859    702.237     10.622    449.337    540.625    449.337    610.928    449.337
113.470    751.000    729.055     21.945    449.350    547.044    449.350    631.337    449.350
113.570    767.000    758.680      8.320    449.369    554.955    449.369    653.066    449.369
113.670    746.543    791.330    -44.787    449.392    564.806    449.392    675.884    449.392
113.770    816.000    827.281    -11.281    449.421    577.173    449.421    699.492    449.421
113.870    851.055    866.894    -15.839    449.454    592.789    449.454    723.516    449.454
113.970    910.000    910.643     -0.643    449.493    612.575    449.493    747.511    449.493
114.070    902.937    959.146    -56.209    449.538    637.667    449.538    770.956    449.538
114.170    955.978   1013.192    -57.213    449.587    669.444    449.587    793.264    449.587
114.270   1093.000   1073.780     19.220    449.643    709.547    449.643    813.790    449.643
114.370   1198.000   1142.150     55.850    449.703    759.896    449.703    831.855    449.703
114.470   1208.000   1219.816    -11.816    449.770    822.681    449.770    846.783    449.770
114.570   1313.475   1308.599      4.876    449.841    900.344    449.841    857.951    449.841
114.670   1423.000   1410.641     12.359    449.919    995.537    449.919    864.850    449.919
114.770   1478.498   1528.396    -49.898    450.002   1111.047    450.002    867.147    450.002
114.870   1679.000   1664.575     14.425    450.091   1249.695    450.091    864.731    450.091
114.970   1822.000   1822.026     -0.026    450.186   1414.205    450.186    857.728    450.186
115.070   2085.798   2003.560     82.238    450.287   1607.042    450.287    846.483    450.287
115.170   2261.158   2211.711     49.447    450.394   1830.226    450.394    831.512    450.394
115.270   2625.000   2448.477    176.523    450.507   2085.126    450.507    813.444    450.507
115.370   2715.000   2715.048     -0.048    450.626   2372.255    450.626    792.958    450.626
115.470   2944.725   3011.551    -66.826    450.751   2691.065    450.751    770.731    450.751
115.570   3246.000   3336.838    -90.838    450.882   3039.770    450.882    747.405    450.882
115.670   3738.330   3688.323     50.007    451.020   3415.198    451.020    723.564    451.020
115.770   4013.000   4061.874    -48.874    451.164   3812.707    451.164    699.723    451.164
115.870   4299.000   4451.785   -152.785    451.314   4226.150    451.314    676.326    451.314
115.970   4874.504   4850.810     23.694    451.471   4647.914    451.471    653.740    451.471
116.070   5144.813   5250.279   -105.465    451.634   5069.036    451.634    632.260    451.634
116.170   5542.000   5640.287    -98.287    451.804   5479.388    451.804    612.113    451.804
116.270   6151.991   6009.973    142.018    451.981   5867.948    451.981    593.460    451.981
116.370   6375.000   6347.891     27.109    452.164   6223.171    452.164    576.399    452.164
116.470   6667.000   6642.497     24.503    452.354   6533.467    452.354    560.977    452.354
116.570   6915.585   6882.766     32.819    452.551   6787.812    452.551    547.191    452.551
116.670   7127.000   7058.946     68.054    452.755   6976.493    452.755    534.999    452.755
116.770   7142.124   7163.364    -21.240    452.966   7091.906    452.966    524.326    452.966
116.870   7292.000   7191.176    100.824    453.184   7129.303    453.184    515.075    453.184
116.970   7106.000   7140.928    -34.928    453.409   7087.337    453.409    507.131    453.409
117.070   7111.000   7014.714     96.286    453.641   6968.223    453.641    500.368    453.641
117.170   6865.000   6817.856     47.144    453.881   6777.407    453.881    494.660    453.881
117.270   6467.000   6558.363    -91.363    454.128   6523.023    454.128    489.877    454.128
117.370   6194.000   6246.139    -52.139    454.382   6215.094    454.382    485.898    454.382
117.470   5869.357   5892.179    -22.822    454.643   5864.729    454.643    482.609    454.643
117.570   5262.000   5507.863   -245.863    454.912   5483.413    454.912    479.905    454.912
117.670   5011.000   5104.379    -93.379    455.189   5082.429    455.189    477.693    455.189
117.770   4571.148   4692.281   -121.133    455.473   4672.413    455.473    475.892    455.473
117.870   4405.000   4281.147    123.853    455.766   4263.016    455.766    474.430    455.766
117.970   3918.517   3879.342     39.175    456.065   3862.665    456.065    473.247    456.065
118.070   3635.000   3493.854    141.146    456.373   3478.402    456.373    472.294    456.373
118.170   3282.000   3130.215    151.785    456.689   3115.802    456.689    471.529    456.689
118.270   2782.930   2792.501     -9.570    457.012   2778.976    457.012    470.917    457.012
118.370   2632.000   2483.387    148.613    457.344   2470.632    457.344    470.432    457.344
118.470   2240.000   2204.277     35.723    457.684   2192.195    457.684    470.051    457.684
118.570   1948.000   1955.458     -7.458    458.032   1943.972    458.032    469.758    458.032
118.670   1696.357   1736.289    -39.932    458.388   1725.337    458.388    469.538    458.388
118.770   1600.000   1545.389     54.611    458.752   1534.920    458.752    469.381    458.752
118.870   1332.000   1380.834    -48.834    459.126   1370.807    459.126    469.278    459.126
118.970   1177.841   1240.330    -62.490    459.507   1230.711    459.507    469.224    459.507
119.070   1082.225   1121.386    -39.161    459.897   1112.145    459.897    469.211    459.897
119.170   1057.000   1021.445     35.555    460.296   1012.556    460.296    469.238    460.296
119.270    964.309    938.003     26.305    460.703    929.443    460.703    469.299    460.703
119.370    847.000    868.693    -21.693    461.119    860.442    461.119    469.394    461.119
119.470    790.998    811.345    -20.347    461.544    803.384    461.544    469.520    461.544
119.570    756.000    764.022     -8.022    461.978    756.333    461.978    469.676    461.978
119.670    698.000    725.031    -27.031    462.421    717.597    462.421    469.860    462.421
119.770    744.902    692.923     51.980    462.873    685.727    462.873    470.071    462.873
119.870    635.857    666.479    -30.622    463.335    659.505    463.335    470.309    463.335
119.970    625.000    644.690    -19.690    463.805    637.921    463.805    470.574    463.805
120.070    600.073    626.729    -26.656    464.285    620.148    464.285    470.865    464.285
120.170    660.017    611.928     48.089    464.774    605.519    464.774    471.183    464.774
120.270    612.562    599.752     12.810    465.272    593.498    465.272    471.527    465.272
120.370    561.013    589.773    -28.761    465.780    583.657    465.780    471.898    465.780
120.470    556.000    581.657    -25.657    466.298    575.660    466.298    472.297    466.298
120.570    564.000    575.137    -11.137    466.825    569.241    466.825    472.724    466.825
120.670    555.000    570.004    -15.004    467.362    564.190    467.362    473.180    467.362
120.770    604.805    566.097     38.708    467.909    560.344    467.909    473.667    467.909
120.870    564.000    563.286      0.714    468.466    557.573    468.466    474.184    468.466
120.970    601.000    561.471     39.529    469.033    555.776    469.033    474.734    469.033
121.070    541.000    560.571    -19.571    469.610    554.870    469.610    475.318    469.610
121.170    556.000    560.520     -4.520    470.197    554.789    470.197    475.936    470.197
121.270    568.306    561.262      7.044    470.794    555.476    470.794    476.589    470.794
121.370    558.000    562.748     -4.748    471.402    556.880    471.402    477.279    471.402
121.470    545.514    564.928    -19.414    472.020    558.954    472.020    478.006    472.020
121.570    520.604    567.755    -47.151    472.648    561.646    472.648    478.770    472.648
121.670    578.957    571.174      7.783    473.287    564.905    473.287    479.571    473.287
121.770    546.000    575.127    -29.127    473.936    568.672    473.936    480.409    473.936
121.870    589.000    579.546      9.454    474.597    572.879    474.597    481.284    474.597
121.970    592.000    584.356      7.644    475.268    577.454    475.268    482.193    475.268
122.070    627.895    589.471     38.424    475.950    582.312    475.950    483.134    475.950
122.170    608.000    594.795     13.205    476.643    587.360    476.643    484.106    476.643
122.270    612.000    600.222     11.778    477.347    592.496    477.347    485.104    477.347
122.370    591.000    605.641    -14.641    478.062    597.611    478.062    486.126    478.062
122.470    580.000    610.931    -30.931    478.788    602.591    478.788    487.165    478.788
122.570    616.000    615.965      0.035    479.525    607.314    479.525    488.216    479.525
122.670    576.304    620.623    -44.318    480.274    611.664    480.274    489.276    480.274
122.770    651.000    624.782     26.218    481.035    615.524    481.035    490.337    481.035
122.870    613.132    628.330    -15.198    481.807    618.792    481.807    491.392    481.807
122.970    654.000    631.171     22.829    482.590    621.377    482.590    492.433    482.590
123.070    638.000    633.230      4.770    483.385    623.213    483.385    493.453    483.385
123.170    638.000    634.459      3.541    484.192    624.259    484.192    494.444    484.192
123.270    640.000    634.839      5.161    485.011    624.504    485.011    495.399    485.011
123.370    621.000    634.379    -13.379    485.842    623.962    485.842    496.311    485.842
123.470    634.000    633.115      0.885    486.685    622.674    486.685    497.177    486.685
123.570    669.571    631.105     38.466    487.540    620.701    487.540    497.994    487.540
123.670    605.682    628.422    -22.740    488.407    618.117    488.407    498.761    488.407
123.770    606.000    625.155    -19.155    489.287    615.008    489.287    499.480    489.287
123.870    648.000    621.396     26.604    490.179    611.463    490.179    500.155    490.179
123.970    582.000    617.241    -35.241    491.083    607.574    491.083    500.791    491.083
124.070    644.000    612.789     31.211    492.000    603.431    492.000    501.396    492.000
124.170    656.000    608.130     47.870    492.930    599.120    492.930    501.975    492.930
124.270    610.000    603.355      6.645    493.873    594.721    493.873    502.538    493.873
124.370    555.220    598.541    -43.321    494.828    590.306    494.828    503.091    494.828
124.470    621.969    593.759     28.210    495.796    585.938    495.796    503.643    495.796
124.570    572.000    589.070    -17.070    496.777    581.670    496.777    504.199    496.777
124.670    603.000    584.522     18.478    497.772    577.547    497.772    504.766    497.772
124.770    609.000    580.156     28.844    498.779    573.603    498.779    505.350    498.779
124.870    580.000    576.002      3.998    499.800    569.862    499.800    505.954    499.800
124.970    606.000    572.080     33.920    500.835    566.342    500.835    506.585    500.835
