neutron_powder_diffraction_0108
R_wp: 4.024
Temperature (K): 927.640
Counts: 83330.00
Wavelength (Ã…): 2.52098
COMMENTS
Test file for demonstrating the .xyy file format in Reel1.0
END OF HEADER
   tth       Y_obs     Y_calc      Y_res    Background    Phase_1_Nuc    Phase_1_Mag    Phase_2_Nuc    Phase_2_Mag
  9.970    618.000    557.775     60.225    556.802    557.670    556.802    556.907    556.802
 10.070    586.000    558.129     27.871    557.080    558.023    557.080    557.185    557.080
 10.170    575.000    558.484     16.516    557.349    558.377    557.349    557.455    557.349
 10.270    578.000    558.841     19.159    557.610    558.735    557.610    557.716    557.610
 10.370    627.000    559.206     67.794    557.863    559.099    557.863    557.969    557.863
 10.470    522.463    559.582    -37.120    558.108    559.474    558.108    558.215    558.108
 10.570    544.006    559.973    -15.967    558.344    559.865    558.344    558.452    558.344
 10.670    597.584    560.385     37.199    558.573    560.277    558.573    558.681    558.573
 10.770    559.000    560.827     -1.827    558.794    560.717    558.794    558.902    558.794
 10.870    557.000    561.308     -4.308    559.007    561.198    559.007    559.116    559.007
 10.970    595.894    561.844     34.051    559.213    561.733    559.213    559.322    559.213
 11.070    520.151    562.455    -42.304    559.410    562.344    559.410    559.520    559.410
 11.170    590.000    563.172     26.828    559.600    563.060    559.600    559.711    559.600
 11.270    550.000    564.041    -14.041    559.783    563.929    559.783    559.894    559.783
 11.370    528.127    565.144    -37.017    559.958    565.030    559.958    560.069    559.958
 11.470    558.000    566.649     -8.649    560.126    566.534    560.126    560.237    560.126
 11.570    604.000    568.984     35.016    560.286    568.867    560.286    560.398    560.286
 11.670    651.000    573.188     77.812    560.439    573.069    560.439    560.552    560.439
 11.770    545.556    581.435    -35.879    560.585    581.310    560.585    560.698    560.585
 11.870    645.000    597.021     47.979    560.724    596.887    560.724    560.837    560.724
 11.970    592.357    622.673    -30.316    560.856    622.523    560.856    560.970    560.856
 12.070    644.000    656.516    -12.516    560.980    656.347    560.980    561.095    560.980
 12.170    677.000    687.331    -10.331    561.098    687.145    561.098    561.213    561.098
 12.270    712.322    696.522     15.800    561.209    696.329    561.209    561.325    561.209
 12.370    713.000    676.355     36.645    561.313    676.173    561.313    561.429    561.313
 12.470    571.000    641.974    -70.974    561.410    641.811    561.410    561.527    561.410
 12.570    647.499    610.872     36.626    561.501    610.727    561.501    561.618    561.501
 12.670    583.000    589.874     -6.874    561.585    589.740    561.585    561.703    561.585
 12.770    548.000    578.163    -30.163    561.662    578.036    561.662    561.781    561.662
 12.870    582.000    572.317      9.683    561.733    572.192    561.733    561.852    561.733
 12.970    538.000    569.391    -31.391    561.798    569.267    561.798    561.917    561.798
 13.070    601.290    567.748     33.541    561.856    567.625    561.856    561.976    561.856
 13.170    565.000    566.685     -1.685    561.908    566.562    561.908    562.028    561.908
 13.270    592.000    565.929     26.071    561.953    565.806    561.953    562.074    561.953
 13.370    530.000    565.364    -35.364    561.993    565.241    561.993    562.114    561.993
 13.470    558.000    564.929     -6.929    562.026    564.805    562.026    562.148    562.026
 13.570    553.159    564.586    -11.427    562.053    564.462    562.053    562.176    562.053
 13.670    522.000    564.311    -42.311    562.074    564.186    562.074    562.198    562.074
 13.770    573.631    564.084      9.547    562.090    563.959    562.090    562.214    562.090
 13.870    553.000    563.895    -10.895    562.099    563.769    562.099    562.224    562.099
 13.970    596.358    563.732     32.626    562.103    563.606    562.103    562.228    562.103
 14.070    580.351    563.591     16.761    562.100    563.464    562.100    562.226    562.100
 14.170    541.000    563.465    -22.465    562.092    563.338    562.092    562.219    562.092
 14.270    560.000    563.353     -3.353    562.079    563.225    562.079    562.206    562.079
 14.370    562.843    563.247     -0.405    562.060    563.119    562.060    562.187    562.060
 14.470    576.000    563.148     12.852    562.035    563.019    562.035    562.163    562.035
 14.570    523.256    563.052    -39.796    562.005    562.923    562.005    562.134    562.005
 14.670    562.000    562.959     -0.959    561.969    562.829    561.969    562.099    561.969
 14.770    563.000    562.868      0.132    561.928    562.737    561.928    562.059    561.928
 14.870    567.000    562.778      4.222    561.882    562.646    561.882    562.013    561.882
 14.970    542.504    562.687    -20.183    561.831    562.555    561.831    561.962    561.831
 15.070    551.000    562.595    -11.595    561.774    562.463    561.774    561.906    561.774
 15.170    545.000    562.503    -17.503    561.712    562.369    561.712    561.845    561.712
 15.270    590.000    562.408     27.592    561.645    562.274    561.645    561.779    561.645
 15.370    575.000    562.312     12.688    561.573    562.177    561.573    561.708    561.573
 15.470    509.000    562.213    -53.213    561.496    562.078    561.496    561.632    561.496
 15.570    585.000    562.112     22.888    561.415    561.975    561.415    561.551    561.415
 15.670    583.000    562.007     20.993    561.328    561.870    561.328    561.465    561.328
 15.770    531.000    561.900    -30.900    561.237    561.762    561.237    561.374    561.237
 15.870    550.000    561.795    -11.795    561.141    561.657    561.141    561.279    561.141
 15.970    620.000    561.741     58.259    561.040    561.601    561.040    561.179    561.040
 16.070    557.221    561.694     -4.473    560.934    561.554    560.934    561.074    560.934
 16.170    534.821    561.581    -26.760    560.824    561.440    560.824    560.965    560.824
 16.270    556.505    561.458     -4.952    560.710    561.316    560.710    560.851    560.710
 16.370    559.000    561.331     -2.331    560.590    561.188    560.590    560.733    560.590
 16.470    567.000    561.201      5.799    560.467    561.057    560.467    560.610    560.467
 16.570    574.832    561.067     13.765    560.339    560.923    560.339    560.483    560.339
 16.670    542.000    560.929    -18.929    560.207    560.784    560.207    560.352    560.207
 16.770    570.687    560.790      9.897    560.070    560.644    560.070    560.216    560.070
 16.870    527.000    560.661    -33.661    559.930    560.514    559.930    560.076    559.930
 16.970    562.317    560.527      1.791    559.785    560.379    559.785    559.933    559.785
 17.070    552.072    560.377     -8.305    559.636    560.228    559.636    559.785    559.636
 17.170    516.000    560.222    -44.222    559.483    560.073    559.483    559.632    559.483
 17.270    524.000    560.064    -36.064    559.326    559.914    559.326    559.476    559.326
 17.370    536.000    559.902    -23.902    559.165    559.751    559.165    559.316    559.165
 17.470    572.000    559.737     12.263    559.000    559.585    559.000    559.152    559.000
 17.570    539.602    559.569    -19.967    558.831    559.416    558.831    558.985    558.831
 17.670    547.211    559.397    -12.186    558.659    559.243    558.659    558.813    558.659
 17.770    557.000    559.222     -2.222    558.482    559.067    558.482    558.638    558.482
 17.870    560.000    559.044      0.956    558.302    558.887    558.302    558.459    558.302
 17.970    571.000    558.862     12.138    558.119    558.705    558.119    558.276    558.119
 18.070    530.000    558.677    -28.677    557.931    558.519    557.931    558.090    557.931
 18.170    524.000    558.491    -34.491    557.740    558.331    557.740    557.900    557.740
 18.270    544.000    558.303    -14.303    557.546    558.142    557.546    557.707    557.546
 18.370    538.000    558.109    -20.109    557.348    557.947    557.348    557.510    557.348
 18.470    528.000    557.912    -29.912    557.147    557.749    557.147    557.310    557.147
 18.570    570.118    557.712     12.407    556.942    557.547    556.942    557.106    556.942
 18.670    548.000    557.508     -9.508    556.734    557.343    556.734    556.900    556.734
 18.770    561.000    557.302      3.698    556.523    557.136    556.523    556.690    556.523
 18.870    576.869    557.093     19.776    556.308    556.926    556.308    556.476    556.308
 18.970    539.016    556.882    -17.866    556.091    556.713    556.091    556.260    556.091
 19.070    548.000    556.673     -8.673    555.870    556.502    555.870    556.040    555.870
 19.170    474.000    556.512    -82.512    555.646    556.341    555.646    555.818    555.646
 19.270    591.462    556.308     35.154    555.419    556.135    555.419    555.592    555.419
 19.370    559.000    556.092      2.908    555.189    555.917    555.189    555.363    555.189
 19.470    571.000    555.874     15.126    554.956    555.698    554.956    555.132    554.956
 19.570    559.495    555.648      3.847    554.720    555.471    554.720    554.897    554.720
 19.670    563.791    555.419      8.372    554.481    555.240    554.481    554.660    554.481
 19.770    541.436    555.191    -13.755    554.239    555.011    554.239    554.420    554.239
 19.870    595.261    554.995     40.267    553.995    554.813    553.995    554.177    553.995
 19.970    547.852    554.776     -6.924    553.748    554.593    553.748    553.931    553.748
 20.070    515.000    554.540    -39.540    553.498    554.355    553.498    553.683    553.498
 20.170    588.226    554.300     33.926    553.246    554.114    553.246    553.432    553.246
 20.270    554.409    554.059      0.351    552.990    553.870    552.990    553.179    552.990
 20.370    554.315    553.815      0.500    552.733    553.625    552.733    552.923    552.733
 20.470    552.000    553.570     -1.570    552.473    553.378    552.473    552.664    552.473
 20.570    565.000    553.323     11.677    552.210    553.129    552.210    552.403    552.210
 20.670    532.448    553.074    -20.626    551.945    552.879    551.945    552.140    551.945
 20.770    592.816    552.824     39.992    551.677    552.627    551.677    551.874    551.677
 20.870    538.000    552.572    -14.572    551.407    552.373    551.407    551.606    551.407
 20.970    531.800    552.320    -20.520    551.135    552.119    551.135    551.336    551.135
 21.070    550.000    552.066     -2.066    550.861    551.863    550.861    551.064    550.861
 21.170    555.990    551.812      4.178    550.584    551.607    550.584    550.789    550.584
 21.270    537.000    551.566    -14.566    550.305    551.359    550.305    550.512    550.305
 21.370    548.000    551.324     -3.324    550.024    551.114    550.024    550.233    550.024
 21.470    564.000    551.068     12.932    549.741    550.856    549.741    549.952    549.741
 21.570    549.000    550.811     -1.811    549.455    550.597    549.455    549.669    549.455
 21.670    533.359    550.553    -17.195    549.168    550.337    549.168    549.385    549.168
 21.770    582.000    550.298     31.702    548.879    550.079    548.879    549.098    548.879
 21.870    568.665    550.063     18.602    548.587    549.842    548.587    548.809    548.587
 21.970    535.000    549.840    -14.840    548.294    549.616    548.294    548.518    548.294
 22.070    527.669    549.590    -21.921    547.999    549.364    547.999    548.226    547.999
 22.170    549.000    549.342     -0.342    547.702    549.112    547.702    547.932    547.702
 22.270    569.035    549.113     19.922    547.403    548.881    547.403    547.636    547.403
 22.370    565.757    548.872     16.886    547.103    548.636    547.103    547.339    547.103
 22.470    532.000    548.635    -16.635    546.801    548.396    546.801    547.039    546.801
 22.570    565.000    548.402     16.598    546.497    548.161    546.497    546.739    546.497
 22.670    552.000    548.194      3.806    546.191    547.949    546.191    546.436    546.191
 22.770    535.000    548.001    -13.001    545.884    547.753    545.884    546.133    545.884
 22.870    524.053    547.784    -23.731    545.575    547.532    545.575    545.827    545.575
 22.970    535.000    547.574    -12.574    545.265    547.318    545.265    545.521    545.265
 23.070    541.000    547.376     -6.376    544.953    547.117    544.953    545.213    544.953
 23.170    579.205    547.195     32.010    544.640    546.932    544.640    544.903    544.640
 23.270    578.572    547.050     31.522    544.325    546.784    544.325    544.593    544.325
 23.370    573.268    546.964     26.304    544.009    546.693    544.009    544.281    544.009
 23.470    548.000    546.868      1.132    543.691    546.593    543.691    543.968    543.691
 23.570    526.000    546.815    -20.815    543.373    546.535    543.373    543.653    543.373
 23.670    516.489    546.821    -30.332    543.052    546.536    543.052    543.338    543.052
 23.770    562.390    546.895     15.495    542.731    546.606    542.731    543.022    542.731
 23.870    547.000    547.077     -0.077    542.408    546.783    542.408    542.704    542.408
 23.970    576.000    547.423     28.577    542.085    547.124    542.085    542.386    542.085
 24.070    562.000    548.054     13.946    541.760    547.750    541.760    542.067    541.760
 24.170    563.000    549.252     13.748    541.433    548.943    541.433    541.747    541.433
 24.270    596.000    551.702     44.298    541.106    551.389    541.106    541.426    541.106
 24.370    550.026    556.810     -6.784    540.778    556.494    540.778    541.104    540.778
 24.470    589.250    566.669     22.581    540.449    566.353    540.449    540.782    540.449
 24.570    624.124    583.016     41.109    540.118    582.704    540.118    540.459    540.118
 24.670    617.000    604.808     12.192    539.787    604.504    539.787    540.135    539.787
 24.770    607.361    625.294    -17.933    539.455    624.997    539.455    539.811    539.455
 24.870    643.000    632.481     10.519    539.122    632.181    539.122    539.487    539.122
 24.970    614.374    620.238     -5.864    538.788    619.920    538.788    539.162    538.788
 25.070    592.061    597.606     -5.545    538.453    597.263    538.453    538.836    538.453
 25.170    596.904    576.213     20.692    538.118    575.845    538.118    538.511    538.118
 25.270    519.829    561.115    -41.286    537.781    560.725    537.781    538.185    537.781
 25.370    568.000    552.258     15.742    537.444    551.852    537.444    537.859    537.444
 25.470    579.000    547.582     31.418    537.107    547.160    537.107    537.534    537.107
 25.570    543.000    545.102     -2.102    536.768    544.665    536.768    537.208    536.768
 25.670    569.772    543.627     26.145    536.429    543.176    536.429    536.883    536.429
 25.770    532.000    542.614    -10.614    536.089    542.147    536.089    536.558    536.089
 25.870    574.347    541.847     32.500    535.749    541.365    535.749    536.233    535.749
 25.970    525.000    541.239    -16.239    535.408    540.740    535.408    535.909    535.408
 26.070    522.406    540.748    -18.342    535.067    540.230    535.067    535.586    535.067
 26.170    551.000    540.348     10.652    534.725    539.810    534.725    535.263    534.725
 26.270    501.048    540.025    -38.978    534.382    539.467    534.382    534.942    534.382
 26.370    561.000    539.773     21.227    534.040    539.192    534.040    534.621    534.040
 26.470    525.040    539.588    -14.548    533.696    538.982    533.696    534.303    533.696
 26.570    563.398    539.470     23.929    533.353    538.837    533.353    533.986    533.353
 26.670    517.701    539.424    -21.723    533.009    538.762    533.009    533.671    533.009
 26.770    545.000    539.460      5.540    532.665    538.767    532.665    533.358    532.665
 26.870    573.000    539.591     33.409    532.320    538.864    532.320    533.048    532.320
 26.970    561.029    539.839     21.190    531.975    539.073    531.975    532.740    531.975
 27.070    583.799    540.234     43.565    531.630    539.426    531.630    532.437    531.630
 27.170    571.000    540.816     30.184    531.285    539.963    531.285    532.137    531.285
 27.270    566.000    541.650     24.350    530.939    540.745    530.939    531.843    530.939
 27.370    556.910    542.833     14.077    530.594    541.872    530.594    531.554    530.594
 27.470    573.000    544.549     28.452    530.248    543.524    530.248    531.271    530.248
 27.570    547.000    547.251     -0.251    529.902    546.155    529.902    530.996    529.902
 27.670    571.000    552.329     18.671    529.556    551.151    529.556    530.729    529.556
 27.770    559.066    563.733     -4.667    529.210    562.461    529.210    530.473    529.210
 27.870    634.167    590.145     44.022    528.864    588.761    528.864    530.229    528.864
 27.970    664.510    644.081     20.429    528.518    642.562    528.518    530.000    528.518
 28.070    723.000    732.182     -9.182    528.172    730.503    528.172    529.788    528.172
 28.170    803.435    837.714    -34.279    527.826    835.859    527.826    529.595    527.826
 28.270    915.127    911.676      3.451    527.480    909.641    527.480    529.426    527.480
 28.370    907.000    905.981      1.019    527.134    903.767    527.134    529.283    527.134
 28.470    866.000    832.660     33.340    526.788    830.240    526.788    529.172    526.788
 28.570    760.543    751.752      8.791    526.442    749.079    526.442    529.096    526.442
 28.670    665.000    712.682    -47.682    526.097    709.703    526.097    529.060    526.097
 28.770    735.000    727.747      7.253    525.752    724.410    525.752    529.068    525.752
 28.870    815.967    775.469     40.498    525.407    771.731    525.407    529.123    525.407
 28.970    782.000    812.383    -30.383    525.062    808.205    525.062    529.225    525.062
 29.070    880.000    800.635     79.365    524.717    795.980    524.717    529.372    524.717
 29.170    730.144    743.186    -13.043    524.373    738.015    524.373    529.554    524.373
 29.270    652.000    672.699    -20.699    524.029    666.989    524.029    529.750    524.029
 29.370    629.000    615.597     13.403    523.685    609.361    523.685    529.931    523.685
 29.470    619.997    579.657     40.340    523.342    572.950    523.342    530.054    523.342
 29.570    546.056    560.666    -14.610    522.999    553.598    522.999    530.070    522.999
 29.670    598.000    551.423     46.577    522.657    544.147    522.657    529.934    522.657
 29.770    559.329    546.647     12.682    522.315    539.346    522.315    529.617    522.315
 29.870    578.111    543.685     34.426    521.973    536.544    521.973    529.114    521.973
 29.970    603.000    541.507     61.493    521.632    534.689    521.632    528.451    521.632
 30.070    567.000    539.791     27.209    521.291    533.414    521.291    527.668    521.291
 30.170    551.000    538.484     12.516    520.951    532.618    520.951    526.816    520.951
 30.270    544.000    537.707      6.293    520.611    532.378    520.611    525.939    520.611
 30.370    532.298    537.842     -5.544    520.272    533.041    520.272    525.071    520.272
 30.470    531.000    539.738     -8.738    519.933    535.432    519.933    524.233    519.933
 30.570    593.000    544.795     48.205    519.595    540.941    519.595    523.439    519.595
 30.670    545.000    554.511     -9.511    519.258    551.059    519.258    522.692    519.258
 30.770    555.000    569.142    -14.142    518.921    566.041    518.921    521.994    518.921
 30.870    609.000    585.774     23.226    518.585    582.980    518.585    521.340    518.585
 30.970    660.000    597.289     62.711    518.250    594.765    518.250    520.728    518.250
 31.070    629.000    596.296     32.704    517.915    594.016    517.915    520.154    517.915
 31.170    546.489    583.030    -36.541    517.581    580.967    517.581    519.612    517.581
 31.270    565.000    565.006     -0.006    517.248    563.135    517.248    519.098    517.248
 31.370    520.843    549.147    -28.304    516.915    547.440    516.915    518.609    516.915
 31.470    526.664    538.174    -11.510    516.583    536.609    516.583    518.142    516.583
 31.570    561.000    531.727     29.273    516.252    530.282    516.252    517.693    516.252
 31.670    557.000    528.278     28.722    515.922    526.938    515.922    517.260    515.922
 31.770    517.000    526.434     -9.434    515.592    525.185    515.592    516.840    515.592
 31.870    529.000    525.355      3.645    515.264    524.186    515.264    516.432    515.264
 31.970    492.000    524.654    -32.654    514.936    523.555    514.936    516.034    514.936
 32.070    537.000    524.178     12.822    514.609    523.140    514.609    515.645    514.609
 32.170    527.519    523.868      3.650    514.283    522.887    514.283    515.264    514.283
 32.270    535.000    523.707     11.293    513.958    522.775    513.958    514.889    513.958
 32.370    563.000    523.688     39.312    513.634    522.801    513.634    514.521    513.634
 32.470    511.592    523.820    -12.228    513.311    522.972    513.311    514.158    513.311
 32.570    572.000    524.119     47.881    512.988    523.307    512.988    513.800    512.988
 32.670    547.000    524.614     22.386    512.667    523.834    512.667    513.446    512.667
 32.770    548.000    525.346     22.654    512.347    524.596    512.347    513.096    512.347
 32.870    502.253    526.379    -24.125    512.027    525.655    512.027    512.750    512.027
 32.970    534.000    527.803      6.197    511.709    527.103    511.709    512.408    511.709
 33.070    531.000    529.763      1.237    511.392    529.085    511.392    512.068    511.392
 33.170    559.000    532.521     26.479    511.076    531.863    511.076    511.732    511.076
 33.270    527.000    536.640     -9.640    510.760    536.000    510.760    511.398    510.760
 33.370    568.000    543.454     24.546    510.446    542.829    510.446    511.067    510.446
 33.470    546.354    555.974     -9.620    510.133    555.362    510.133    510.739    510.133
 33.570    574.000    580.001     -6.001    509.822    579.399    509.822    510.413    509.822
 33.670    585.000    624.215    -39.215    509.511    623.618    509.511    510.089    509.511
 33.770    722.000    697.131     24.869    509.201    696.535    509.201    509.768    509.201
 33.870    779.502    799.684    -20.182    508.893    799.087    508.893    509.448    508.893
 33.970    915.344    914.971      0.373    508.586    914.379    508.586    509.131    508.586
 34.070    944.000   1002.058    -58.058    508.279   1001.482    508.279    508.816    508.279
 34.170   1055.000   1013.703     41.297    507.975   1013.153    507.975    508.502    507.975
 34.270    927.000    941.562    -14.562    507.671    941.037    507.671    508.191    507.671
 34.370    792.502    827.442    -34.940    507.368    826.933    507.368    507.881    507.368
 34.470    668.000    718.058    -50.058    507.067    717.557    507.067    507.573    507.067
 34.570    641.000    636.398      4.602    506.767    635.902    506.767    507.267    506.767
 34.670    557.416    584.960    -27.544    506.469    584.468    506.469    506.963    506.469
 34.770    555.000    556.177     -1.177    506.171    555.688    506.171    506.661    506.171
 34.870    550.314    540.864      9.449    505.875    540.379    505.875    506.360    505.875
 34.970    572.000    532.378     39.622    505.580    531.897    505.580    506.061    505.580
 35.070    531.000    527.102      3.898    505.287    526.624    505.287    505.764    505.287
 35.170    557.778    523.397     34.381    504.994    522.922    504.994    505.468    504.994
 35.270    519.000    520.574     -1.574    504.704    520.103    504.704    505.175    504.704
 35.370    487.000    518.326    -31.326    504.414    517.857    504.414    504.882    504.414
 35.470    498.861    516.486    -17.624    504.126    516.019    504.126    504.592    504.126
 35.570    540.698    514.949     25.749    503.839    514.485    503.839    504.303    503.839
 35.670    502.000    513.645    -11.645    503.554    513.183    503.554    504.016    503.554
 35.770    473.000    512.523    -39.523    503.270    512.062    503.270    503.730    503.270
 35.870    515.000    511.544      3.456    502.987    511.085    502.987    503.446    502.987
 35.970    447.000    510.681    -63.681    502.706    510.223    502.706    503.164    502.706
 36.070    545.760    509.913     35.847    502.426    509.455    502.426    502.884    502.426
 36.170    489.000    509.224    -20.224    502.148    508.767    502.148    502.605    502.148
 36.270    519.000    508.602     10.398    501.871    508.146    501.871    502.327    501.871
 36.370    477.000    508.039    -31.039    501.596    507.583    501.596    502.052    501.596
 36.470    545.373    507.529     37.844    501.322    507.073    501.322    501.778    501.322
 36.570    473.755    507.066    -33.311    501.049    506.610    501.049    501.506    501.049
 36.670    474.000    506.647    -32.647    500.778    506.191    500.778    501.235    500.778
 36.770    494.000    506.283    -12.283    500.509    505.826    500.509    500.966    500.509
 36.870    533.567    505.980     27.587    500.241    505.523    500.241    500.699    500.241
 36.970    464.000    505.767    -41.767    499.975    505.309    499.975    500.433    499.975
 37.070    506.000    505.715      0.285    499.710    505.256    499.710    500.169    499.710
 37.170    511.000    505.967      5.033    499.446    505.507    499.446    499.907    499.446
 37.270    527.112    506.760     20.352    499.185    506.299    499.185    499.647    499.185
 37.370    549.000    508.372     40.628    498.924    507.910    498.924    499.388    498.924
 37.470    495.099    510.963    -15.864    498.666    510.500    498.666    499.131    498.666
 37.570    493.000    514.321    -21.321    498.408    513.857    498.408    498.876    498.408
 37.670    519.594    517.589      2.005    498.153    517.124    498.153    498.622    498.153
 37.770    512.000    519.293     -7.293    497.899    518.828    497.899    498.370    497.899
 37.870    534.000    518.417     15.583    497.647    517.952    497.647    498.120    497.647
 37.970    543.000    515.559     27.441    497.396    515.093    497.396    497.872    497.396
 38.070    521.681    512.026      9.654    497.147    511.559    497.147    497.625    497.147
 38.170    506.000    508.695     -2.695    496.899    508.225    496.899    497.380    496.899
 38.270    471.000    505.947    -34.947    496.653    505.472    496.653    497.137    496.653
 38.370    525.000    503.883     21.117    496.409    503.403    496.409    496.896    496.409
 38.470    522.000    502.425     19.575    496.166    501.940    496.166    496.656    496.166
 38.570    493.000    501.417     -8.417    495.925    500.927    495.925    496.418    495.925
 38.670    499.011    500.709     -1.697    495.686    500.215    495.686    496.182    495.686
 38.770    517.000    500.187     16.813    495.448    499.689    495.448    495.948    495.448
 38.870    504.419    499.777      4.642    495.212    499.275    495.212    495.716    495.212
 38.970    460.562    499.432    -38.870    494.978    498.926    494.978    495.485    494.978
 39.070    517.000    499.126     17.874    494.745    498.616    494.745    495.256    494.745
 39.170    481.000    498.847    -17.847    494.514    498.332    494.514    495.029    494.514
 39.270    488.950    498.587     -9.636    494.285    498.068    494.285    494.804    494.285
 39.370    483.000    498.342    -15.342    494.058    497.819    494.058    494.581    494.058
 39.470    539.000    498.111     40.889    493.832    497.584    493.832    494.360    493.832
 39.570    519.658    497.892     21.766    493.608    497.360    493.608    494.140    493.608
 39.670    507.000    497.685      9.315    493.385    497.148    493.385    493.923    493.385
 39.770    436.000    497.488    -61.488    493.164    496.946    493.164    493.707    493.164
 39.870    521.000    497.301     23.699    492.945    496.754    492.945    493.493    492.945
 39.970    466.000    497.125    -31.125    492.728    496.572    492.728    493.281    492.728
 40.070    478.000    496.959    -18.959    492.513    496.401    492.513    493.071    492.513
 40.170    493.000    496.804     -3.804    492.299    496.240    492.299    492.863    492.299
 40.270    461.000    496.661    -35.661    492.087    496.091    492.087    492.657    492.087
 40.370    471.720    496.530    -24.810    491.876    495.955    491.876    492.452    491.876
 40.470    487.000    496.413     -9.413    491.668    495.831    491.668    492.250    491.668
 40.570    495.000    496.311     -1.311    491.461    495.723    491.461    492.050    491.461
 40.670    509.000    496.226     12.774    491.256    495.631    491.256    491.851    491.256
 40.770    517.713    496.160     21.553    491.053    495.559    491.053    491.655    491.053
 40.870    477.020    496.118    -19.097    490.851    495.509    490.851    491.461    490.851
 40.970    489.000    496.101     -7.101    490.651    495.486    490.651    491.268    490.651
 41.070    464.000    496.117    -32.117    490.453    495.494    490.453    491.078    490.453
 41.170    488.000    496.171     -8.171    490.257    495.540    490.257    490.889    490.257
 41.270    478.000    496.272    -18.272    490.063    495.634    490.063    490.703    490.063
 41.370    485.000    496.433    -11.433    489.870    495.786    489.870    490.519    489.870
 41.470    499.000    496.669      2.331    489.679    496.014    489.679    490.336    489.679
 41.570    529.353    497.006     32.347    489.490    496.342    489.490    490.156    489.490
 41.670    467.000    497.484    -30.484    489.303    496.811    489.303    489.978    489.303
 41.770    491.000    498.185     -7.185    489.117    497.503    489.117    489.802    489.117
 41.870    525.000    499.284     25.716    488.934    498.593    488.934    489.628    488.934
 41.970    541.092    501.155     39.937    488.752    500.455    488.752    489.456    488.752
 42.070    476.000    504.527    -28.527    488.572    503.818    488.572    489.287    488.572
 42.170    514.000    510.598      3.402    488.394    509.881    488.394    489.119    488.394
 42.270    531.000    520.924     10.076    488.217    520.200    488.217    488.954    488.217
 42.370    529.629    536.846     -7.217    488.042    536.119    488.042    488.791    488.042
 42.470    541.000    558.433    -17.433    487.870    557.704    487.870    488.630    487.870
 42.570    555.000    583.170    -28.170    487.699    582.442    487.699    488.472    487.699
 42.670    591.000    604.862    -13.862    487.529    604.134    487.529    488.315    487.529
 42.770    625.000    614.557     10.443    487.362    613.822    487.362    488.161    487.362
 42.870    594.000    606.958    -12.958    487.196    606.209    487.196    488.010    487.196
 42.970    577.822    586.289     -8.467    487.032    585.517    487.032    487.860    487.032
 43.070    509.000    561.388    -52.388    486.870    560.587    486.870    487.713    486.870
 43.170    535.000    538.940     -3.940    486.710    538.111    486.710    487.569    486.710
 43.270    476.347    521.947    -45.600    486.552    521.092    486.552    487.426    486.552
 43.370    474.000    510.650    -36.650    486.395    509.771    486.395    487.287    486.395
 43.470    501.000    503.829     -2.829    486.241    502.929    486.241    487.150    486.241
 43.570    475.000    499.924    -24.924    486.088    499.002    486.088    487.015    486.088
 43.670    476.109    497.672    -21.563    485.937    496.730    485.937    486.883    485.937
 43.770    503.190    496.281      6.908    485.788    495.318    485.788    486.754    485.788
 43.870    497.000    495.334      1.666    485.640    494.350    485.640    486.627    485.640
 43.970    507.269    494.632     12.637    485.494    493.626    485.494    486.503    485.494
 44.070    473.393    494.085    -20.692    485.351    493.055    485.351    486.382    485.351
 44.170    493.000    493.646     -0.646    485.209    492.593    485.209    486.264    485.209
 44.270    510.214    493.290     16.924    485.069    492.212    485.069    486.148    485.069
 44.370    506.000    492.999     13.001    484.930    491.895    484.930    486.036    484.930
 44.470    495.000    492.762      2.238    484.794    491.630    484.794    485.927    484.794
 44.570    523.000    492.568     30.432    484.659    491.408    484.659    485.821    484.659
 44.670    512.835    492.413     20.422    484.526    491.222    484.526    485.718    484.526
 44.770    530.232    492.291     37.941    484.395    491.068    484.395    485.619    484.395
 44.870    475.629    492.198    -16.570    484.266    490.942    484.266    485.523    484.266
 44.970    489.000    492.133     -3.133    484.138    490.841    484.138    485.431    484.138
 45.070    479.955    492.092    -12.138    484.013    490.763    484.013    485.342    484.013
 45.170    529.000    492.076     36.924    483.889    490.707    483.889    485.258    483.889
 45.270    505.000    492.082     12.918    483.767    490.672    483.767    485.178    483.767
 45.370    500.918    492.112      8.807    483.646    490.657    483.646    485.102    483.646
 45.470    452.803    492.165    -39.361    483.528    490.663    483.528    485.030    483.528
 45.570    497.000    492.241      4.759    483.411    490.690    483.411    484.963    483.411
 45.670    487.889    492.343     -4.453    483.296    490.738    483.296    484.902    483.296
 45.770    522.462    492.470     29.991    483.183    490.809    483.183    484.845    483.183
 45.870    495.000    492.626      2.374    483.072    490.904    483.072    484.795    483.072
 45.970    529.086    492.813     36.273    482.963    491.026    482.963    484.750    482.963
 46.070    484.000    493.033     -9.033    482.855    491.177    482.855    484.712    482.855
 46.170    495.000    493.291      1.709    482.749    491.360    482.749    484.680    482.749
 46.270    470.000    493.592    -23.592    482.645    491.581    482.645    484.656    482.645
 46.370    502.000    493.943      8.057    482.543    491.845    482.543    484.641    482.543
 46.470    474.436    494.350    -19.914    482.442    492.159    482.442    484.633    482.442
 46.570    425.000    494.826    -69.826    482.343    492.533    482.343    484.636    482.343
 46.670    491.000    495.385     -4.385    482.246    492.982    482.246    484.649    482.246
 46.770    533.000    496.052     36.948    482.151    493.529    482.151    484.674    482.151
 46.870    503.000    496.871      6.129    482.058    494.216    482.058    484.711    482.058
 46.970    515.244    497.927     17.317    481.966    495.129    481.966    484.763    481.966
 47.070    461.000    499.397    -38.397    481.876    496.439    481.876    484.831    481.876
 47.170    533.000    501.609     31.391    481.788    498.475    481.788    484.918    481.788
 47.270    517.000    505.112     11.888    481.701    501.783    481.701    485.025    481.701
 47.370    499.441    510.668    -11.227    481.617    507.119    481.617    485.156    481.617
 47.470    509.000    519.085    -10.085    481.534    515.289    481.534    485.315    481.534
 47.570    526.443    530.838     -4.395    481.453    526.761    481.453    485.506    481.453
 47.670    548.686    545.535      3.151    481.373    541.140    481.373    485.734    481.373
 47.770    590.000    561.364     28.636    481.295    556.610    481.295    486.006    481.295
 47.870    611.000    574.744     36.256    481.219    569.583    481.219    486.329    481.219
 47.970    590.000    581.090      8.910    481.145    575.469    481.145    486.712    481.145
 48.070    531.920    577.988    -46.067    481.073    571.848    481.073    487.163    481.073
 48.170    553.965    567.696    -13.730    481.002    560.962    481.002    487.696    481.002
 48.270    553.000    554.818     -1.818    480.933    547.400    480.933    488.321    480.933
 48.370    587.305    543.084     44.221    480.865    534.877    480.865    489.054    480.865
 48.470    569.000    534.472     34.528    480.799    525.354    480.799    489.906    480.799
 48.570    509.000    529.521    -20.521    480.735    519.356    480.735    490.893    480.735
 48.670    485.000    527.881    -42.881    480.673    516.523    480.673    492.027    480.673
 48.770    515.978    528.858    -12.880    480.612    516.151    480.612    493.318    480.612
 48.870    541.000    531.809      9.191    480.553    517.594    480.553    494.769    480.553
 48.970    557.644    536.343     21.301    480.496    520.468    480.496    496.372    480.496
 49.070    514.000    542.389    -28.389    480.440    524.727    480.440    498.104    480.440
 49.170    554.326    550.308      4.018    480.386    530.780    480.386    499.916    480.386
 49.270    580.000    561.278     18.722    480.334    539.887    480.334    501.726    480.334
 49.370    594.836    578.260     16.576    480.283    555.125    480.283    503.418    480.283
 49.470    635.651    607.760     27.891    480.234    583.149    480.234    504.840    480.234
 49.570    645.000    662.074    -17.074    480.187    636.412    480.187    505.832    480.187
 49.670    726.454    760.385    -33.931    480.141    734.228    480.141    506.264    480.141
 49.770    900.000    925.756    -25.756    480.097    899.722    480.097    506.068    480.097
 49.870   1239.000   1175.254     63.746    480.055   1149.942    480.055    505.271    480.055
 49.970   1536.952   1504.278     32.674    480.014   1480.192    480.014    503.978    480.014
 50.070   1810.000   1871.357    -61.357    479.974   1848.865    479.974    502.341    479.974
 50.170   2175.519   2192.767    -17.248    479.937   2172.096    479.937    500.518    479.937
 50.270   2398.000   2361.674     36.326    479.901   2342.923    479.901    498.644    479.901
 50.370   2316.000   2308.221      7.779    479.866   2291.363    479.866    496.817    479.866
 50.470   2041.000   2056.937    -15.937    479.833   2041.838    479.833    495.099    479.833
 50.570   1682.000   1703.858    -21.858    479.802   1690.328    479.802    493.524    479.802
 50.670   1373.000   1349.672     23.328    479.772   1337.513    479.772    492.108    479.772
 50.770   1050.000   1059.687     -9.687    479.744   1048.721    479.744    490.852    479.744
 50.870    799.000    857.324    -58.324    479.717    847.399    479.717    489.748    479.717
 50.970    751.000    734.729     16.271    479.692    725.713    479.692    488.784    479.692
 51.070    717.771    668.870     48.901    479.669    660.647    479.669    487.949    479.669
 51.170    608.019    635.054    -27.035    479.647    627.522    479.647    487.227    479.647
 51.270    645.284    614.606     30.678    479.626    607.670    479.626    486.605    479.626
 51.370    629.000    597.504     31.496    479.607    591.078    479.607    486.069    479.607
 51.470    590.892    580.951      9.942    479.590    574.960    479.590    485.609    479.590
 51.570    567.000    565.609      1.391    479.574    559.992    479.574    485.214    479.574
 51.670    583.000    552.670     30.330    479.560    547.372    479.560    484.874    479.560
 51.770    522.329    542.774    -20.445    479.547    537.750    479.547    484.583    479.547
 51.870    550.876    535.915     14.961    479.535    531.128    479.535    484.332    479.535
 51.970    517.039    531.656    -14.617    479.525    527.072    479.525    484.117    479.525
 52.070    516.229    529.420    -13.191    479.517    525.011    479.517    483.932    479.517
 52.170    527.081    528.716     -1.636    479.510    524.457    479.510    483.775    479.510
 52.270    540.000    529.257     10.743    479.504    525.126    479.504    483.641    479.504
 52.370    549.000    531.014     17.986    479.500    526.991    479.500    483.527    479.500
 52.470    545.000    534.287     10.713    479.497    530.355    479.497    483.433    479.497
 52.570    511.308    539.895    -28.587    479.496    536.040    479.496    483.355    479.496
 52.670    541.041    549.464     -8.423    479.496    545.671    479.496    483.293    479.496
 52.770    589.010    565.799     23.211    479.498    562.056    479.498    483.245    479.498
 52.870    617.000    593.106     23.894    479.501    589.401    479.501    483.209    479.501
 52.970    592.679    636.654    -43.975    479.505    632.976    479.505    483.186    479.505
 53.070    650.280    701.472    -51.191    479.511    697.812    479.511    483.175    479.511
 53.170    836.000    789.999     46.001    479.518    786.349    479.518    483.174    479.518
 53.270    915.000    899.075     15.925    479.527    895.428    479.527    483.184    479.527
 53.370    976.741   1016.982    -40.242    479.536   1013.334    479.536    483.204    479.536
 53.470   1074.095   1121.689    -47.593    479.548   1118.033    479.548    483.234    479.548
 53.570   1172.000   1184.124    -12.124    479.560   1180.455    479.560    483.274    479.560
 53.670   1126.000   1182.008    -56.008    479.574   1178.314    479.574    483.323    479.574
 53.770   1108.000   1116.381     -8.381    479.589   1112.648    479.589    483.382    479.589
 53.870   1044.996   1010.649     34.347    479.606   1006.861    479.606    483.450    479.606
 53.970    898.000    893.618      4.382    479.624    889.762    479.624    483.528    479.624
 54.070    757.765    786.574    -28.809    479.643    782.639    479.643    483.616    479.643
 54.170    668.997    700.551    -31.554    479.663    696.528    479.663    483.714    479.663
 54.270    648.000    638.217      9.783    479.685    634.100    479.685    483.822    479.685
 54.370    556.000    596.864    -40.864    479.708    592.646    479.708    483.941    479.708
 54.470    554.000    571.393    -17.393    479.732    567.065    479.732    484.070    479.732
 54.570    566.000    556.591      9.409    479.758    552.145    479.758    484.212    479.758
 54.670    572.000    548.355     23.645    479.785    543.781    479.785    484.365    479.785
 54.770    498.933    543.970    -45.037    479.813    539.257    479.813    484.532    479.813
 54.870    579.208    541.869     37.339    479.842    537.005    479.842    484.711    479.842
 54.970    558.000    541.244     16.756    479.873    536.215    479.873    484.906    479.873
 55.070    539.000    541.716     -2.716    479.904    536.510    479.904    485.116    479.904
 55.170    545.000    543.139      1.861    479.937    537.739    479.937    485.342    479.937
 55.270    550.000    545.485      4.515    479.971    539.874    479.971    485.586    479.971
 55.370    648.000    548.809     99.191    480.006    542.971    480.006    485.850    480.006
 55.470    577.000    553.253     23.747    480.043    547.167    480.043    486.134    480.043
 55.570    561.000    559.093      1.907    480.080    552.736    480.080    486.442    480.080
 55.670    556.000    566.870    -10.870    480.119    560.220    480.119    486.775    480.119
 55.770    585.000    577.674      7.326    480.159    570.703    480.159    487.135    480.159
 55.870    593.000    593.656     -0.656    480.200    586.335    480.200    487.526    480.200
 55.970    589.000    618.843    -29.843    480.242    611.137    480.242    487.951    480.242
 56.070    650.000    660.123    -10.123    480.285    651.996    480.285    488.415    480.285
 56.170    678.000    727.971    -49.971    480.329    719.378    480.329    488.921    480.329
 56.270    855.472    836.039     19.433    480.375    826.932    480.375    489.476    480.375
 56.370   1010.980    998.640     12.340    480.421    988.964    480.421    490.087    480.421
 56.470   1209.343   1225.598    -16.255    480.469   1215.295    480.469    490.761    480.469
 56.570   1480.000   1515.221    -35.221    480.517   1504.227    480.517    491.509    480.517
 56.670   1902.663   1847.203     55.461    480.567   1835.447    480.567    492.341    480.567
 56.770   2103.000   2177.486    -74.486    480.618   2164.889    480.618    493.274    480.618
 56.870   2375.000   2438.619    -63.619    480.669   2425.086    480.669    494.322    480.669
 56.970   2497.000   2556.482    -59.482    480.722   2541.894    480.722    495.505    480.722
 57.070   2406.187   2491.053    -84.867    480.776   2475.245    480.776    496.846    480.776
 57.170   2339.000   2267.035     71.965    480.830   2249.793    480.830    498.371    480.830
 57.270   1976.000   1953.493     22.507    480.886   1934.564    480.886    500.111    480.886
 57.370   1612.116   1621.815     -9.699    480.943   1600.922    480.943    502.096    480.943
 57.470   1320.000   1322.906     -2.906    481.000   1299.753    481.000    504.365    481.000
 57.570   1094.000   1083.464     10.536    481.059   1057.727    481.059    506.956    481.059
 57.670    960.000    909.998     50.002    481.118    881.321    481.118    509.909    481.118
 57.770    841.007    795.668     45.339    481.179    763.658    481.179    513.266    481.179
 57.870    763.000    727.687     35.313    481.240    691.913    481.240    517.066    481.240
 57.970    740.661    693.263     47.398    481.302    653.256    481.302    521.342    481.302
 58.070    670.000    682.950    -12.950    481.366    638.216    481.366    526.120    481.366
 58.170    685.000    691.514     -6.514    481.430    641.548    481.430    531.407    481.430
 58.270    723.878    717.113      6.764    481.494    661.428    481.494    537.183    481.494
 58.370    772.000    759.663     12.337    481.560    697.834    481.560    543.384    481.560
 58.470    801.807    819.019    -17.213    481.627    750.747    481.627    549.887    481.627
 58.570    919.702    893.315     26.387    481.694    818.505    481.694    556.487    481.694
 58.670    925.000    977.727    -52.727    481.763    896.590    481.763    562.883    481.763
 58.770   1002.000   1064.373    -62.373    481.832    977.514    481.832    568.680    481.832
 58.870   1088.000   1144.260    -56.260    481.902   1052.738    481.902    573.423    481.902
 58.970   1196.625   1209.856    -13.231    481.972   1115.179    481.972    576.662    481.972
 59.070   1185.537   1255.065    -69.527    482.044   1159.085    482.044    578.051    482.044
 59.170   1399.000   1274.184    124.816    482.116   1178.905    482.116    577.436    482.116
 59.270   1403.000   1264.891    138.109    482.189   1172.230    482.189    574.900    482.189
 59.370   1273.144   1232.957     40.187    482.263   1144.528    482.263    570.740    482.263
 59.470   1298.000   1191.163    106.837    482.337   1108.151    482.337    565.384    482.337
 59.570   1178.176   1153.349     24.827    482.413   1076.477    482.413    559.293    482.413
 59.670   1251.000   1130.799    120.201    482.489   1060.375    482.489    552.885    482.489
 59.770   1157.000   1132.828     24.172    482.565   1068.831    482.565    546.492    482.565
 59.870   1237.000   1166.773     70.227    482.643   1108.950    482.643    540.348    482.643
 59.970   1241.000   1234.195      6.805    482.721   1182.151    482.721    534.598    482.721
 60.070   1329.822   1326.655      3.166    482.799   1279.919    482.799    529.325    482.799
 60.170   1414.667   1424.383     -9.715    482.879   1382.460    482.879    524.560    482.879
 60.270   1453.000   1498.434    -45.434    482.959   1460.840    482.959    520.303    482.959
 60.370   1450.000   1518.860    -68.860    483.039   1485.137    483.039    516.536    483.039
 60.470   1479.000   1470.023      8.977    483.121   1439.737    483.121    513.226    483.121
 60.570   1305.406   1360.729    -55.323    483.202   1333.469    483.202    510.336    483.202
 60.670   1263.000   1216.591     46.409    483.285   1191.973    483.285    507.826    483.285
 60.770   1109.405   1065.168     44.237    483.368   1042.842    483.368    505.656    483.368
 60.870    935.000    927.401      7.599    483.452    907.052    483.452    503.785    483.452
 60.970    835.000    815.491     19.509    483.536    796.845    483.536    502.178    483.536
 61.070    690.118    733.826    -43.708    483.620    716.647    483.620    500.799    483.620
 61.170    689.583    681.430      8.153    483.706    665.515    483.706    499.619    483.706
 61.270    703.000    655.016     47.984    483.792    640.192    483.792    498.607    483.792
 61.370    666.000    651.670     14.330    483.878    637.791    483.878    497.740    483.878
 61.470    679.000    670.408      8.592    483.965    657.350    483.965    496.993    483.965
 61.570    747.710    712.267     35.442    484.052    699.927    484.052    496.347    484.052
 61.670    769.000    779.026    -10.026    484.140    767.319    484.140    495.781    484.140
 61.770    900.000    871.072     28.928    484.228    859.933    484.228    495.278    484.228
 61.870    880.000    984.947   -104.947    484.317    974.327    484.317    494.824    484.317
 61.970   1102.000   1111.287     -9.287    484.406   1101.156    484.406    494.405    484.406
 62.070   1189.000   1233.728    -44.728    484.495   1224.069    484.495    494.012    484.495
 62.170   1268.000   1329.737    -61.737    484.585   1320.546    484.585    493.640    484.585
 62.270   1315.000   1375.881    -60.881    484.676   1367.157    484.676    493.285    484.676
 62.370   1378.962   1358.609     20.353    484.767   1350.347    484.767    492.949    484.767
 62.470   1248.000   1282.763    -34.763    484.858   1274.947    484.858    492.631    484.858
 62.570   1109.771   1168.109    -58.338    484.949   1160.711    484.949    492.334    484.949
 62.670   1041.526   1038.377      3.148    485.041   1031.366    485.041    492.059    485.041
 62.770    854.000    913.159    -59.159    485.134    906.502    485.134    491.807    485.134
 62.870    784.254    805.077    -20.823    485.226    798.743    485.226    491.579    485.226
 62.970    719.000    719.896     -0.896    485.319    713.858    485.319    491.374    485.319
 63.070    681.000    657.921     23.079    485.412    652.155    485.412    491.190    485.412
 63.170    654.000    616.005     37.995    485.506    610.490    485.506    491.028    485.506
 63.270    588.000    589.573     -1.573    485.600    584.290    485.600    490.886    485.600
 63.370    601.000    574.200     26.800    485.694    569.131    485.694    490.762    485.694
 63.470    534.171    566.513    -32.342    485.788    561.642    485.788    490.656    485.788
 63.570    557.840    564.524     -6.684    485.883    559.836    485.883    490.565    485.883
 63.670    572.000    567.602      4.398    485.977    563.081    485.977    490.489    485.977
 63.770    607.000    576.271     30.729    486.072    571.903    486.072    490.427    486.072
 63.870    614.000    591.918     22.082    486.168    587.689    486.168    490.377    486.168
 63.970    614.000    616.392     -2.392    486.263    612.288    486.263    490.338    486.263
 64.070    697.571    651.434     46.137    486.359    647.442    486.359    490.310    486.359
 64.170    713.000    697.953     15.047    486.454    694.061    486.454    490.291    486.454
 64.270    740.485    755.210    -14.726    486.550    751.408    486.550    490.281    486.550
 64.370    826.000    820.056      5.944    486.647    816.336    486.647    490.279    486.647
 64.470    924.881    886.375     38.506    486.743    882.734    486.743    490.285    486.743
 64.570    987.552    945.168     42.384    486.839    941.606    486.839    490.297    486.839
 64.670    955.000    986.235    -31.235    486.936    982.754    486.936    490.316    486.936
 64.770   1063.180   1001.871     61.308    487.032    998.477    487.032    490.340    487.032
 64.870   1035.537    990.272     45.265    487.129    986.965    487.129    490.370    487.129
 64.970    921.504    955.695    -34.192    487.226    952.474    487.226    490.405    487.226
 65.070    954.000    906.090     47.910    487.323    902.949    487.323    490.445    487.323
 65.170    779.000    850.271    -71.271    487.419    847.203    487.419    490.490    487.419
 65.270    817.683    795.533     22.150    487.516    792.529    487.516    490.539    487.516
 65.370    682.000    746.293    -64.293    487.613    743.344    487.613    490.592    487.613
 65.470    694.641    704.120     -9.479    487.710    701.217    487.710    490.649    487.710
 65.570    650.000    668.837    -18.837    487.807    665.971    487.807    490.709    487.807
 65.670    590.000    639.758    -49.758    487.904    636.922    487.904    490.773    487.904
 65.770    612.429    616.271     -3.841    488.001    613.459    488.001    490.841    488.001
 65.870    562.000    597.815    -35.815    488.098    595.023    488.098    490.912    488.098
 65.970    571.383    583.795    -12.412    488.195    581.020    488.195    490.986    488.195
 66.070    573.000    573.605     -0.605    488.292    570.845    488.292    491.063    488.292
 66.170    557.000    566.678     -9.678    488.388    563.931    488.388    491.143    488.388
 66.270    590.000    562.517     27.483    488.485    559.782    488.485    491.226    488.485
 66.370    601.000    560.711     40.289    488.581    557.985    488.581    491.312    488.581
 66.470    566.000    560.952      5.048    488.678    558.233    488.678    491.401    488.678
 66.570    543.000    563.098    -20.098    488.774    560.384    488.774    491.493    488.774
 66.670    534.001    567.260    -33.260    488.870    564.549    488.870    491.588    488.870
 66.770    551.000    573.946    -22.946    488.966    571.234    488.966    491.685    488.966
 66.870    627.661    584.265     43.396    489.062    581.548    489.062    491.785    489.062
 66.970    560.000    600.219    -40.219    489.158    597.495    489.158    491.889    489.158
 67.070    636.460    625.040     11.419    489.253    622.306    489.253    491.995    489.253
 67.170    709.136    663.461     45.676    489.349    660.712    489.349    492.104    489.349
 67.270    690.052    721.736    -31.684    489.444    718.971    489.444    492.216    489.444
 67.370    786.000    807.163    -21.163    489.539    804.378    489.539    492.332    489.539
 67.470    929.726    926.879      2.847    489.633    924.076    489.633    492.450    489.633
 67.570   1065.000   1085.912    -20.912    489.728   1083.093    489.728    492.572    489.728
 67.670   1310.000   1284.707     25.293    489.822   1281.878    489.822    492.698    489.822
 67.770   1556.000   1516.623     39.377    489.916   1513.791    489.916    492.827    489.916
 67.870   1773.000   1765.953      7.047    490.010   1763.129    490.010    492.960    490.010
 67.970   1936.375   2006.977    -70.602    490.103   2004.170    490.103    493.097    490.103
 68.070   2213.000   2205.196      7.804    490.196   2202.411    490.196    493.238    490.196
 68.170   2345.000   2323.501     21.499    490.289   2320.735    490.289    493.384    490.289
 68.270   2368.228   2335.120     33.108    490.381   2332.354    490.381    493.534    490.381
 68.370   2248.138   2237.165     10.973    490.473   2234.365    490.473    493.690    490.473
 68.470   2087.000   2052.405     34.595    490.565   2049.532    490.565    493.851    490.565
 68.570   1744.102   1817.224    -73.121    490.656   1814.242    490.656    494.018    490.656
 68.670   1660.000   1567.469     92.531    490.747   1564.354    490.747    494.191    490.747
 68.770   1379.000   1330.854     48.146    490.838   1327.591    490.838    494.371    490.838
 68.870   1110.289   1125.053    -14.764    490.928   1121.634    490.928    494.558    490.928
 68.970    970.000    958.378     11.622    491.018    954.801    491.018    494.753    491.018
 69.070    796.000    831.600    -35.600    491.107    827.864    491.107    494.957    491.107
 69.170    739.000    740.385     -1.385    491.196    736.491    491.196    495.170    491.196
 69.270    692.000    677.818     14.182    491.285    673.765    491.285    495.394    491.285
 69.370    628.000    636.492     -8.492    491.373    632.276    491.373    495.629    491.373
 69.470    680.000    609.862     70.138    491.460    605.474    491.460    495.876    491.460
 69.570    596.000    592.848      3.152    491.547    588.278    491.547    496.138    491.547
 69.670    629.000    581.893     47.107    491.634    577.128    491.634    496.415    491.634
 69.770    617.000    574.705     42.295    491.720    569.729    491.720    496.710    491.720
 69.870    616.562    569.908     46.654    491.805    564.702    491.805    497.024    491.805
 69.970    547.065    566.725    -19.660    491.890    561.265    491.890    497.360    491.890
 70.070    531.109    564.737    -33.628    491.975    558.999    491.975    497.721    491.975
 70.170    563.405    563.741     -0.336    492.059    557.696    492.059    498.111    492.059
 70.270    570.000    563.662      6.338    492.142    557.275    492.142    498.535    492.142
 70.370    542.000    564.529    -22.529    492.225    557.760    492.225    498.998    492.225
 70.470    600.502    566.482     34.020    492.307    559.286    492.307    499.507    492.307
 70.570    601.000    569.833     31.167    492.389    562.153    492.389    500.071    492.389
 70.670    562.000    575.151    -13.151    492.470    566.921    492.470    500.700    492.470
 70.770    573.000    583.412    -10.412    492.551    574.553    492.551    501.407    492.551
 70.870    574.000    596.172    -22.172    492.630    586.589    492.630    502.207    492.630
 70.970    578.000    615.748    -37.748    492.709    605.326    492.709    503.119    492.709
 71.070    660.000    645.327     14.673    492.788    633.931    492.788    504.163    492.788
 71.170    711.114    688.904     22.211    492.866    676.372    492.866    505.366    492.866
 71.270    805.323    750.923     54.401    492.943    737.064    492.943    506.756    492.943
 71.370    818.078    835.545    -17.467    493.019    820.139    493.019    508.363    493.019
 71.470    897.279    945.555    -48.276    493.095    928.347    493.095    510.223    493.095
 71.570   1057.000   1081.038    -24.038    493.170   1061.741    493.170    512.370    493.170
 71.670   1210.000   1238.098    -28.098    493.245   1216.391    493.245    514.840    493.245
 71.770   1398.000   1407.845     -9.845    493.318   1383.375    493.318    517.667    493.318
 71.870   1566.000   1575.851     -9.851    493.391   1548.243    493.391    520.879    493.391
 71.970   1778.000   1722.435     55.565    493.463   1691.294    493.463    524.498    493.463
 72.070   1799.138   1824.965    -25.827    493.535   1789.886    493.535    528.532    493.535
 72.170   1888.000   1863.920     24.080    493.605   1824.507    493.605    532.970    493.605
 72.270   1844.000   1831.463     12.537    493.675   1787.350    493.675    537.773    493.675
 72.370   1745.537   1735.756      9.780    493.744   1686.649    493.744    542.865    493.744
 72.470   1591.000   1596.407     -5.407    493.812   1542.137    493.812    548.116    493.812
 72.570   1490.073   1435.849     54.223    493.880   1376.443    493.880    553.331    493.880
 72.670   1274.000   1273.366      0.634    493.946   1209.118    493.946    558.244    493.946
 72.770   1080.000   1122.883    -42.883    494.012   1054.423    494.012    562.522    494.012
 72.870   1007.740    992.769     14.971    494.077    921.088    494.077    565.803    494.077
 72.970    862.000    886.467    -24.467    494.141    812.887    494.141    567.761    494.141
 73.070    808.000    803.598      4.402    494.204    729.658    494.204    568.179    494.204
 73.170    704.000    741.319    -37.319    494.267    668.603    494.267    567.012    494.267
 73.270    709.000    695.645     13.355    494.328    625.594    494.328    564.405    494.328
 73.370    633.320    662.488    -29.167    494.389    596.254    494.389    560.645    494.389
 73.470    679.000    638.297     40.703    494.448    576.678    494.448    556.088    494.448
 73.570    633.000    620.336     12.664    494.507    563.776    494.507    551.086    494.507
 73.670    600.392    606.688     -6.296    494.565    555.333    494.565    545.938    494.565
 73.770    625.000    596.124     28.876    494.621    549.891    494.621    540.872    494.621
 73.870    588.000    587.906      0.094    494.677    546.559    494.677    536.044    494.677
 73.970    577.697    581.614     -3.917    494.732    544.814    494.732    531.553    494.732
 74.070    537.000    576.984    -39.984    494.786    544.341    494.786    527.453    494.786
 74.170    553.000    573.815    -20.815    494.839    544.916    494.839    523.766    494.839
 74.270    552.000    571.873    -19.873    494.891    546.306    494.891    520.490    494.891
 74.370    578.156    570.854      7.303    494.942    548.222    494.942    517.611    494.942
 74.470    595.000    570.362     24.638    494.992    550.294    494.992    515.102    494.992
 74.570    562.394    569.915     -7.521    495.041    552.072    495.041    512.931    495.041
 74.670    629.000    568.994     60.006    495.089    553.070    495.089    511.063    495.089
 74.770    651.000    567.170     83.830    495.136    552.895    495.136    509.462    495.136
 74.870    662.000    564.272     97.728    495.182    551.409    495.182    508.094    495.182
 74.970    529.210    560.462    -31.252    495.226    548.809    495.226    506.925    495.226
 75.070    543.110    556.162    -13.051    495.270    545.546    495.270    505.927    495.270
 75.170    556.899    551.897      5.002    495.313    542.173    495.313    505.072    495.313
 75.270    602.000    548.201     53.799    495.354    539.246    495.354    504.336    495.354
 75.370    512.655    545.578    -32.924    495.395    537.292    495.395    503.702    495.395
 75.470    577.000    544.519     32.481    495.434    536.816    495.434    503.150    495.434
 75.570    598.000    545.503     52.497    495.472    538.313    495.472    502.669    495.472
 75.670    554.000    549.000      5.000    495.509    542.264    495.509    502.246    495.509
 75.770    598.844    555.443     43.401    495.545    549.111    495.545    501.872    495.545
 75.870    542.862    565.169    -22.307    495.580    559.198    495.580    501.539    495.580
 75.970    595.000    578.328     16.672    495.614    572.681    495.614    501.242    495.614
 76.070    613.116    594.774     18.342    495.647    589.419    495.647    500.974    495.647
 76.170    611.506    613.951     -2.445    495.678    608.862    495.678    500.733    495.678
 76.270    631.061    634.809     -3.748    495.708    629.961    495.708    500.514    495.708
 76.370    613.000    655.745    -42.745    495.737    651.120    495.737    500.314    495.737
 76.470    681.229    674.634      6.595    495.765    670.214    495.765    500.132    495.765
 76.570    694.000    689.004      4.996    495.792    684.776    495.792    499.966    495.792
 76.670    738.508    696.525     41.983    495.817    692.477    495.817    499.813    495.817
 76.770    673.000    695.757    -22.757    495.841    691.878    495.841    499.672    495.841
 76.870    679.000    686.760     -7.760    495.864    683.040    495.864    499.542    495.864
 76.970    637.000    671.062    -34.062    495.886    667.491    495.886    499.421    495.886
 77.070    679.000    651.013     27.987    495.906    647.582    495.906    499.309    495.906
 77.170    630.000    629.043      0.957    495.926    625.742    495.926    499.206    495.926
 77.270    584.102    607.206    -23.104    495.944    604.025    495.944    499.109    495.944
 77.370    580.915    587.009     -6.094    495.960    583.940    495.960    499.018    495.960
 77.470    554.000    569.400    -15.400    495.976    566.435    495.976    498.934    495.976
 77.570    573.578    554.815     18.763    495.990    551.946    495.990    498.854    495.990
 77.670    517.000    543.278    -26.278    496.003    540.498    496.003    498.779    496.003
 77.770    523.000    534.518    -11.518    496.015    531.822    496.015    498.709    496.015
 77.870    542.617    528.101     14.516    496.025    525.482    496.025    498.642    496.025
 77.970    526.442    523.535      2.907    496.034    520.989    496.034    498.579    496.034
 78.070    502.000    520.352    -18.352    496.042    517.874    496.042    498.519    496.042
 78.170    489.000    518.158    -29.158    496.048    515.744    496.048    498.462    496.048
 78.270    521.000    516.644      4.356    496.053    514.290    496.053    498.407    496.053
 78.370    537.000    515.590     21.410    496.057    513.292    496.057    498.355    496.057
 78.470    540.000    514.848     25.152    496.059    512.602    496.059    498.305    496.059
 78.570    513.000    514.323     -1.323    496.060    512.126    496.060    498.257    496.060
 78.670    462.000    513.963    -51.963    496.059    511.812    496.059    498.210    496.059
 78.770    526.000    513.741     12.259    496.058    511.634    496.058    498.166    496.058
 78.870    490.000    513.651    -23.651    496.054    511.583    496.054    498.123    496.054
 78.970    544.000    513.699     30.301    496.050    511.668    496.050    498.081    496.050
 79.070    502.000    513.901    -11.901    496.044    511.905    496.044    498.041    496.044
 79.170    495.000    514.283    -19.283    496.037    512.319    496.037    498.001    496.037
 79.270    474.745    514.877    -40.132    496.028    512.941    496.028    497.964    496.028
 79.370    506.442    515.718     -9.275    496.018    513.808    496.018    497.927    496.018
 79.470    496.000    516.849    -20.849    496.006    514.964    496.006    497.891    496.006
 79.570    553.377    518.323     35.055    495.993    516.459    495.993    497.856    495.993
 79.670    496.000    520.203    -24.203    495.979    518.358    495.979    497.822    495.979
 79.770    538.000    522.575     15.425    495.963    520.748    495.963    497.788    495.963
 79.870    512.582    525.559    -12.977    495.946    523.747    495.946    497.755    495.946
 79.970    534.757    529.313      5.444    495.927    527.514    495.927    497.723    495.927
 80.070    514.497    534.047    -19.550    495.907    532.260    495.907    497.690    495.907
 80.170    558.000    540.030     17.970    495.885    538.255    495.885    497.658    495.885
 80.270    552.000    547.600      4.400    495.862    545.835    495.862    497.625    495.862
 80.370    564.000    557.136      6.864    495.838    555.382    495.838    497.591    495.838
 80.470    561.000    569.001     -8.001    495.812    567.259    495.812    497.556    495.812
 80.570    583.375    583.444     -0.069    495.784    581.714    495.784    497.519    495.784
 80.670    628.000    600.492     27.508    495.755    598.777    495.755    497.480    495.755
 80.770    651.000    619.848     31.152    495.725    618.150    495.725    497.437    495.725
 80.870    656.000    640.947     15.053    495.693    639.268    495.693    497.391    495.693
 80.970    653.000    662.824     -9.824    495.659    661.167    495.659    497.342    495.659
 81.070    662.000    684.246    -22.246    495.624    682.615    495.624    497.289    495.624
 81.170    638.000    703.905    -65.905    495.588    702.301    495.588    497.233    495.588
 81.270    707.038    720.580    -13.542    495.550    719.004    495.550    497.174    495.550
 81.370    760.006    733.257     26.749    495.510    731.710    495.510    497.113    495.510
 81.470    739.000    741.205     -2.205    495.469    739.688    495.469    497.049    495.469
 81.570    707.024    744.063    -37.039    495.427    742.574    495.427    496.984    495.427
 81.670    762.000    741.849     20.151    495.382    740.386    495.382    496.918    495.382
 81.770    620.000    734.876   -114.876    495.337    733.437    495.337    496.851    495.337
 81.870    727.000    723.700      3.300    495.290    722.284    495.290    496.783    495.290
 81.970    689.000    709.136    -20.136    495.241    707.738    495.241    496.715    495.241
 82.070    671.000    692.257    -21.257    495.190    690.875    495.190    496.647    495.190
 82.170    673.000    674.219     -1.219    495.139    672.851    495.139    496.578    495.139
 82.270    700.996    656.007     44.989    495.085    654.651    495.085    496.508    495.085
 82.370    634.627    638.288     -3.662    495.030    636.942    495.030    496.439    495.030
 82.470    580.000    621.443    -41.443    494.974    620.105    494.974    496.369    494.974
 82.570    618.713    605.703     13.010    494.916    604.371    494.916    496.299    494.916
 82.670    612.000    591.279     20.721    494.856    589.953    494.856    496.228    494.856
 82.770    591.708    578.410     13.298    494.795    577.086    494.795    496.156    494.795
 82.870    561.435    567.329     -5.893    494.732    566.007    494.732    496.084    494.732
 82.970    534.000    558.227    -24.227    494.667    556.906    494.667    496.012    494.667
 83.070    590.000    551.230     38.770    494.601    549.909    494.601    495.939    494.601
 83.170    519.000    546.394    -27.394    494.534    545.071    494.534    495.865    494.534
 83.270    495.000    543.698    -48.698    494.465    542.373    494.465    495.790    494.465
 83.370    552.000    543.037      8.963    494.394    541.708    494.394    495.715    494.394
 83.470    493.000    544.209    -51.209    494.321    542.877    494.321    495.638    494.321
 83.570    501.931    546.911    -44.980    494.247    545.575    494.247    495.561    494.247
 83.670    546.594    550.734     -4.140    494.172    549.393    494.172    495.482    494.172
 83.770    509.364    555.168    -45.805    494.095    553.823    494.095    495.403    494.095
 83.870    599.243    559.624     39.618    494.016    558.275    494.016    495.323    494.016
 83.970    542.490    563.460    -20.970    493.935    562.108    493.935    495.241    493.935
 84.070    548.379    566.050    -17.671    493.853    564.696    493.853    495.159    493.853
 84.170    549.000    566.893    -17.893    493.770    565.539    493.770    495.075    493.770
 84.270    551.000    565.741    -14.741    493.684    564.388    493.684    494.990    493.684
 84.370    590.956    562.660     28.296    493.598    561.310    493.598    494.904    493.598
 84.470    567.000    557.996      9.004    493.509    556.649    493.509    494.817    493.509
 84.570    570.000    552.247     17.753    493.419    550.903    493.419    494.729    493.419
 84.670    568.000    545.940     22.060    493.327    544.599    493.327    494.640    493.327
 84.770    544.220    539.551      4.669    493.234    538.213    493.234    494.550    493.234
 84.870    575.563    533.466     42.097    493.139    532.129    493.139    494.458    493.139
 84.970    562.000    527.962     34.038    493.042    526.624    493.042    494.365    493.042
 85.070    475.000    523.209    -48.209    492.944    521.871    492.944    494.271    492.944
 85.170    552.222    519.282     32.940    492.844    517.942    492.844    494.176    492.844
 85.270    500.000    516.179    -16.179    492.743    514.835    492.743    494.080    492.743
 85.370    497.725    513.840    -16.115    492.640    512.491    492.640    493.982    492.640
 85.470    532.000    512.177     19.823    492.535    510.823    492.535    493.883    492.535
 85.570    513.023    511.094      1.929    492.429    509.734    492.429    493.784    492.429
 85.670    521.000    510.506     10.494    492.321    509.139    492.321    493.683    492.321
 85.770    544.000    510.352     33.648    492.211    508.977    492.211    493.581    492.211
 85.870    499.887    510.602    -10.715    492.100    509.218    492.100    493.477    492.100
 85.970    496.000    511.263    -15.263    491.987    509.870    491.987    493.373    491.987
 86.070    502.000    512.381    -10.381    491.872    510.976    491.872    493.267    491.872
 86.170    496.540    514.037    -17.497    491.756    512.621    491.756    493.161    491.756
 86.270    521.000    516.348      4.652    491.638    514.919    491.638    493.053    491.638
 86.370    488.000    519.451    -31.451    491.519    518.007    491.519    492.944    491.519
 86.470    549.000    523.494     25.506    491.398    522.035    491.398    492.835    491.398
 86.570    555.000    528.619     26.381    491.275    527.141    491.275    492.724    491.275
 86.670    555.000    534.931     20.069    491.151    533.433    491.151    492.612    491.151
 86.770    588.640    542.474     46.165    491.025    540.956    491.025    492.499    491.025
 86.870    577.000    551.202     25.798    490.897    549.660    490.897    492.385    490.897
 86.970    543.000    560.943    -17.943    490.768    559.376    490.768    492.271    490.768
 87.070    618.000    571.381     46.619    490.638    569.789    490.638    492.155    490.638
 87.170    603.000    582.045     20.955    490.505    580.427    490.505    492.038    490.505
 87.270    636.924    592.308     44.616    490.371    590.665    490.371    491.921    490.371
 87.370    599.000    601.415     -2.415    490.236    599.748    490.236    491.803    490.236
 87.470    626.318    608.559     17.759    490.098    606.870    490.098    491.684    490.098
 87.570    608.000    613.018     -5.018    489.959    611.310    489.959    491.564    489.959
 87.670    620.000    614.337      5.663    489.819    612.612    489.819    491.443    489.819
 87.770    678.000    612.462     65.538    489.677    610.724    489.677    491.322    489.677
 87.870    591.000    607.759    -16.759    489.533    606.008    489.533    491.201    489.533
 87.970    605.000    600.899      4.101    489.388    599.136    489.388    491.078    489.388
 88.070    686.000    592.706     93.294    489.241    590.932    489.241    490.955    489.241
 88.170    581.000    584.033     -3.033    489.093    582.245    489.093    490.832    489.093
 88.270    576.000    575.676      0.324    488.942    573.874    488.942    490.709    488.942
 88.370    568.000    568.325     -0.325    488.791    566.506    488.791    490.585    488.791
 88.470    598.675    562.518     36.157    488.638    560.680    488.638    490.461    488.638
 88.570    540.811    558.623    -17.812    488.483    556.764    488.483    490.337    488.483
 88.670    584.000    556.824     27.176    488.326    554.941    488.326    490.213    488.326
 88.770    609.000    557.122     51.878    488.168    555.214    488.168    490.089    488.168
 88.870    561.000    559.346      1.654    488.009    557.410    488.009    489.965    488.009
 88.970    555.000    563.168     -8.168    487.848    561.202    487.848    489.841    487.848
 89.070    600.000    568.124     31.876    487.685    566.126    487.685    489.719    487.685
 89.170    590.000    573.640     16.360    487.521    571.606    487.521    489.597    487.521
 89.270    617.041    579.056     37.986    487.355    576.984    487.355    489.475    487.355
 89.370    579.000    583.675     -4.675    487.187    581.563    487.187    489.355    487.187
 89.470    603.000    586.835     16.165    487.018    584.678    487.018    489.237    487.018
 89.570    589.000    588.010      0.990    486.848    585.802    486.848    489.120    486.848
 89.670    563.000    586.925    -23.925    486.676    584.661    486.676    489.005    486.676
 89.770    570.000    583.615    -13.615    486.502    581.290    486.502    488.892    486.502
 89.870    541.000    578.395    -37.395    486.327    576.002    486.327    488.783    486.327
 89.970    571.000    571.757     -0.757    486.151    569.289    486.151    488.677    486.151
 90.070    535.000    564.253    -29.253    485.973    561.704    485.973    488.575    485.973
 90.170    557.771    556.408      1.362    485.793    553.771    485.793    488.477    485.793
 90.270    514.227    548.676    -34.449    485.612    545.943    485.612    488.385    485.612
 90.370    561.694    541.401     20.293    485.429    538.565    485.429    488.299    485.429
 90.470    492.888    534.855    -41.967    485.245    531.908    485.245    488.220    485.245
 90.570    549.000    529.206     19.794    485.059    526.138    485.059    488.150    485.059
 90.670    523.000    524.513     -1.513    484.872    521.315    484.872    488.088    484.872
 90.770    442.000    520.774    -78.774    484.684    517.434    484.684    488.037    484.684
 90.870    551.029    517.935     33.094    484.494    514.440    484.494    487.998    484.494
 90.970    552.000    515.913     36.087    484.302    512.250    484.302    487.973    484.302
 91.070    507.048    514.613     -7.565    484.109    510.766    484.109    487.962    484.109
 91.170    493.000    513.949    -20.949    483.915    509.900    483.915    487.967    483.915
 91.270    497.026    513.853    -16.827    483.719    509.584    483.719    487.990    483.719
 91.370    519.931    514.289      5.642    483.521    509.778    483.521    488.033    483.521
 91.470    537.701    515.256     22.444    483.323    510.481    483.323    488.098    483.323
 91.570    480.000    516.793    -36.793    483.123    511.729    483.123    488.185    483.123
 91.670    507.393    518.979    -11.587    482.921    513.601    482.921    488.297    482.921
 91.770    561.000    521.930     39.070    482.718    516.209    482.718    488.434    482.718
 91.870    511.957    525.794    -13.837    482.514    519.702    482.514    488.599    482.514
 91.970    546.105    530.746     15.359    482.308    524.252    482.308    488.792    482.308
 92.070    545.000    536.971      8.029    482.101    530.045    482.101    489.014    482.101
 92.170    550.000    544.651      5.349    481.892    537.263    481.892    489.264    481.892
 92.270    565.875    553.949     11.925    481.682    546.068    481.682    489.544    481.682
 92.370    559.983    564.985     -5.002    481.471    556.580    481.471    489.850    481.471
 92.470    564.000    577.815    -13.815    481.258    568.860    481.258    490.182    481.258
 92.570    559.000    592.413    -33.413    481.044    582.885    481.044    490.536    481.044
 92.670    611.000    608.657      2.343    480.829    598.537    480.829    490.907    480.829
 92.770    615.000    626.306    -11.306    480.612    615.582    480.612    491.287    480.612
 92.870    616.000    644.997    -28.997    480.395    633.668    480.395    491.669    480.395
 92.970    700.000    664.248     35.752    480.175    652.323    480.175    492.041    480.175
 93.070    650.000    683.476    -33.476    479.955    670.978    479.955    492.390    479.955
 93.170    667.944    702.064    -34.121    479.733    689.033    479.733    492.698    479.733
 93.270    736.000    719.464     16.536    479.510    705.956    479.510    492.951    479.510
 93.370    716.239    735.306    -19.067    479.286    721.396    479.286    493.129    479.286
 93.470    704.311    749.476    -45.164    479.060    735.253    479.060    493.217    479.060
 93.570    730.000    762.086    -32.086    478.833    747.654    478.833    493.202    478.833
 93.670    815.428    773.383     42.044    478.605    758.854    478.605    493.074    478.605
 93.770    774.308    783.634     -9.326    478.376    769.123    478.376    492.830    478.376
 93.870    835.495    793.056     42.439    478.146    778.674    478.146    492.472    478.146
 93.970    809.203    801.830      7.373    477.914    787.682    477.914    492.011    477.914
 94.070    848.000    810.160     37.840    477.681    796.335    477.681    491.457    477.681
 94.170    845.000    818.316     26.684    477.447    804.888    477.447    490.829    477.447
 94.270    871.526    826.600     44.926    477.212    813.626    477.212    490.143    477.212
 94.370    864.678    835.234     29.445    476.976    822.753    476.976    489.417    476.976
 94.470    877.000    844.208     32.792    476.738    832.243    476.738    488.666    476.738
 94.570    826.422    853.170    -26.748    476.500    841.731    476.500    487.905    476.500
 94.670    868.000    861.403      6.597    476.260    850.488    476.260    487.146    476.260
 94.770    913.000    867.866     45.134    476.019    857.463    476.019    486.397    476.019
 94.870    821.210    871.286    -50.076    475.777    861.377    475.777    485.667    475.777
 94.970    899.000    870.550     28.450    475.534    861.113    475.534    484.959    475.534
 95.070    911.000    864.722     46.278    475.290    855.729    475.290    484.279    475.290
 95.170    805.135    853.444    -48.309    475.045    844.864    475.045    483.627    475.045
 95.270    838.000    837.059      0.941    474.799    828.860    474.799    483.007    474.799
 95.370    826.000    816.546      9.454    474.552    808.694    474.552    482.418    474.552
 95.470    828.000    793.322     34.678    474.304    785.784    474.304    481.861    474.304
 95.570    722.068    769.023    -46.955    474.055    761.763    474.055    481.336    474.055
 95.670    786.606    745.328     41.278    473.805    738.313    473.805    480.841    473.805
 95.770    720.000    723.861     -3.861    473.553    717.059    473.553    480.375    473.553
 95.870    758.324    706.129     52.196    473.301    699.510    473.301    479.938    473.301
 95.970    721.000    693.486     27.514    473.048    687.020    473.048    479.529    473.048
 96.070    678.222    687.135     -8.914    472.795    680.793    472.795    479.145    472.795
 96.170    655.000    688.091    -33.091    472.540    681.847    472.540    478.786    472.540
 96.270    683.649    697.171    -13.522    472.284    691.000    472.284    478.451    472.284
 96.370    707.000    714.991     -7.991    472.028    708.869    472.028    478.138    472.028
 96.470    720.000    741.941    -21.941    471.770    735.846    471.770    477.846    471.770
 96.570    740.000    778.142    -38.142    471.512    772.053    471.512    477.575    471.512
 96.670    820.000    823.397     -3.397    471.253    817.294    471.253    477.323    471.253
 96.770    883.104    877.125      5.978    470.993    870.989    470.993    477.091    470.993
 96.870    908.000    938.294    -30.294    470.732    932.107    470.732    476.876    470.732
 96.970   1021.755   1005.362     16.394    470.471    999.107    470.471    476.680    470.471
 97.070   1037.000   1076.240    -39.240    470.208   1069.900    470.208    476.503    470.208
 97.170   1074.000   1148.281    -74.281    469.945   1141.840    469.945    476.344    469.945
 97.270   1178.000   1218.302    -40.302    469.682   1211.743    469.682    476.204    469.682
 97.370   1308.000   1282.680     25.320    469.417   1275.985    469.417    476.084    469.417
 97.470   1340.836   1337.559      3.277    469.152   1330.711    469.152    475.986    469.152
 97.570   1328.945   1379.230    -50.285    468.886   1372.207    468.886    475.910    468.886
 97.670   1372.906   1404.659    -31.754    468.620   1397.440    468.620    475.859    468.620
 97.770   1359.000   1412.054    -53.054    468.353   1404.611    468.353    475.835    468.353
 97.870   1464.295   1401.227     63.068    468.085   1393.530    468.085    475.839    468.085
 97.970   1433.000   1373.591     59.409    467.817   1365.605    467.817    475.876    467.817
 98.070   1339.352   1331.807      7.545    467.548   1323.492    467.548    475.949    467.548
 98.170   1258.939   1279.274    -20.336    467.278   1270.587    467.278    476.060    467.278
 98.270   1285.906   1219.667     66.239    467.008   1210.559    467.008    476.215    467.008
 98.370   1183.000   1156.600     26.400    466.737   1147.019    466.737    476.418    466.737
 98.470   1053.350   1093.436    -40.086    466.466   1083.325    466.466    476.674    466.466
 98.570   1045.000   1033.173     11.827    466.195   1022.470    466.195    476.988    466.195
 98.670    924.240    978.404    -54.164    465.922    967.044    465.922    477.366    465.922
 98.770    913.000    931.309    -18.309    465.650    919.219    465.650    477.814    465.650
 98.870    879.000    893.651    -14.651    465.377    880.756    465.377    478.337    465.377
 98.970    828.000    866.882    -38.882    465.104    853.099    465.104    478.941    465.104
 99.070    767.000    852.049    -85.049    464.830    837.291    464.830    479.633    464.830
 99.170    896.148    849.898     46.251    464.556    834.072    464.556    480.417    464.556
 99.270    891.000    860.892     30.108    464.281    843.902    464.281    481.301    464.281
 99.370    863.000    885.232    -22.232    464.006    866.976    464.006    482.288    464.006
 99.470    890.293    922.856    -32.564    463.731    903.229    463.731    483.382    463.731
 99.570   1018.668    973.427     45.241    463.455    952.319    463.455    484.587    463.455
 99.670   1077.192   1036.292     40.899    463.180   1013.594    463.180    485.905    463.180
 99.770   1139.000   1110.439     28.561    462.904   1086.041    462.904    487.336    462.904
 99.870   1149.000   1194.432    -45.432    462.627   1168.226    462.627    488.878    462.627
 99.970   1327.473   1286.356     41.118    462.351   1258.238    462.351    490.528    462.351
100.070   1360.544   1383.792    -23.248    462.074   1353.665    462.074    492.278    462.074
100.170   1553.146   1483.788     69.359    461.798   1451.567    461.798    494.118    461.798
100.270   1560.000   1582.953    -22.953    461.521   1548.567    461.521    496.032    461.521
100.370   1646.000   1677.639    -31.639    461.244   1641.036    461.244    497.999    461.244
100.470   1802.222   1764.218     38.004    460.966   1725.375    460.966    499.993    460.966
100.570   1904.000   1839.408     64.592    460.689   1798.331    460.689    501.979    460.689
100.670   1944.000   1900.508     43.492    460.412   1857.246    460.412    503.915    460.412
100.770   1904.730   1945.464    -40.734    460.135   1900.114    460.135    505.753    460.135
100.870   2006.000   1972.794     33.206    459.857   1925.505    459.857    507.437    459.857
100.970   2027.000   1981.498     45.502    459.580   1932.480    459.580    508.906    459.580
101.070   1995.702   1971.131     24.571    459.303   1920.653    459.303    510.102    459.303
101.170   1934.000   1942.048     -8.048    459.026   1890.436    459.026    510.967    459.026
101.270   1907.000   1895.703     11.297    458.749   1843.329    458.749    511.453    458.749
101.370   1893.000   1834.769     58.231    458.472   1782.040    458.472    511.528    458.472
101.470   1753.000   1762.949     -9.949    458.195   1710.287    458.195    511.174    458.195
101.570   1658.000   1684.511    -26.511    457.919   1632.335    457.919    510.398    457.919
101.670   1678.745   1603.750     74.995    457.642   1552.456    457.642    509.221    457.642
101.770   1514.000   1524.534    -10.534    457.366   1474.481    457.366    507.686    457.366
101.870   1421.000   1450.016    -29.016    457.090   1401.510    457.090    505.843    457.090
101.970   1426.000   1382.494     43.506    456.814   1335.783    456.814    503.751    456.814
102.070   1289.000   1323.371    -34.371    456.539   1278.645    456.539    501.472    456.539
102.170   1246.000   1273.184    -27.184    456.264   1230.575    456.264    499.063    456.264
102.270   1283.396   1231.660     51.736    455.989   1191.247    455.989    496.578    455.989
102.370   1204.000   1197.807      6.193    455.715   1159.624    455.715    494.062    455.715
102.470   1211.000   1170.040     40.960    455.441   1134.081    455.441    491.555    455.441
102.570   1124.000   1146.344    -22.344    455.168   1112.574    455.168    489.086    455.168
102.670   1064.000   1124.500    -60.500    454.895   1092.858    454.895    486.681    454.895
102.770   1071.000   1102.345    -31.345    454.622   1072.751    454.622    484.357    454.622
102.870   1086.265   1078.119      8.145    454.350   1050.479    454.350    482.129    454.350
102.970    992.556   1050.627    -58.071    454.079   1024.837    454.079    480.006    454.079
103.070    993.000   1019.372    -26.372    453.808    995.321    453.808    477.992    453.808
103.170   1016.000    984.515     31.485    453.538    962.089    453.538    476.092    453.538
103.270    922.035    946.706    -24.671    453.268    925.791    453.268    474.306    453.268
103.370    931.000    906.883     24.117    452.999    887.365    452.999    472.633    452.999
103.470    828.000    866.097    -38.097    452.731    847.865    452.731    471.070    452.731
103.570    854.471    825.387     29.084    452.463    808.335    452.463    469.614    452.463
103.670    790.000    785.707      4.293    452.196    769.732    452.196    468.260    452.196
103.770    699.424    747.878    -48.454    451.930    732.885    451.930    467.003    451.930
103.870    747.000    712.561     34.439    451.665    698.458    451.665    465.838    451.665
103.970    649.697    680.244    -30.547    451.401    666.946    451.401    464.760    451.401
104.070    712.000    651.237     60.763    451.137    638.667    451.137    463.760    451.137
104.170    672.000    625.684     46.316    450.874    613.768    450.874    462.835    450.874
104.270    591.952    603.577    -11.625    450.613    592.250    450.613    461.978    450.613
104.370    573.292    584.786    -11.495    450.352    573.987    450.352    461.183    450.352
104.470    576.793    569.089      7.704    450.092    558.763    450.092    460.445    450.092
104.570    586.000    556.201     29.799    449.833    546.298    449.833    459.759    449.833
104.670    539.999    545.807     -5.808    449.576    536.281    449.576    459.119    449.576
104.770    538.982    537.585      1.397    449.319    528.397    449.319    458.521    449.319
104.870    569.000    531.230     37.770    449.064    522.343    449.064    457.962    449.064
104.970    549.000    526.469     22.531    448.809    517.850    448.809    457.437    448.809
105.070    576.000    523.068     52.932    448.556    514.687    448.556    456.943    448.556
105.170    513.044    520.839     -7.795    448.304    512.671    448.304    456.477    448.304
105.270    496.000    519.644    -23.644    448.053    511.664    448.053    456.036    448.053
105.370    501.000    519.388    -18.388    447.804    511.574    447.804    455.619    447.804
105.470    574.000    520.017     53.983    447.556    512.350    447.556    455.222    447.556
105.570    478.373    521.516    -43.144    447.309    513.979    447.309    454.844    447.309
105.670    531.797    523.900      7.897    447.064    516.475    447.064    454.484    447.064
105.770    526.000    527.207     -1.207    446.820    519.880    446.820    454.140    446.820
105.870    512.791    531.490    -18.699    446.577    524.247    446.577    453.811    446.577
105.970    573.000    536.809     36.191    446.336    529.638    446.336    453.496    446.336
106.070    507.231    543.217    -35.986    446.097    536.106    446.097    453.194    446.097
106.170    571.811    550.748     21.063    445.859    543.686    445.859    452.905    445.859
106.270    598.000    559.405     38.595    445.623    552.381    445.623    452.627    445.623
106.370    591.646    569.149     22.496    445.388    562.154    445.388    452.361    445.388
106.470    588.000    579.893      8.107    445.155    572.917    445.155    452.106    445.155
106.570    602.000    591.493     10.507    444.923    584.527    444.923    451.861    444.923
106.670    573.000    603.750    -30.750    444.694    596.786    444.694    451.627    444.694
106.770    601.000    616.409    -15.409    444.466    609.440    444.466    451.402    444.466
106.870    634.000    629.163      4.837    444.240    622.180    444.240    451.188    444.240
106.970    611.000    641.658    -30.658    444.016    634.654    444.016    450.983    444.016
107.070    645.000    653.510     -8.510    443.793    646.478    443.793    450.788    443.793
107.170    625.000    664.324    -39.324    443.573    657.257    443.573    450.602    443.573
107.270    657.000    673.726    -16.726    443.355    666.618    443.355    450.426    443.355
107.370    709.000    681.409     27.591    443.138    674.253    443.138    450.260    443.138
107.470    663.000    687.181    -24.181    442.924    679.970    442.924    450.103    442.924
107.570    658.000    691.003    -33.003    442.711    683.730    442.711    449.956    442.711
107.670    668.000    693.003    -25.003    442.501    685.660    442.501    449.819    442.501
107.770    632.000    693.463    -61.463    442.293    686.044    442.293    449.692    442.293
107.870    719.000    692.773     26.227    442.087    685.269    442.087    449.576    442.087
107.970    712.291    691.362     20.929    441.884    683.766    441.884    449.469    441.884
108.070    712.628    689.651     22.976    441.682    681.954    441.682    449.374    441.682
108.170    692.000    688.002      3.998    441.483    680.195    441.483    449.289    441.483
108.270    699.000    686.708     12.292    441.286    678.782    441.286    449.216    441.286
108.370    717.000    685.946     31.054    441.092    677.891    441.092    449.155    441.092
108.470    640.000    685.781    -45.781    440.900    677.588    440.900    449.105    440.900
108.570    736.380    686.164     50.217    440.711    677.823    440.711    449.069    440.711
108.670    666.000    686.932    -20.932    440.524    678.432    440.524    449.045    440.524
108.770    698.000    687.823     10.177    440.339    679.151    440.339    449.036    440.339
108.870    734.000    688.491     45.509    440.157    679.636    440.157    449.040    440.157
108.970    730.934    688.541     42.394    439.978    679.490    439.978    449.060    439.978
109.070    697.097    687.569      9.528    439.802    678.308    439.802    449.097    439.802
109.170    719.350    685.221     34.129    439.628    675.736    439.628    449.150    439.628
109.270    719.000    681.244     37.756    439.457    671.518    439.457    449.222    439.457
109.370    665.000    675.522    -10.522    439.289    665.538    439.289    449.313    439.289
109.470    690.000    668.096     21.904    439.123    657.835    439.123    449.425    439.123
109.570    685.110    659.142     25.968    438.961    648.584    438.961    449.559    438.961
109.670    666.822    648.938     17.883    438.801    638.062    438.801    449.717    438.801
109.770    670.851    637.823     33.028    438.645    626.605    438.645    449.901    438.645
109.870    639.000    626.154     12.846    438.491    614.568    438.491    450.113    438.491
109.970    622.000    614.280      7.720    438.341    602.298    438.341    450.356    438.341
110.070    645.000    602.523     42.477    438.193    590.116    438.193    450.631    438.193
110.170    611.087    591.169     19.918    438.049    578.304    438.049    450.943    438.049
110.270    592.000    580.459     11.541    437.908    567.099    437.908    451.293    437.908
110.370    583.000    570.587     12.413    437.770    556.694    437.770    451.686    437.770
110.470    604.000    561.698     42.302    437.636    547.229    437.636    452.125    437.636
110.570    567.001    553.891     13.110    437.504    538.798    437.504    452.614    437.504
110.670    580.000    547.220     32.780    437.377    531.452    437.377    453.158    437.377
110.770    531.000    541.698    -10.698    437.252    525.200    437.252    453.762    437.252
110.870    595.000    537.305     57.695    437.131    520.015    437.131    454.431    437.131
110.970    515.937    533.995    -18.057    437.014    515.846    437.014    455.170    437.014
111.070    535.000    531.698      3.302    436.900    512.618    436.900    455.986    436.900
111.170    568.475    530.336     38.139    436.790    510.247    436.790    456.884    436.790
111.270    571.855    529.821     42.034    436.684    508.636    436.684    457.872    436.684
111.370    495.865    530.065    -34.200    436.581    507.692    436.581    458.955    436.581
111.470    531.230    530.981      0.249    436.482    507.322    436.482    460.141    436.482
111.570    566.000    532.489     33.511    436.386    507.438    436.386    461.438    436.386
111.670    508.626    534.520    -25.893    436.295    507.963    436.295    462.852    436.295
111.770    497.417    537.010    -39.593    436.207    508.826    436.207    464.390    436.207
111.870    533.221    539.909     -6.688    436.124    509.971    436.124    466.061    436.124
111.970    545.000    543.177      1.823    436.044    511.349    436.044    467.871    436.044
112.070    578.131    546.786     31.345    435.969    512.926    435.969    469.827    435.969
112.170    571.980    550.719     21.261    435.897    514.679    435.897    471.935    435.897
112.270    559.195    554.971      4.224    435.830    516.598    435.830    474.201    435.830
112.370    525.000    559.549    -34.549    435.767    518.683    435.767    476.631    435.767
112.470    551.000    564.471    -13.471    435.708    520.949    435.708    479.228    435.708
112.570    549.000    569.765    -20.765    435.654    523.421    435.654    481.996    435.654
112.670    551.000    575.469    -24.469    435.604    526.135    435.604    484.936    435.604
112.770    597.000    581.632     15.368    435.558    529.140    435.558    488.049    435.558
112.870    572.000    588.317    -16.317    435.517    532.500    435.517    491.332    435.517
112.970    577.440    595.602    -18.162    435.480    536.297    435.480    494.783    435.480
113.070    574.000    603.585    -29.585    435.448    540.636    435.448    498.394    435.448
113.170    593.744    612.391    -18.648    435.420    545.653    435.420    502.157    435.420
113.270    575.000    622.184    -47.184    435.397    551.523    435.397    506.057    435.397
113.370    606.000    633.171    -27.171    435.379    558.469    435.379    510.077    435.379
113.470    609.000    645.618    -36.618    435.366    566.782    435.366    514.197    435.366
113.570    597.000    659.867    -62.867    435.357    576.830    435.357    518.387    435.357
113.670    681.917    676.347      5.570    435.353    589.075    435.353    522.616    435.353
113.770    659.000    695.581    -36.581    435.355    604.081    435.355    526.843    435.355
113.870    725.000    718.255      6.745    435.361    622.579    435.361    531.021    435.361
113.970    689.000    745.236    -56.236    435.372    645.490    435.372    535.097    435.372
114.070    731.000    777.492    -46.492    435.388    673.843    435.388    539.010    435.388
114.170    811.000    816.205     -5.205    435.410    708.884    435.410    542.694    435.410
114.270    851.000    862.758    -11.758    435.437    752.067    435.437    546.081    435.437
114.370    858.000    918.740    -60.740    435.468    805.052    435.468    549.097    435.468
114.470    981.000    985.938     -4.938    435.506    869.695    435.506    551.675    435.506
114.570   1018.000   1066.313    -48.313    435.548    948.021    435.548    553.749    435.548
114.670   1209.926   1161.969     47.957    435.597   1042.190    435.597    555.264    435.597
114.770   1313.000   1275.092     37.908    435.650   1154.428    435.650    556.180    435.650
114.870   1433.000   1407.873     25.127    435.709   1286.952    435.709    556.471    435.709
114.970   1641.515   1562.411     79.104    435.774   1441.870    435.774    556.129    435.774
115.070   1785.000   1740.592     44.408    435.844   1621.054    435.844    555.167    435.844
115.170   2022.000   1943.954     78.046    435.921   1826.014    435.921    553.615    435.921
115.270   2306.000   2173.540    132.460    436.002   2057.750    436.002    551.518    436.002
115.370   2514.866   2429.750     85.116    436.090   2316.603    436.090    548.934    436.090
115.470   2783.000   2712.192     70.808    436.184   2602.116    436.184    545.928    436.184
115.570   3011.000   3019.552     -8.552    436.283   2912.909    436.283    542.573    436.283
115.670   3278.322   3349.492    -71.170    436.389   3246.571    436.389    538.938    436.389
115.770   3798.794   3698.567    100.227    436.501   3599.591    436.501    535.093    436.501
115.870   4119.000   4062.193     56.807    436.618   3967.322    436.618    531.102    436.618
115.970   4436.000   4434.646      1.354    436.742   4343.982    436.742    527.025    436.742
116.070   4945.016   4809.111    135.905    436.873   4722.706    436.873    522.914    436.873
116.170   5065.560   5177.775   -112.215    437.009   5095.636    437.009    518.813    437.009
116.270   5585.000   5531.972     53.028    437.152   5454.070    437.152    514.761    437.152
116.370   5837.000   5862.399    -25.399    437.302   5788.672    437.302    510.789    437.302
116.470   6218.000   6159.418     58.582    437.458   6089.780    437.458    506.924    437.458
116.570   6548.073   6413.475    134.598    437.620   6347.817    437.620    503.186    437.620
116.670   6669.000   6615.646     53.354    437.789   6553.842    437.789    499.592    437.789
116.770   6815.000   6758.289     56.711    437.965   6700.195    437.965    496.154    437.965
116.870   6888.000   6835.726     52.274    438.147   6781.189    438.147    492.880    438.147
116.970   6963.784   6844.837    118.947    438.337   6793.693    438.337    489.777    438.337
117.070   6910.000   6785.413    124.587    438.533   6737.490    438.533    486.848    438.533
117.170   6818.544   6660.172    158.372    438.736   6615.292    438.736    484.095    438.736
117.270   6483.000   6474.439      8.561    438.946   6432.421    438.946    481.516    438.946
117.370   6206.000   6235.570    -29.570    439.163   6196.234    439.163    479.110    439.163
117.470   5934.887   5952.267    -17.380    439.388   5915.435    439.388    476.873    439.388
117.570   5590.000   5633.922    -43.922    439.619   5599.419    439.619    474.801    439.619
117.670   5284.000   5290.052     -6.052    439.858   5257.710    439.858    472.889    439.858
117.770   4965.648   4929.870     35.777    440.104   4899.529    440.104    471.131    440.104
117.870   4524.000   4561.977    -37.977    440.358   4533.483    440.358    469.521    440.358
117.970   4168.613   4194.136    -25.523    440.619   4167.346    440.619    468.051    440.619
118.070   3939.000   3833.130    105.870    440.887   3807.907    440.887    466.716    440.887
118.170   3498.273   3484.670     13.602    441.163   3460.889    441.163    465.507    441.163
118.270   3226.501   3153.357     73.144    441.447   3130.901    441.447    464.418    441.447
118.370   2970.000   2842.691    127.309    441.738   2821.453    441.738    463.441    441.738
118.470   2667.000   2555.120    111.880    442.038   2535.000    442.038    462.569    442.038
118.570   2190.000   2292.123   -102.123    442.345   2273.033    442.345    461.796    442.345
118.670   2096.000   2054.320     41.680    442.660   2036.176    442.660    461.115    442.660
118.770   1816.000   1841.586    -25.586    442.983   1824.315    442.983    460.520    442.983
118.870   1644.000   1653.187     -9.187    443.314   1636.721    443.314    460.004    443.314
118.970   1459.045   1487.904    -28.859    443.653   1472.181    443.653    459.562    443.653
119.070   1269.000   1344.160    -75.160    444.001   1329.123    444.001    459.189    444.001
119.170   1277.391   1220.139     57.252    444.357   1205.739    444.357    458.879    444.357
119.270   1076.000   1113.897    -37.897    444.721   1100.086    444.721    458.629    444.721
119.370   1054.000   1023.452     30.548    445.093   1010.188    445.093    458.434    445.093
119.470    965.000    946.863     18.137    445.474    934.108    445.474    458.290    445.474
119.570    868.000    882.289    -14.289    445.864    870.007    445.864    458.193    445.864
119.670    881.000    828.031     52.969    446.262    816.188    446.262    458.141    446.262
119.770    839.000    782.553     56.447    446.669    771.121    446.669    458.130    446.669
119.870    812.000    744.501     67.499    447.084    733.450    447.084    458.158    447.084
119.970    669.540    712.695    -43.155    447.509    702.000    447.509    458.222    447.509
120.070    676.000    686.127    -10.127    447.942    675.765    447.942    458.320    447.942
120.170    625.000    663.948    -38.948    448.385    653.894    448.385    458.451    448.385
120.270    684.000    645.445     38.555    448.836    635.681    448.836    458.613    448.836
120.370    646.000    630.035     15.965    449.297    620.540    449.297    458.803    449.297
120.470    645.000    617.237     27.763    449.766    607.993    449.766    459.022    449.766
120.570    613.236    606.662      6.574    450.245    597.651    450.245    459.268    450.245
120.670    604.000    597.991      6.009    450.734    589.198    450.734    459.539    450.734
120.770    636.223    590.972     45.251    451.232    582.380    451.232    459.834    451.232
120.870    608.000    585.396     22.604    451.739    576.993    451.739    460.154    451.739
120.970    580.000    581.094     -1.094    452.256    572.866    452.256    460.496    452.256
121.070    613.094    577.900     35.194    452.783    569.835    452.783    460.861    452.783
121.170    566.000    575.770     -9.770    453.319    567.855    453.319    461.248    453.319
121.270    557.000    574.579    -17.579    453.865    566.804    453.865    461.656    453.865
121.370    595.000    574.243     20.757    454.421    566.596    454.421    462.084    454.421
121.470    614.097    574.688     39.409    454.987    567.160    454.987    462.532    454.987
121.570    542.000    575.846    -33.846    455.563    568.429    455.563    463.000    455.563
121.670    582.000    577.652      4.348    456.149    570.336    456.149    463.486    456.149
121.770    611.000    580.039     30.961    456.745    572.816    456.745    463.992    456.745
121.870    587.906    582.937      4.969    457.352    575.799    457.352    464.515    457.352
121.970    550.000    586.272    -36.272    457.969    579.212    457.969    465.056    457.969
122.070    580.000    589.965     -9.965    458.596    582.977    458.596    465.614    458.596
122.170    558.000    593.930    -35.930    459.234    587.009    459.234    466.188    459.234
122.270    616.094    598.075     18.018    459.882    591.215    459.882    466.778    459.882
122.370    606.000    602.302      3.698    460.541    595.499    460.541    467.383    460.541
122.470    589.735    606.507    -16.771    461.211    599.756    461.211    468.003    461.211
122.570    609.000    610.579     -1.579    461.892    603.879    461.892    468.636    461.892
122.670    567.439    614.409    -46.971    462.584    607.758    462.584    469.282    462.584
122.770    594.099    617.886    -23.788    463.286    611.282    463.286    469.940    463.286
122.870    603.000    620.905    -17.905    464.000    614.348    464.000    470.608    464.000
122.970    619.000    623.370     -4.370    464.724    616.861    464.724    471.287    464.724
123.070    652.189    625.201     26.988    465.460    618.742    465.460    471.975    465.460
123.170    645.524    626.341     19.183    466.208    619.933    466.208    472.672    466.208
123.270    624.000    626.753     -2.753    466.966    620.402    466.966    473.375    466.966
123.370    595.149    626.432    -31.283    467.737    620.140    467.737    474.086    467.737
123.470    687.000    625.392     61.608    468.518    619.165    468.518    474.803    468.518
123.570    658.446    623.673     34.772    469.312    617.517    469.312    475.525    469.312
123.670    653.000    621.332     31.668    470.117    615.252    470.117    476.253    470.117
123.770    620.000    618.436      1.564    470.934    612.438    470.934    476.986    470.934
123.870    641.259    615.062     26.197    471.762    609.152    471.762    477.725    471.762
123.970    595.468    611.290    -15.822    472.603    605.473    472.603    478.469    472.603
124.070    599.000    607.199     -8.199    473.456    601.482    473.456    479.220    473.456
124.170    597.000    602.870     -5.870    474.321    597.257    474.321    479.978    474.321
124.270    607.000    598.376      8.624    475.198    592.872    475.198    480.743    475.198
124.370    590.327    593.788     -3.462    476.088    588.398    476.088    481.516    476.088
124.470    572.382    589.170    -16.788    476.990    583.895    476.990    482.299    476.990
124.570    628.423    584.577     43.846    477.904    579.421    477.904    483.092    477.904
124.670    609.000    580.059     28.941    478.831    575.023    478.831    483.895    478.831
124.770    601.589    575.655     25.933    479.771    570.741    479.771    484.711    479.771
124.870    580.000    571.399      8.601    480.723    566.607    480.723    485.538    480.723
124.970    569.000    567.317      1.683    481.689    562.646    481.689    486.379    481.689
