neutron_powder_diffraction_0172
R_wp: 4.113
Temperature (K): 1074.000
Counts: 83722.00
Wavelength (Ã…): 2.52098
COMMENTS
Test file for demonstrating the .xyy file format in Reel1.0
END OF HEADER
   tth       Y_obs     Y_calc      Y_res    Background    Phase_1_Nuc    Phase_1_Mag    Phase_2_Nuc    Phase_2_Mag
  9.970    560.303    583.238    -22.935    582.548    583.220    582.548    582.566    582.548
 10.070    596.000    583.128     12.872    582.377    583.111    582.377    582.395    582.377
 10.170    573.000    583.021    -10.021    582.203    583.003    582.203    582.220    582.203
 10.270    599.784    582.922     16.861    582.026    582.903    582.026    582.044    582.026
 10.370    610.000    582.834     27.166    581.845    582.813    581.845    581.866    581.845
 10.470    556.000    582.757    -26.757    581.662    582.735    581.662    581.683    581.662
 10.570    540.063    582.695    -42.632    581.476    582.673    581.476    581.497    581.476
 10.670    598.000    582.655     15.345    581.287    582.633    581.287    581.309    581.287
 10.770    534.993    582.643    -47.650    581.095    582.620    581.095    581.117    581.095
 10.870    596.446    582.667     13.779    580.901    582.645    580.901    580.923    580.901
 10.970    593.000    582.742     10.258    580.704    582.719    580.704    580.725    580.704
 11.070    588.553    582.883      5.670    580.504    582.860    580.504    580.525    580.504
 11.170    594.850    583.120     11.730    580.301    583.096    580.301    580.323    580.301
 11.270    605.000    583.491     21.509    580.096    583.467    580.096    580.118    580.096
 11.370    558.311    584.068    -25.757    579.888    584.044    579.888    579.910    579.888
 11.470    606.414    585.008     21.406    579.677    584.983    579.677    579.699    579.677
 11.570    561.808    586.743    -24.935    579.464    586.717    579.464    579.486    579.464
 11.670    640.000    590.471     49.529    579.248    590.441    579.248    579.272    579.248
 11.770    632.000    598.890     33.110    579.030    598.855    579.030    579.054    579.030
 11.870    654.000    616.221     37.779    578.810    616.176    578.810    578.834    578.810
 11.970    696.000    645.584     50.416    578.587    645.522    578.587    578.611    578.587
 12.070    682.000    683.051     -1.051    578.361    682.968    578.361    578.386    578.361
 12.170    701.985    712.313    -10.328    578.134    712.214    578.134    578.159    578.134
 12.270    711.742    713.043     -1.301    577.904    712.943    577.904    577.929    577.904
 12.370    678.405    684.383     -5.978    577.671    684.299    577.671    577.697    577.671
 12.470    697.777    646.304     51.473    577.437    646.240    577.437    577.462    577.437
 12.570    599.000    615.830    -16.830    577.200    615.784    577.200    577.226    577.200
 12.670    601.000    597.456      3.544    576.961    597.418    576.961    576.988    576.961
 12.770    583.000    588.249     -5.249    576.720    588.207    576.720    576.755    576.720
 12.870    581.000    583.915     -2.915    576.477    583.875    576.477    576.513    576.477
 12.970    533.000    581.665    -48.665    576.231    581.626    576.231    576.268    576.231
 13.070    571.000    580.245     -9.245    575.984    580.206    575.984    576.021    575.984
 13.170    547.000    579.200    -32.200    575.734    579.160    575.734    575.772    575.734
 13.270    538.000    578.366    -40.366    575.483    578.326    575.483    575.521    575.483
 13.370    578.000    577.670      0.330    575.230    577.630    575.230    575.268    575.230
 13.470    592.613    577.071     15.542    574.974    577.031    574.974    575.013    574.974
 13.570    582.000    576.541      5.459    574.717    576.501    574.717    574.756    574.717
 13.670    620.504    576.067     44.437    574.458    576.023    574.458    574.501    574.458
 13.770    526.745    575.628    -48.883    574.197    575.583    574.197    574.241    574.197
 13.870    563.000    575.218    -12.218    573.934    575.173    573.934    573.978    573.934
 13.970    527.755    574.831    -47.076    573.669    574.786    573.669    573.714    573.669
 14.070    547.000    574.463    -27.463    573.402    574.417    573.402    573.447    573.402
 14.170    580.518    574.106      6.411    573.134    574.061    573.134    573.180    573.134
 14.270    567.000    573.761     -6.761    572.864    573.715    572.864    572.910    572.864
 14.370    569.548    573.428     -3.880    572.593    573.381    572.593    572.639    572.593
 14.470    567.000    573.100     -6.100    572.319    573.053    572.319    572.366    572.319
 14.570    553.062    572.776    -19.713    572.045    572.729    572.045    572.091    572.045
 14.670    620.301    572.456     47.845    571.768    572.409    571.768    571.815    571.768
 14.770    599.000    572.140     26.860    571.490    572.093    571.490    571.537    571.490
 14.870    601.000    571.827     29.173    571.210    571.780    571.210    571.258    571.210
 14.970    537.000    571.517    -34.517    570.929    571.469    570.929    570.977    570.929
 15.070    578.142    571.208      6.934    570.647    571.160    570.647    570.694    570.647
 15.170    611.551    570.900     40.651    570.363    570.852    570.363    570.411    570.363
 15.270    602.000    570.594     31.406    570.077    570.545    570.077    570.126    570.077
 15.370    594.000    570.288     23.712    569.790    570.239    569.790    569.839    569.790
 15.470    540.883    569.983    -29.100    569.502    569.934    569.502    569.551    569.502
 15.570    579.000    569.678      9.322    569.213    569.629    569.213    569.262    569.213
 15.670    548.000    569.374    -21.374    568.922    569.324    568.922    568.971    568.922
 15.770    556.000    569.069    -13.069    568.629    569.019    568.629    568.679    568.629
 15.870    527.496    568.765    -41.269    568.336    568.715    568.336    568.386    568.336
 15.970    580.000    568.460     11.540    568.041    568.410    568.041    568.092    568.041
 16.070    539.000    568.156    -29.156    567.745    568.104    567.745    567.797    567.745
 16.170    556.000    567.853    -11.853    567.448    567.799    567.448    567.502    567.448
 16.270    570.000    567.548      2.452    567.150    567.493    567.150    567.204    567.150
 16.370    513.000    567.243    -54.243    566.850    567.187    566.850    566.906    566.850
 16.470    541.000    566.936    -25.936    566.550    566.881    566.550    566.606    566.550
 16.570    559.000    566.630     -7.630    566.248    566.574    566.248    566.304    566.248
 16.670    579.948    566.323     13.625    565.946    566.266    565.946    566.003    565.946
 16.770    591.413    566.016     25.397    565.642    565.959    565.642    565.699    565.642
 16.870    553.000    565.708    -12.708    565.337    565.650    565.337    565.395    565.337
 16.970    546.251    565.402    -19.151    565.031    565.344    565.031    565.089    565.031
 17.070    576.000    565.093     10.907    564.725    565.035    564.725    564.783    564.725
 17.170    572.000    564.784      7.216    564.417    564.725    564.417    564.476    564.417
 17.270    578.000    564.473     13.527    564.108    564.414    564.108    564.168    564.108
 17.370    554.000    564.163    -10.163    563.799    564.103    563.799    563.859    563.799
 17.470    578.000    563.852     14.148    563.489    563.792    563.489    563.549    563.489
 17.570    547.000    563.540    -16.540    563.178    563.480    563.178    563.238    563.178
 17.670    548.000    563.228    -15.228    562.866    563.167    562.866    562.927    562.866
 17.770    554.000    562.915     -8.915    562.553    562.854    562.553    562.614    562.553
 17.870    554.000    562.603     -8.603    562.239    562.541    562.239    562.301    562.239
 17.970    507.000    562.290    -55.290    561.925    562.228    561.925    561.987    561.925
 18.070    606.000    561.977     44.023    561.610    561.915    561.610    561.673    561.610
 18.170    531.497    561.663    -30.166    561.294    561.600    561.294    561.358    561.294
 18.270    553.000    561.349     -8.349    560.978    561.285    560.978    561.042    560.978
 18.370    538.000    561.035    -23.035    560.661    560.969    560.661    560.726    560.661
 18.470    548.000    560.720    -12.720    560.343    560.654    560.343    560.409    560.343
 18.570    575.000    560.405     14.595    560.025    560.338    560.025    560.092    560.025
 18.670    560.000    560.089     -0.089    559.706    560.022    559.706    559.773    559.706
 18.770    516.000    559.773    -43.773    559.387    559.705    559.387    559.454    559.387
 18.870    555.000    559.456     -4.456    559.067    559.388    559.067    559.135    559.067
 18.970    594.583    559.139     35.443    558.746    559.071    558.746    558.815    558.746
 19.070    507.000    558.823    -51.823    558.426    558.753    558.426    558.495    558.426
 19.170    539.000    558.505    -19.505    558.104    558.436    558.104    558.174    558.104
 19.270    547.000    558.189    -11.189    557.782    558.119    557.782    557.853    557.782
 19.370    548.000    557.886     -9.886    557.460    557.815    557.460    557.531    557.460
 19.470    559.000    557.579      1.421    557.137    557.507    557.137    557.209    557.137
 19.570    557.678    557.262      0.416    556.814    557.190    556.814    556.886    556.814
 19.670    551.000    556.945     -5.945    556.490    556.872    556.490    556.563    556.490
 19.770    527.409    556.628    -29.219    556.167    556.554    556.167    556.240    556.167
 19.870    567.000    556.311     10.689    555.842    556.237    555.842    555.916    555.842
 19.970    561.000    555.994      5.006    555.518    555.919    555.518    555.593    555.518
 20.070    533.365    555.677    -22.312    555.193    555.601    555.193    555.269    555.193
 20.170    515.000    555.364    -40.364    554.868    555.284    554.868    554.948    554.868
 20.270    544.000    555.049    -11.049    554.543    554.967    554.543    554.625    554.543
 20.370    596.000    554.733     41.267    554.217    554.650    554.217    554.300    554.217
 20.470    538.143    554.417    -16.274    553.892    554.333    553.892    553.975    553.892
 20.570    529.000    554.102    -25.102    553.566    554.017    553.566    553.650    553.566
 20.670    459.000    553.787    -94.787    553.240    553.701    553.240    553.325    553.240
 20.770    553.645    553.473      0.173    552.913    553.386    552.913    553.000    552.913
 20.870    544.000    553.159     -9.159    552.587    553.072    552.587    552.674    552.587
 20.970    559.000    552.846      6.154    552.260    552.758    552.260    552.349    552.260
 21.070    543.000    552.534     -9.534    551.934    552.445    551.934    552.023    551.934
 21.170    588.000    552.222     35.778    551.607    552.132    551.607    551.697    551.607
 21.270    523.000    551.912    -28.912    551.281    551.821    551.281    551.372    551.281
 21.370    562.000    551.603     10.397    550.954    551.511    550.954    551.046    550.954
 21.470    574.442    551.303     23.139    550.627    551.210    550.627    550.720    550.627
 21.570    508.000    551.079    -43.079    550.300    550.985    550.300    550.394    550.300
 21.670    520.394    550.797    -30.403    549.974    550.702    549.974    550.069    549.974
 21.770    570.000    550.500     19.500    549.647    550.403    549.647    549.743    549.647
 21.870    545.651    550.199     -4.548    549.320    550.102    549.320    549.418    549.320
 21.970    540.000    549.901     -9.901    548.994    549.803    548.994    549.092    548.994
 22.070    512.419    549.608    -37.189    548.667    549.508    548.667    548.767    548.667
 22.170    547.589    549.317     -1.728    548.341    549.216    548.341    548.442    548.341
 22.270    549.000    549.048     -0.048    548.015    548.946    548.015    548.117    548.015
 22.370    544.000    548.789     -4.789    547.689    548.686    547.689    547.793    547.689
 22.470    540.997    548.515     -7.518    547.363    548.410    547.363    547.468    547.363
 22.570    549.000    548.284      0.716    547.037    548.178    547.037    547.144    547.037
 22.670    535.000    548.033    -13.033    546.712    547.925    546.712    546.820    546.712
 22.770    552.000    547.772      4.228    546.386    547.663    546.386    546.496    546.386
 22.870    505.638    547.518    -41.880    546.061    547.407    546.061    546.173    546.061
 22.970    568.397    547.274     21.123    545.737    547.162    545.737    545.849    545.737
 23.070    522.000    547.043    -25.043    545.412    546.929    545.412    545.527    545.412
 23.170    543.000    546.827     -3.827    545.088    546.711    545.088    545.204    545.088
 23.270    541.282    546.631     -5.348    544.764    546.513    544.764    544.882    544.764
 23.370    566.000    546.459     19.541    544.440    546.339    544.440    544.560    544.440
 23.470    581.000    546.318     34.682    544.117    546.197    544.117    544.239    544.117
 23.570    501.085    546.218    -45.133    543.794    546.094    543.794    543.918    543.794
 23.670    549.886    546.172      3.714    543.471    546.046    543.471    543.598    543.471
 23.770    549.000    546.201      2.799    543.149    546.073    543.149    543.278    543.149
 23.870    499.881    546.339    -46.458    542.827    546.207    542.827    542.960    542.827
 23.970    504.174    546.643    -42.469    542.506    546.509    542.506    542.642    542.506
 24.070    595.410    547.260     48.150    542.184    547.123    542.184    542.324    542.184
 24.170    572.652    548.590     24.063    541.864    548.452    541.864    542.006    541.864
 24.270    523.993    551.644    -27.651    541.544    551.505    541.544    541.689    541.544
 24.370    575.000    558.413     16.587    541.224    558.276    541.224    541.372    541.224
 24.470    580.063    571.476      8.587    540.905    571.345    540.905    541.056    540.905
 24.570    619.000    591.889     27.111    540.586    591.770    540.586    540.741    540.586
 24.670    660.189    615.570     44.619    540.268    615.465    540.268    540.426    540.268
 24.770    609.000    631.085    -22.085    539.950    630.988    539.950    540.113    539.950
 24.870    628.000    627.265      0.735    539.633    627.161    539.633    539.800    539.633
 24.970    591.311    607.129    -15.818    539.317    607.007    539.317    539.487    539.317
 25.070    629.000    583.255     45.745    539.001    583.111    539.001    539.176    539.001
 25.170    578.000    564.649     13.351    538.685    564.487    538.685    538.865    538.685
 25.270    535.000    553.335    -18.335    538.370    553.160    538.370    538.556    538.370
 25.370    549.469    547.465      2.004    538.056    547.280    538.056    538.247    538.056
 25.470    567.000    544.565     22.435    537.742    544.372    537.742    537.939    537.742
 25.570    538.829    542.990     -4.160    537.430    542.789    537.430    537.632    537.430
 25.670    599.000    541.974     57.026    537.117    541.766    537.117    537.327    537.117
 25.770    563.000    541.222     21.778    536.806    541.007    536.806    537.022    536.806
 25.870    523.234    540.629    -17.395    536.495    540.406    536.495    536.719    536.495
 25.970    518.000    540.152    -22.152    536.184    539.920    536.184    536.417    536.184
 26.070    538.000    539.744     -1.744    535.875    539.503    535.875    536.116    535.875
 26.170    559.046    539.397     19.649    535.566    539.146    535.566    535.817    535.566
 26.270    566.377    539.108     27.269    535.258    538.847    535.258    535.520    535.258
 26.370    571.000    538.896     32.104    534.950    538.623    534.950    535.224    534.950
 26.470    553.771    538.734     15.037    534.644    538.448    534.644    534.930    534.644
 26.570    556.000    538.604     17.396    534.338    538.305    534.338    534.637    534.338
 26.670    552.394    538.522     13.872    534.033    538.208    534.033    534.347    534.033
 26.770    575.216    538.503     36.713    533.728    538.171    533.728    534.059    533.728
 26.870    546.000    538.558      7.442    533.425    538.208    533.425    533.774    533.425
 26.970    517.781    538.705    -20.925    533.122    538.335    533.122    533.492    533.122
 27.070    553.000    538.980     14.020    532.820    538.587    532.820    533.212    532.820
 27.170    574.000    539.417     34.583    532.519    538.999    532.519    532.936    532.519
 27.270    518.000    540.035    -22.035    532.219    539.589    532.219    532.664    532.219
 27.370    507.858    540.936    -33.078    531.919    540.458    531.919    532.397    531.919
 27.470    532.028    542.269    -10.242    531.621    541.754    531.621    532.134    531.621
 27.570    562.718    544.418     18.299    531.323    543.862    531.323    531.878    531.323
 27.670    539.000    548.756     -9.756    531.027    548.152    531.027    531.628    531.027
 27.770    593.000    559.996     33.004    530.731    559.333    530.731    531.386    530.731
 27.870    631.000    590.177     40.823    530.436    589.441    530.436    531.154    530.436
 27.970    669.497    658.154     11.344    530.142    657.323    530.142    530.934    530.142
 28.070    803.000    772.402     30.598    529.849    771.452    529.849    530.728    529.849
 28.170    851.674    900.422    -48.748    529.557    899.341    529.557    530.540    529.557
 28.270   1025.928    963.508     62.420    529.265    962.304    529.265    530.375    529.265
 28.370    904.000    909.856     -5.856    528.975    908.536    528.975    530.237    528.975
 28.470    757.000    794.465    -37.465    528.686    792.991    528.686    530.138    528.686
 28.570    744.262    705.345     38.917    528.398    703.644    528.398    530.089    528.398
 28.670    660.000    687.661    -27.661    528.110    685.642    528.110    530.116    528.110
 28.770    709.000    735.958    -26.958    527.824    733.503    527.824    530.262    527.824
 28.870    793.000    808.181    -15.181    527.539    805.101    527.539    530.608    527.539
 28.970    796.000    842.200    -46.200    527.255    838.160    527.255    531.300    527.255
 29.070    819.587    801.499     18.088    526.972    795.924    526.972    532.561    526.972
 29.170    751.000    718.306     32.694    526.689    710.329    526.689    534.680    526.689
 29.270    688.058    642.356     45.701    526.408    630.842    526.408    537.931    526.408
 29.370    623.336    596.044     27.292    526.128    579.776    526.128    542.400    526.128
 29.470    582.000    576.262      5.738    525.849    554.417    525.849    547.694    525.849
 29.570    573.000    570.535      2.465    525.571    543.598    525.571    552.506    525.571
 29.670    572.000    568.201      3.799    525.295    538.874    525.295    554.618    525.295
 29.770    606.000    563.949     42.051    525.019    536.355    525.019    552.610    525.019
 29.870    609.000    557.548     51.452    524.744    534.720    524.744    547.570    524.744
 29.970    604.000    550.813     53.187    524.471    533.572    524.471    541.709    524.471
 30.070    579.000    545.094     33.906    524.198    532.786    524.198    536.505    524.198
 30.170    561.000    540.896     20.104    523.927    532.336    523.927    532.485    523.927
 30.270    534.000    538.306     -4.306    523.657    532.333    523.657    529.627    523.657
 30.370    551.000    537.511     13.489    523.388    533.215    523.388    527.680    523.388
 30.470    576.050    539.398     36.653    523.120    536.161    523.120    526.351    523.120
 30.570    585.380    545.943     39.437    522.854    543.383    522.854    525.402    522.854
 30.670    559.000    559.438     -0.438    522.588    557.329    522.588    524.675    522.588
 30.770    573.990    579.757     -5.768    522.324    577.964    522.324    524.080    522.324
 30.870    631.000    600.861     30.139    522.061    599.304    522.061    523.566    522.061
 30.970    627.000    610.531     16.469    521.799    609.166    521.799    523.108    521.799
 31.070    602.670    600.699      1.971    521.538    599.502    521.538    522.689    521.538
 31.170    589.000    578.856     10.144    521.278    577.804    521.278    522.301    521.278
 31.270    555.683    557.228     -1.545    521.020    556.296    521.020    521.936    521.020
 31.370    524.000    542.123    -18.123    520.763    541.288    520.763    521.590    520.763
 31.470    556.000    533.796     22.204    520.507    533.040    520.507    521.260    520.507
 31.570    530.000    529.845      0.155    520.252    529.154    520.252    520.941    520.252
 31.670    516.000    528.006    -12.006    519.999    527.370    519.999    520.633    519.999
 31.770    524.000    527.027     -3.027    519.747    526.438    519.747    520.334    519.747
 31.870    494.831    526.408    -31.577    519.496    525.861    519.496    520.042    519.496
 31.970    491.000    525.982    -34.982    519.246    525.470    519.246    519.757    519.246
 32.070    532.000    525.694      6.306    518.998    525.213    518.998    519.477    518.998
 32.170    481.389    525.518    -44.128    518.751    525.065    518.751    519.203    518.751
 32.270    564.788    525.445     39.343    518.505    525.017    518.505    518.932    518.505
 32.370    559.000    525.480     33.520    518.260    525.073    518.260    518.666    518.260
 32.470    593.000    525.629     67.371    518.017    525.242    518.017    518.403    518.017
 32.570    491.201    525.910    -34.710    517.775    525.541    517.775    518.144    517.775
 32.670    568.318    526.349     41.969    517.535    525.994    517.535    517.888    517.535
 32.770    566.000    526.982     39.018    517.295    526.642    517.295    517.635    517.295
 32.870    513.615    527.866    -14.251    517.057    527.539    517.057    517.384    517.057
 32.970    531.000    529.082      1.918    516.820    528.766    516.820    517.136    516.820
 33.070    590.000    530.757     59.243    516.585    530.450    516.585    516.890    516.585
 33.170    565.000    533.120     31.880    516.351    532.822    516.351    516.646    516.351
 33.270    530.000    536.703     -6.703    516.118    536.414    516.118    516.405    516.118
 33.370    557.000    542.968     14.032    515.887    542.686    515.887    516.166    515.887
 33.470    551.091    555.779     -4.688    515.657    555.501    515.657    515.929    515.657
 33.570    601.064    583.562     17.502    515.428    583.286    515.428    515.693    515.428
 33.670    573.000    639.704    -66.704    515.201    639.424    515.201    515.460    515.201
 33.770    749.000    736.380     12.620    514.975    736.090    514.975    515.229    514.975
 33.870    887.000    869.764     17.236    514.750    869.463    514.750    514.999    514.750
 33.970    953.717   1003.500    -49.783    514.527   1003.194    514.527    514.771    514.527
 34.070   1053.000   1069.005    -16.005    514.305   1068.713    514.305    514.545    514.305
 34.170   1013.000   1019.848     -6.848    514.084   1019.587    514.084    514.321    514.084
 34.270    920.000    892.398     27.602    513.865    892.164    513.865    514.098    513.865
 34.370    777.000    755.644     21.356    513.647    755.424    513.647    513.877    513.647
 34.470    689.880    651.704     38.176    513.431    651.487    513.431    513.658    513.431
 34.570    615.000    588.881     26.119    513.216    588.663    513.216    513.440    513.216
 34.670    562.000    556.669      5.331    513.003    556.449    513.003    513.224    513.003
 34.770    549.382    541.402      7.981    512.790    541.183    512.790    513.010    512.790
 34.870    530.000    533.804     -3.804    512.580    533.587    512.580    512.797    512.580
 34.970    565.267    529.376     35.892    512.370    529.160    512.370    512.586    512.370
 35.070    538.000    526.347     11.653    512.162    526.132    512.162    512.376    512.162
 35.170    512.000    524.071    -12.071    511.956    523.858    511.956    512.168    511.956
 35.270    481.769    522.279    -40.510    511.751    522.067    511.751    511.962    511.751
 35.370    499.000    520.829    -21.829    511.547    520.619    511.547    511.757    511.547
 35.470    533.480    519.633     13.848    511.345    519.423    511.345    511.554    511.345
 35.570    505.000    518.627    -13.627    511.144    518.419    511.144    511.352    511.144
 35.670    532.000    517.770     14.230    510.944    517.562    510.944    511.152    510.944
 35.770    502.000    517.029    -15.029    510.746    516.821    510.746    510.953    510.746
 35.870    544.396    516.380     28.016    510.550    516.174    510.550    510.756    510.550
 35.970    526.000    515.808     10.192    510.355    515.602    510.355    510.561    510.355
 36.070    517.000    515.298      1.702    510.161    515.093    510.161    510.367    510.161
 36.170    473.000    514.842    -41.842    509.969    514.637    509.969    510.174    509.969
 36.270    516.000    514.432      1.568    509.778    514.227    509.778    509.983    509.778
 36.370    514.000    514.063     -0.063    509.589    513.858    509.589    509.794    509.589
 36.470    503.000    513.733    -10.733    509.401    513.528    509.401    509.606    509.401
 36.570    435.000    513.439    -78.439    509.214    513.234    509.214    509.420    509.214
 36.670    457.000    513.185    -56.185    509.029    512.979    509.029    509.235    509.029
 36.770    523.000    512.976     10.024    508.846    512.771    508.846    509.052    508.846
 36.870    544.512    512.836     31.676    508.664    512.630    508.664    508.870    508.664
 36.970    493.020    512.821    -19.800    508.483    512.614    508.483    508.690    508.483
 37.070    484.389    513.057    -28.668    508.304    512.851    508.304    508.511    508.304
 37.170    540.000    513.776     26.224    508.126    513.569    508.126    508.334    508.126
 37.270    525.000    515.285      9.715    507.950    515.077    507.950    508.159    507.950
 37.370    537.725    517.812     19.913    507.775    517.604    507.775    507.985    507.775
 37.470    536.105    521.234     14.871    507.602    521.026    507.602    507.812    507.602
 37.570    548.437    524.777     23.660    507.430    524.569    507.430    507.641    507.430
 37.670    531.000    526.999      4.001    507.260    526.791    507.260    507.472    507.260
 37.770    549.665    526.709     22.956    507.091    526.502    507.091    507.304    507.091
 37.870    514.000    524.203    -10.203    506.924    523.998    506.924    507.138    506.924
 37.970    513.000    520.774     -7.774    506.758    520.569    506.758    506.973    506.758
 38.070    510.000    517.442     -7.442    506.593    517.237    506.593    506.810    506.593
 38.170    485.000    514.650    -29.650    506.431    514.442    506.431    506.648    506.431
 38.270    512.000    512.539     -0.539    506.269    512.327    506.269    506.488    506.269
 38.370    546.000    511.073     34.927    506.109    510.858    506.109    506.329    506.109
 38.470    483.981    510.106    -26.125    505.951    509.887    505.951    506.172    505.951
 38.570    507.000    509.476     -2.476    505.794    509.255    505.794    506.017    505.794
 38.670    550.437    509.052     41.385    505.638    508.828    505.638    505.863    505.638
 38.770    541.468    508.742     32.727    505.484    508.516    505.484    505.710    505.484
 38.870    555.000    508.493     46.507    505.331    508.265    505.331    505.559    505.331
 38.970    511.000    508.278      2.722    505.180    508.049    505.180    505.410    505.180
 39.070    466.000    508.085    -42.085    505.031    507.854    505.031    505.262    505.031
 39.170    497.000    507.907    -10.907    504.883    507.674    504.883    505.116    504.883
 39.270    485.775    507.742    -21.967    504.736    507.507    504.736    504.971    504.736
 39.370    514.197    507.588      6.609    504.591    507.351    504.591    504.828    504.591
 39.470    521.000    507.444     13.556    504.447    507.205    504.447    504.686    504.447
 39.570    553.012    507.308     45.704    504.305    507.067    504.305    504.546    504.305
 39.670    493.000    507.181    -14.181    504.164    506.937    504.164    504.408    504.164
 39.770    461.668    507.061    -45.393    504.025    506.815    504.025    504.271    504.025
 39.870    505.000    506.949     -1.949    503.887    506.701    503.887    504.136    503.887
 39.970    519.805    506.846     12.959    503.751    506.595    503.751    504.002    503.751
 40.070    525.809    506.750     19.059    503.616    506.497    503.616    503.870    503.616
 40.170    481.000    506.663    -25.663    503.483    506.407    503.483    503.739    503.483
 40.270    467.000    506.586    -39.586    503.351    506.327    503.351    503.610    503.351
 40.370    468.000    506.518    -38.518    503.221    506.256    503.221    503.482    503.221
 40.470    525.538    506.461     19.077    503.092    506.197    503.092    503.357    503.092
 40.570    467.640    506.417    -38.777    502.964    506.149    502.964    503.232    502.964
 40.670    490.000    506.386    -16.386    502.838    506.116    502.838    503.109    502.838
 40.770    518.000    506.372     11.628    502.714    506.098    502.714    502.988    502.714
 40.870    442.000    506.377    -64.377    502.591    506.100    502.591    502.868    502.591
 40.970    495.000    506.404    -11.404    502.469    506.124    502.469    502.750    502.469
 41.070    473.357    506.458    -33.101    502.349    506.174    502.349    502.634    502.349
 41.170    471.000    506.546    -35.546    502.231    506.259    502.231    502.519    502.231
 41.270    514.000    506.675      7.325    502.114    506.384    502.114    502.406    502.114
 41.370    510.575    506.857      3.717    501.998    506.563    501.998    502.294    501.998
 41.470    503.000    507.109     -4.109    501.884    506.810    501.884    502.184    501.884
 41.570    481.247    507.454    -26.208    501.771    507.152    501.771    502.075    501.771
 41.670    541.631    507.941     33.690    501.660    507.635    501.660    501.968    501.660
 41.770    469.248    508.673    -39.426    501.550    508.363    501.550    501.863    501.550
 41.870    511.527    509.901      1.627    501.442    509.586    501.442    501.759    501.442
 41.970    533.000    512.194     20.806    501.335    511.875    501.335    501.657    501.335
 42.070    478.000    516.673    -38.673    501.230    516.352    501.230    501.557    501.230
 42.170    533.000    525.102      7.898    501.126    524.779    501.126    501.458    501.126
 42.270    515.000    539.461    -24.461    501.023    539.140    501.023    501.361    501.023
 42.370    608.000    560.727     47.273    500.922    560.411    500.922    501.265    500.922
 42.470    623.233    587.092     36.142    500.823    586.783    500.823    501.172    500.823
 42.570    622.000    612.430      9.570    500.725    612.130    500.725    501.079    500.725
 42.670    586.000    626.889    -40.889    500.628    626.593    500.628    500.989    500.628
 42.770    584.000    622.984    -38.984    500.533    622.684    500.533    500.900    500.533
 42.870    536.000    602.991    -66.991    500.439    602.676    500.439    500.813    500.439
 42.970    573.000    576.260     -3.260    500.347    575.924    500.347    500.727    500.347
 43.070    535.664    551.395    -15.732    500.256    551.038    500.256    500.643    500.256
 43.170    523.000    532.717     -9.717    500.166    532.340    500.166    500.561    500.166
 43.270    476.000    520.747    -44.747    500.078    520.355    500.078    500.481    500.078
 43.370    568.000    513.950     54.050    499.991    513.546    499.991    500.402    499.991
 43.470    553.008    510.355     42.653    499.906    509.940    499.906    500.325    499.906
 43.570    522.000    508.447     13.553    499.822    508.022    499.822    500.250    499.822
 43.670    480.330    507.344    -27.014    499.740    506.909    499.740    500.177    499.740
 43.770    495.000    506.620    -11.620    499.659    506.175    499.659    500.106    499.659
 43.870    538.000    506.096     31.904    499.580    505.641    499.580    500.036    499.580
 43.970    538.828    505.693     33.134    499.501    505.227    499.501    499.969    499.501
 44.070    495.000    505.376    -10.376    499.425    504.899    499.425    499.903    499.425
 44.170    537.000    505.124     31.876    499.349    504.635    499.349    499.839    499.349
 44.270    548.000    504.922     43.078    499.275    504.421    499.275    499.777    499.275
 44.370    476.000    504.762    -28.762    499.203    504.248    499.203    499.717    499.203
 44.470    480.000    504.635    -24.635    499.132    504.108    499.132    499.659    499.132
 44.570    518.000    504.537     13.463    499.062    503.995    499.062    499.604    499.062
 44.670    475.000    504.463    -29.463    498.993    503.907    498.993    499.550    498.993
 44.770    481.000    504.412    -23.412    498.926    503.840    498.926    499.499    498.926
 44.870    496.000    504.381     -8.381    498.861    503.792    498.861    499.450    498.861
 44.970    507.206    504.368      2.838    498.797    503.761    498.797    499.403    498.797
 45.070    542.505    504.372     38.133    498.734    503.747    498.734    499.359    498.734
 45.170    491.000    504.393    -13.393    498.672    503.748    498.672    499.317    498.672
 45.270    476.000    504.430    -28.430    498.612    503.765    498.612    499.277    498.612
 45.370    509.177    504.484      4.693    498.553    503.796    498.553    499.241    498.553
 45.470    529.000    504.555     24.445    498.496    503.844    498.496    499.207    498.496
 45.570    480.000    504.643    -24.643    498.440    503.907    498.440    499.176    498.440
 45.670    520.000    504.750     15.250    498.385    503.986    498.385    499.149    498.385
 45.770    489.000    504.877    -15.877    498.332    504.084    498.332    499.124    498.332
 45.870    575.000    505.026     69.974    498.280    504.201    498.280    499.104    498.280
 45.970    504.000    505.198     -1.198    498.229    504.340    498.229    499.086    498.229
 46.070    459.245    505.397    -46.152    498.179    504.502    498.179    499.073    498.179
 46.170    524.153    505.626     18.527    498.131    504.692    498.131    499.064    498.131
 46.270    505.076    505.890     -0.813    498.085    504.913    498.085    499.060    498.085
 46.370    490.000    506.194    -16.194    498.039    505.172    498.039    499.061    498.039
 46.470    513.190    506.547      6.644    497.995    505.474    497.995    499.067    497.995
 46.570    496.000    506.958    -10.958    497.952    505.830    497.952    499.079    497.952
 46.670    521.000    507.445     13.555    497.911    506.257    497.911    499.098    497.911
 46.770    510.000    508.035      1.965    497.871    506.780    497.871    499.124    497.871
 46.870    504.000    508.787     -4.787    497.832    507.459    497.832    499.159    497.832
 46.970    465.415    509.832    -44.417    497.794    508.422    497.794    499.202    497.794
 47.070    499.000    511.446    -12.446    497.758    509.945    497.758    499.256    497.758
 47.170    519.323    514.155      5.169    497.723    512.551    497.723    499.322    497.723
 47.270    506.391    518.787    -12.396    497.689    517.066    497.689    499.401    497.689
 47.370    520.000    526.360     -6.360    497.657    524.506    497.657    499.496    497.657
 47.470    503.519    537.659    -34.140    497.625    535.653    497.625    499.609    497.625
 47.570    515.000    552.536    -37.536    497.595    550.355    497.595    499.744    497.595
 47.670    564.000    569.171     -5.171    497.567    566.789    497.567    499.904    497.567
 47.770    631.857    583.694     48.163    497.539    581.084    497.539    500.095    497.539
 47.870    615.608    590.958     24.649    497.513    588.091    497.513    500.323    497.513
 47.970    586.946    587.934     -0.988    497.488    584.774    497.488    500.596    497.488
 48.070    543.539    576.683    -33.144    497.464    573.178    497.464    500.927    497.464
 48.170    575.000    562.209     12.791    497.442    558.289    497.442    501.332    497.442
 48.270    551.245    548.872      2.373    497.421    544.435    497.421    501.837    497.421
 48.370    517.854    539.061    -21.207    497.401    533.959    497.401    502.490    497.401
 48.470    554.000    533.400     20.600    497.382    527.403    497.382    503.370    497.382
 48.570    531.000    531.465     -0.465    497.364    524.203    497.364    504.620    497.364
 48.670    518.000    532.555    -14.555    497.348    523.422    497.348    506.477    497.348
 48.770    551.915    536.226     15.689    497.332    524.254    497.332    509.301    497.332
 48.870    506.000    542.480    -36.480    497.318    526.216    497.318    513.578    497.318
 48.970    551.000    551.714     -0.714    497.306    529.151    497.306    519.863    497.306
 49.070    543.000    564.551    -21.551    497.294    533.209    497.294    528.630    497.294
 49.170    574.000    581.782     -7.782    497.283    539.019    497.283    540.039    497.283
 49.270    642.000    604.703     37.297    497.274    548.341    497.274    553.626    497.274
 49.370    638.000    636.306      1.694    497.266    565.635    497.266    567.921    497.266
 49.470    653.606    683.788    -30.182    497.259    600.878    497.259    580.142    497.259
 49.570    745.276    762.271    -16.995    497.253    672.822    497.253    586.655    497.253
 49.670    898.000    897.341      0.659    497.248    809.520    497.248    584.990    497.248
 49.770   1144.163   1119.535     24.628    497.245   1040.802    497.245    575.858    497.245
 49.870   1470.458   1444.882     25.576    497.242   1379.493    497.242    562.474    497.242
 49.970   1924.000   1847.885     76.115    497.241   1796.716    497.241    548.242    497.241
 50.070   2214.476   2244.721    -30.244    497.241   2206.423    497.241    535.411    497.241
 50.170   2501.033   2506.966     -5.933    497.242   2479.158    497.242    525.021    497.242
 50.270   2499.000   2523.569    -24.569    497.244   2503.648    497.244    517.259    497.244
 50.370   2271.000   2283.434    -12.434    497.247   2269.053    497.247    511.813    497.247
 50.470   1941.000   1886.288     54.712    497.251   1875.594    497.251    508.159    497.251
 50.570   1435.000   1465.143    -30.143    497.257   1456.832    497.257    505.759    497.257
 50.670   1145.041   1115.647     29.394    497.263   1108.883    497.263    504.172    497.263
 50.770    847.863    875.270    -27.407    497.271    869.550    497.271    503.090    497.271
 50.870    653.000    735.173    -82.173    497.279    730.203    497.279    502.316    497.279
 50.970    677.000    664.470     12.530    497.289    660.074    497.289    501.734    497.289
 51.070    622.000    631.029     -9.029    497.299    627.090    497.299    501.279    497.299
 51.170    609.874    612.114     -2.240    497.311    608.547    497.311    500.913    497.311
 51.270    600.754    596.467      4.287    497.324    593.206    497.324    500.614    497.324
 51.370    577.000    581.185     -4.185    497.338    578.179    497.338    500.368    497.338
 51.470    527.786    567.003    -39.217    497.353    564.209    497.353    500.164    497.353
 51.570    587.375    555.152     32.224    497.369    552.538    497.369    499.995    497.369
 51.670    574.000    546.257     27.743    497.385    543.796    497.385    499.855    497.385
 51.770    548.000    540.249      7.751    497.403    537.920    497.403    499.739    497.403
 51.870    491.124    536.627    -45.504    497.422    534.411    497.422    499.643    497.422
 51.970    597.000    534.776     62.224    497.442    532.656    497.442    499.565    497.442
 52.070    573.086    534.196     38.890    497.463    532.160    497.463    499.503    497.463
 52.170    573.000    534.606     38.394    497.485    532.640    497.485    499.453    497.485
 52.270    571.417    535.961     35.456    497.508    534.055    497.508    499.416    497.508
 52.370    580.548    538.501     42.047    497.532    536.646    497.532    499.389    497.532
 52.470    588.000    542.923     45.077    497.557    541.110    497.557    499.371    497.557
 52.570    579.000    550.731     28.269    497.582    548.952    497.582    499.362    497.582
 52.670    605.273    564.749     40.524    497.609    562.997    497.609    499.361    497.609
 52.770    544.355    589.560    -45.206    497.637    587.830    497.637    499.366    497.637
 52.870    579.170    631.358    -52.187    497.665    629.642    497.665    499.379    497.665
 52.970    719.141    696.556     22.585    497.695    694.850    497.695    499.398    497.695
 53.070    860.000    788.848     71.152    497.725    787.148    497.725    499.422    497.725
 53.170    951.000    905.234     45.766    497.757    903.537    497.757    499.452    497.757
 53.270    978.804   1032.321    -53.518    497.789   1030.626    497.789    499.488    497.789
 53.370   1157.000   1144.683     12.317    497.822   1142.989    497.822    499.529    497.822
 53.470   1179.000   1209.444    -30.444    497.856   1207.750    497.856    499.574    497.856
 53.570   1187.000   1202.625    -15.625    497.891   1200.928    497.891    499.625    497.891
 53.670   1069.000   1127.244    -58.244    497.927   1125.532    497.927    499.681    497.927
 53.770    981.218   1010.522    -29.303    497.964   1008.786    497.964    499.742    497.964
 53.870    828.000    884.588    -56.588    498.001    882.818    498.001    499.808    498.001
 53.970    747.000    772.659    -25.659    498.040    770.848    498.040    499.879    498.040
 54.070    680.000    686.003     -6.003    498.079    684.147    498.079    499.955    498.079
 54.170    615.000    626.096    -11.096    498.119    624.192    498.119    500.036    498.119
 54.270    571.983    588.487    -16.505    498.160    586.533    498.160    500.123    498.160
 54.370    573.000    566.655      6.345    498.202    564.646    498.202    500.216    498.202
 54.470    597.000    554.660     42.340    498.245    552.593    498.245    500.315    498.245
 54.570    541.000    548.260     -7.260    498.288    546.131    498.288    500.420    498.288
 54.670    502.000    544.907    -42.907    498.332    542.710    498.332    500.531    498.332
 54.770    615.000    543.262     71.738    498.377    540.990    498.377    500.650    498.377
 54.870    583.556    542.692     40.865    498.423    540.340    498.423    500.776    498.423
 54.970    570.000    542.924     27.076    498.470    540.483    498.470    500.911    498.470
 55.070    526.000    543.855    -17.855    498.517    541.319    498.517    501.054    498.517
 55.170    573.000    545.468     27.532    498.565    542.827    498.565    501.207    498.565
 55.270    549.000    547.798      1.202    498.614    545.044    498.614    501.370    498.614
 55.370    559.000    550.935      8.065    498.664    548.056    498.664    501.544    498.664
 55.470    577.000    555.045     21.955    498.714    552.029    498.714    501.730    498.714
 55.570    557.000    560.449     -3.449    498.765    557.285    498.765    501.931    498.765
 55.670    572.392    567.822      4.570    498.817    564.494    498.817    502.146    498.817
 55.770    563.000    578.626    -15.626    498.870    575.118    498.870    502.378    498.870
 55.870    570.495    595.963    -25.468    498.923    592.256    498.923    502.628    498.923
 55.970    600.000    625.909    -25.909    498.977    621.981    498.977    502.900    498.977
 56.070    687.596    679.062      8.534    499.031    674.888    499.031    503.195    499.031
 56.170    693.000    771.331    -78.331    499.087    766.880    499.087    503.517    499.087
 56.270    923.000    922.253      0.747    499.143    917.493    499.143    503.869    499.143
 56.370   1128.000   1149.201    -21.201    499.200   1144.097    499.200    504.256    499.200
 56.470   1420.000   1457.437    -37.437    499.257   1451.955    499.257    504.683    499.257
 56.570   1776.000   1828.784    -52.784    499.315   1822.894    499.315    505.156    499.315
 56.670   2106.000   2213.499   -107.499    499.374   2207.171    499.374    505.683    499.374
 56.770   2518.000   2530.727    -12.727    499.433   2523.929    499.433    506.273    499.433
 56.870   2681.000   2688.293     -7.293    499.493   2680.976    499.493    506.937    499.493
 56.970   2633.000   2630.969      2.031    499.554   2623.046    499.554    507.688    499.554
 57.070   2356.979   2381.277    -24.299    499.615   2372.611    499.615    508.545    499.615
 57.170   2111.000   2020.677     90.323    499.677   2011.094    499.677    509.530    499.677
 57.270   1671.000   1638.661     32.339    499.739   1627.964    499.739    510.676    499.739
 57.370   1330.000   1300.339     29.661    499.802   1288.304    499.802    512.027    499.802
 57.470   1068.000   1038.294     29.706    499.866   1024.637    499.866    513.658    499.866
 57.570    900.129    857.337     42.792    499.930    841.666    499.930    515.689    499.930
 57.670    717.157    745.046    -27.889    499.994    726.766    499.994    518.327    499.994
 57.770    660.000    683.011    -23.011    500.060    661.182    500.060    521.917    500.060
 57.870    658.248    654.973      3.275    500.126    628.098    500.126    527.013    500.126
 57.970    647.000    650.590     -3.590    500.192    616.344    500.192    534.439    500.192
 58.070    691.000    665.749     25.251    500.259    620.682    500.259    545.317    500.259
 58.170    678.000    700.953    -22.953    500.326    640.258    500.326    561.001    500.326
 58.270    770.000    758.909     11.091    500.394    676.400    500.394    582.871    500.394
 58.370    801.000    841.983    -40.983    500.463    730.430    500.463    611.972    500.463
 58.470    937.000    949.689    -12.689    500.532    801.639    500.532    648.527    500.532
 58.570   1068.000   1076.766     -8.766    500.601    885.933    500.601    691.374    500.601
 58.670   1208.000   1212.241     -4.241    500.671    975.511    500.671    737.344    500.671
 58.770   1310.000   1340.538    -30.538    500.741   1060.590    500.741    780.643    500.741
 58.870   1492.000   1444.522     47.478    500.812   1132.421    500.812    812.883    500.812
 58.970   1559.000   1508.433     50.567    500.884   1183.919    500.884    825.388    500.884
 59.070   1601.491   1521.248     80.242    500.956   1208.070    500.956    814.146    500.956
 59.170   1543.000   1482.063     60.937    501.028   1200.270    501.028    782.850    501.028
 59.270   1414.053   1403.149     10.905    501.100   1164.224    501.100    740.060    501.100
 59.370   1342.000   1305.747     36.253    501.174   1112.709    501.174    694.237    501.174
 59.470   1200.087   1211.886    -11.800    501.247   1061.829    501.247    651.305    501.247
 59.570   1184.000   1140.039     43.961    501.321   1026.772    501.321    614.554    501.321
 59.670   1144.000   1105.379     38.621    501.395   1021.463    501.395    585.232    501.395
 59.770   1215.000   1118.878     96.122    501.470   1057.042    501.470    563.174    501.470
 59.870   1204.000   1182.876     21.124    501.545   1136.869    501.545    547.365    501.545
 59.970   1370.000   1286.754     83.246    501.621   1251.704    501.621    536.431    501.621
 60.070   1446.019   1405.767     40.251    501.697   1378.172    501.697    529.014    501.697
 60.170   1526.000   1503.904     22.096    501.773   1481.407    501.773    523.980    501.773
 60.270   1619.000   1543.360     75.640    501.849   1524.454    501.849    520.490    501.849
 60.370   1570.675   1502.278     68.396    501.926   1486.013    501.926    517.979    501.926
 60.470   1373.000   1387.966    -14.966    502.004   1373.725    502.004    516.096    502.004
 60.570   1208.000   1229.868    -21.868    502.081   1217.229    502.081    514.632    502.081
 60.670   1029.000   1061.941    -32.941    502.159   1050.588    502.159    513.467    502.159
 60.770    914.000    910.610      3.390    502.237    900.295    502.237    512.534    502.237
 60.870    731.000    790.685    -59.685    502.316    781.198    502.316    511.797    502.316
 60.970    697.000    706.205     -9.205    502.395    697.359    502.395    511.238    502.395
 61.070    649.519    654.081     -4.563    502.474    645.701    502.474    510.849    502.474
 61.170    635.000    628.647      6.353    502.553    620.564    502.553    510.625    502.553
 61.270    646.000    625.451     20.549    502.633    617.504    502.633    510.561    502.633
 61.370    624.000    643.334    -19.334    502.712    635.371    502.712    510.644    502.712
 61.470    737.000    684.577     52.423    502.793    676.472    502.793    510.849    502.793
 61.570    718.736    753.310    -34.574    502.873    744.982    502.873    511.129    502.873
 61.670    883.000    852.529     30.471    502.954    843.968    502.954    511.412    502.954
 61.770    966.000    980.421    -14.421    503.034    971.722    503.034    511.601    503.034
 61.870   1109.000   1127.133    -18.133    503.115   1118.492    503.115    511.595    503.115
 61.970   1205.000   1273.165    -68.165    503.197   1264.842    503.197    511.342    503.197
 62.070   1381.000   1390.674     -9.674    503.278   1382.913    503.278    510.864    503.278
 62.170   1386.859   1450.124    -63.265    503.360   1443.090    503.360    510.243    503.360
 62.270   1412.000   1433.620    -21.620    503.442   1427.378    503.442    509.575    503.442
 62.370   1318.000   1346.055    -28.055    503.524   1340.583    503.524    508.933    503.524
 62.470   1250.942   1211.623     39.319    503.606   1206.843    503.606    508.361    503.606
 62.570   1039.000   1060.260    -21.260    503.688   1056.065    503.688    507.884    503.688
 62.670    859.000    916.838    -57.838    503.771    913.118    503.771    507.504    503.771
 62.770    755.000    796.854    -41.854    503.853    793.508    503.853    507.216    503.853
 62.870    715.000    706.319      8.681    503.936    703.263    503.936    507.005    503.936
 62.970    631.000    643.951    -12.951    504.019    641.122    504.019    506.857    504.019
 63.070    641.000    604.367     36.633    504.102    601.718    504.102    506.755    504.102
 63.170    537.606    581.064    -43.458    504.185    578.562    504.185    506.687    504.185
 63.270    580.000    568.402     11.598    504.268    566.024    504.268    506.644    504.268
 63.370    597.197    562.469     34.728    504.351    560.197    504.351    506.619    504.351
 63.470    566.000    561.175      4.825    504.434    558.997    504.434    506.606    504.434
 63.570    608.324    564.012     44.312    504.518    561.916    504.518    506.604    504.518
 63.670    578.000    571.763      6.237    504.601    569.740    504.601    506.611    504.601
 63.770    557.331    586.219    -28.888    504.685    584.260    504.685    506.624    504.685
 63.870    608.137    609.801     -1.664    504.768    607.896    504.768    506.643    504.768
 63.970    610.773    644.941    -34.168    504.852    643.082    504.852    506.668    504.852
 64.070    670.834    693.172    -22.338    504.936    691.350    504.936    506.697    504.936
 64.170    731.911    754.029    -22.118    505.019    752.237    505.019    506.730    505.019
 64.270    860.000    824.021     35.979    505.103    822.256    505.103    506.766    505.103
 64.370    896.552    895.984      0.568    505.187    894.245    505.187    506.807    505.187
 64.470    952.034    959.326     -7.292    505.270    957.618    505.270    506.851    505.270
 64.570   1002.441   1002.261      0.181    505.354   1000.591    505.354    506.899    505.354
 64.670   1057.875   1016.391     41.484    505.438   1014.770    505.438    506.949    505.438
 64.770   1008.596   1000.457      8.140    505.521    998.889    505.521    507.001    505.521
 64.870    995.865    959.872     35.993    505.605    958.361    505.605    507.056    505.605
 64.970    931.000    903.810     27.190    505.688    902.353    505.688    507.113    505.688
 65.070    834.606    842.208     -7.601    505.772    840.798    505.772    507.173    505.772
 65.170    833.990    783.119     50.871    505.855    781.749    505.855    507.234    505.855
 65.270    743.000    731.234     11.766    505.938    729.895    505.938    507.297    505.938
 65.370    652.000    688.077    -36.077    506.022    686.762    506.022    507.362    506.022
 65.470    664.454    653.291     11.164    506.105    651.993    506.105    507.429    506.105
 65.570    583.000    625.877    -42.877    506.188    624.591    506.188    507.497    506.188
 65.670    601.000    604.735     -3.735    506.271    603.457    506.271    507.566    506.271
 65.770    583.000    588.791     -5.791    506.354    587.520    506.354    507.638    506.354
 65.870    540.000    577.082    -37.082    506.436    575.817    506.436    507.710    506.436
 65.970    564.000    568.807     -4.807    506.519    567.547    506.519    507.784    506.519
 66.070    542.000    563.325    -21.325    506.602    562.070    506.602    507.859    506.602
 66.170    550.000    560.124    -10.124    506.684    558.872    506.684    507.936    506.684
 66.270    521.782    558.792    -37.010    506.766    557.545    506.766    508.014    506.766
 66.370    568.642    559.028      9.614    506.848    557.783    506.848    508.093    506.848
 66.470    536.000    560.670    -24.670    506.930    559.427    506.930    508.173    506.930
 66.570    590.000    563.764     26.236    507.011    562.521    507.011    508.255    507.011
 66.670    578.337    568.682      9.655    507.093    567.439    507.093    508.338    507.093
 66.770    589.128    576.338     12.791    507.174    575.091    507.174    508.422    507.174
 66.870    519.000    588.523    -69.523    507.255    587.271    507.255    508.507    507.255
 66.970    616.000    608.387      7.613    507.336    607.128    507.336    508.594    507.336
 67.070    619.405    640.942    -21.537    507.417    639.674    507.417    508.682    507.417
 67.170    698.000    693.362      4.638    507.497    692.081    507.497    508.772    507.497
 67.270    756.383    774.697    -18.315    507.577    773.401    507.577    508.862    507.577
 67.370    893.000    894.571     -1.571    507.657    893.259    507.657    508.954    507.657
 67.470   1108.000   1060.648     47.352    507.737   1059.322    507.737    509.048    507.737
 67.570   1301.000   1275.090     25.910    507.816   1273.755    507.816    509.144    507.816
 67.670   1455.060   1530.818    -75.758    507.895   1529.484    507.895    509.240    507.895
 67.770   1840.000   1808.684     31.316    507.974   1807.365    507.974    509.339    507.974
 67.870   2041.000   2076.624    -35.624    508.053   2075.333    508.053    509.440    508.053
 67.970   2257.000   2292.227    -35.227    508.131   2290.977    508.131    509.542    508.131
 68.070   2404.000   2411.681     -7.681    508.209   2410.477    508.209    509.647    508.209
 68.170   2559.000   2406.314    152.686    508.287   2405.145    508.287    509.754    508.287
 68.270   2314.000   2277.589     36.411    508.364   2276.425    508.364    509.863    508.364
 68.370   1988.252   2056.190    -67.938    508.441   2054.996    508.441    509.975    508.441
 68.470   1820.000   1786.297     33.703    508.518   1785.040    508.518    510.090    508.518
 68.570   1495.000   1509.633    -14.633    508.594   1508.290    508.594    510.208    508.594
 68.670   1248.000   1257.199     -9.199    508.670   1255.758    508.670    510.329    508.670
 68.770   1005.336   1047.059    -41.723    508.746   1045.516    508.746    510.454    508.746
 68.870    924.000    885.385     38.615    508.821    883.741    508.821    510.583    508.821
 68.970    782.000    769.407     12.593    508.896    767.668    508.896    510.716    508.896
 69.070    680.881    691.180    -10.299    508.970    689.349    508.970    510.854    508.970
 69.170    695.000    641.051     53.949    509.045    639.132    509.045    510.998    509.045
 69.270    620.767    610.096     10.671    509.118    608.089    509.118    511.148    509.118
 69.370    534.000    591.311    -57.311    509.192    589.214    509.192    511.304    509.192
 69.470    576.000    579.837     -3.837    509.265    577.644    509.265    511.467    509.265
 69.570    604.249    572.621     31.628    509.337    570.326    509.337    511.639    509.337
 69.670    537.908    567.896    -29.988    509.409    565.490    509.409    511.821    509.409
 69.770    565.000    564.707      0.293    509.481    562.180    509.481    512.012    509.481
 69.870    596.000    562.561     33.439    509.552    559.901    509.552    512.216    509.552
 69.970    546.000    561.217    -15.217    509.623    558.409    509.623    512.432    509.623
 70.070    546.000    560.560    -14.560    509.693    557.590    509.693    512.665    509.693
 70.170    564.000    560.557      3.443    509.763    557.406    509.763    512.914    509.763
 70.270    506.000    561.239    -55.239    509.833    557.887    509.833    513.184    509.833
 70.370    561.680    562.721     -1.041    509.901    559.145    509.901    513.476    509.901
 70.470    555.000    565.261    -10.261    509.970    561.433    509.970    513.795    509.970
 70.570    565.716    569.360     -3.645    510.038    565.248    510.038    514.146    510.038
 70.670    608.082    575.929     32.153    510.105    571.494    510.105    514.533    510.105
 70.770    544.356    586.516    -42.161    510.172    581.713    510.172    514.964    510.172
 70.870    621.086    603.571     17.515    510.239    598.343    510.239    515.449    510.239
 70.970    649.000    630.651     18.349    510.305    624.927    510.305    516.002    510.305
 71.070    646.000    672.447    -26.447    510.370    666.129    510.370    516.646    510.370
 71.170    686.000    734.424    -48.424    510.435    727.382    510.435    517.417    510.435
 71.270    870.902    821.926     48.976    510.499    813.969    510.499    518.373    510.499
 71.370    911.488    938.722    -27.234    510.563    929.562    510.563    519.611    510.563
 71.470   1110.940   1085.190     25.751    510.626   1074.389    510.626    521.284    510.626
 71.570   1313.815   1256.534     57.281    510.689   1243.424    510.689    523.627    510.689
 71.670   1450.000   1441.539      8.461    510.751   1425.122    510.751    526.974    510.751
 71.770   1552.000   1622.279    -70.279    510.812   1601.110    510.812    531.776    510.812
 71.870   1827.259   1775.363     51.896    510.873   1747.452    510.873    538.584    510.873
 71.970   1814.000   1875.970    -61.970    510.933   1838.718    510.933    548.007    510.933
 72.070   1984.353   1905.631     78.722    510.993   1855.864    510.993    560.616    510.993
 72.170   1779.388   1860.742    -81.353    511.052   1794.882    511.052    576.807    511.052
 72.270   1752.000   1754.624     -2.624    511.111   1669.035    511.111    596.631    511.111
 72.370   1664.000   1610.740     53.260    511.169   1502.243    511.169    619.624    511.169
 72.470   1505.028   1453.374     51.654    511.226   1319.922    511.226    644.656    511.226
 72.570   1273.000   1301.698    -28.698    511.282   1143.150    511.282    669.818    511.282
 72.670   1123.000   1167.506    -44.506    511.338    986.433    511.338    692.404    511.338
 72.770   1119.085   1055.231     63.854    511.394    857.472    511.394    709.145    511.394
 72.870    907.000    963.629    -56.629    511.448    758.086    511.448    716.982    511.448
 72.970    809.000    888.631    -79.631    511.502    685.848    511.502    714.276    511.502
 73.070    773.000    826.062    -53.062    511.556    635.965    511.556    701.642    511.556
 73.170    717.000    772.953    -55.953    511.608    602.944    511.608    681.608    511.608
 73.270    675.000    727.545    -52.545    511.660    581.745    511.660    657.453    511.660
 73.370    583.000    688.858   -105.858    511.712    568.365    511.712    632.199    511.712
 73.470    596.000    656.353    -60.353    511.762    559.965    511.762    608.147    511.762
 73.570    613.000    629.705    -16.705    511.812    554.719    511.812    586.796    511.812
 73.670    608.000    608.614     -0.614    511.861    551.556    511.861    568.921    511.861
 73.770    588.010    592.682     -4.672    511.910    549.897    511.910    554.700    511.910
 73.870    570.000    581.363    -11.363    511.958    549.444    511.958    543.885    511.958
 73.970    613.588    573.974     39.614    512.005    550.017    512.005    535.975    512.005
 74.070    534.463    569.744    -35.280    512.051    551.450    512.051    530.364    512.051
 74.170    618.344    567.863     50.482    512.097    553.518    512.097    526.466    512.097
 74.270    585.224    567.515     17.709    512.142    555.908    512.142    523.779    512.142
 74.370    586.000    567.897     18.103    512.186    558.207    512.186    521.912    512.186
 74.470    603.000    568.249     34.751    512.229    559.936    512.229    520.584    512.229
 74.570    619.042    567.924     51.118    512.272    560.634    512.272    519.605    512.272
 74.670    548.123    566.512    -18.389    512.313    560.016    512.313    518.854    512.313
 74.770    516.693    563.952    -47.259    512.354    558.094    512.354    518.256    512.354
 74.870    662.000    560.510    101.490    512.395    555.181    512.395    517.763    512.395
 74.970    539.073    556.651    -17.578    512.434    551.771    512.434    517.348    512.434
 75.070    527.715    552.899    -25.184    512.473    548.405    512.473    516.993    512.473
 75.170    574.000    549.763     24.237    512.511    545.608    512.511    516.686    512.511
 75.270    581.000    547.730     33.270    512.548    543.873    512.548    516.419    512.548
 75.370    544.000    547.279     -3.279    512.584    543.686    512.584    516.185    512.584
 75.470    565.000    548.906     16.094    512.620    545.548    512.620    515.979    512.620
 75.570    587.976    553.130     34.846    512.654    549.983    512.654    515.798    512.654
 75.670    535.838    560.467    -24.629    512.688    557.507    512.688    515.638    512.688
 75.770    565.000    571.342     -6.342    512.721    568.550    512.721    515.496    512.721
 75.870    561.000    585.963    -24.963    512.753    583.322    512.753    515.370    512.753
 75.970    589.000    604.153    -15.153    512.785    601.647    512.785    515.258    512.785
 76.070    651.924    625.197     26.727    512.815    622.814    512.815    515.157    512.815
 76.170    646.000    647.739     -1.739    512.845    645.466    512.845    515.067    512.845
 76.270    629.000    669.756    -40.756    512.873    667.585    512.873    514.987    512.873
 76.370    737.000    688.661     48.339    512.901    686.586    512.901    514.915    512.901
 76.470    703.000    701.632      1.368    512.928    699.648    512.928    514.850    512.928
 76.570    713.000    706.308      6.692    512.955    704.411    512.955    514.791    512.955
 76.670    647.539    701.705    -54.166    512.980    699.891    512.980    514.738    512.980
 76.770    733.000    688.688     44.312    513.004    686.955    513.004    514.690    513.004
 76.870    630.000    669.546    -39.546    513.028    667.889    513.028    514.647    513.028
 76.970    629.036    647.079    -18.043    513.050    645.493    513.050    514.607    513.050
 77.070    599.145    623.881    -24.736    513.072    622.360    513.072    514.571    513.072
 77.170    626.000    601.983     24.017    513.093    600.523    513.093    514.538    513.093
 77.270    551.419    582.742    -31.323    513.113    581.337    513.113    514.508    513.113
 77.370    543.000    566.849    -23.849    513.132    565.494    513.132    514.480    513.132
 77.470    516.000    554.427    -38.427    513.150    553.118    513.150    514.455    513.150
 77.570    528.000    545.192    -17.192    513.167    543.925    513.167    514.432    513.167
 77.670    498.000    538.621    -40.621    513.183    537.393    513.183    514.410    513.183
 77.770    529.795    534.116     -4.321    513.199    532.923    513.199    514.389    513.199
 77.870    567.380    531.110     36.271    513.213    529.951    513.213    514.371    513.213
 77.970    491.593    529.134    -37.541    513.227    528.007    513.227    514.353    513.227
 78.070    528.000    527.835      0.165    513.239    526.737    513.239    514.336    513.239
 78.170    541.414    526.951     14.462    513.251    525.881    513.251    514.320    513.251
 78.270    495.000    526.338    -31.338    513.261    525.293    513.261    514.305    513.261
 78.370    536.892    525.933     10.959    513.271    524.912    513.271    514.291    513.271
 78.470    535.000    525.663      9.337    513.280    524.664    513.280    514.278    513.280
 78.570    499.000    525.502    -26.502    513.287    524.524    513.287    514.265    513.287
 78.670    562.913    525.446     37.467    513.294    524.487    513.294    514.252    513.294
 78.770    502.991    525.502    -22.511    513.300    524.561    513.300    514.241    513.300
 78.870    508.000    525.686    -17.686    513.305    524.760    513.305    514.230    513.305
 78.970    472.000    526.024    -54.024    513.308    525.111    513.308    514.220    513.308
 79.070    546.000    526.542     19.458    513.311    525.641    513.311    514.211    513.311
 79.170    535.160    527.269      7.891    513.313    526.376    513.313    514.204    513.313
 79.270    499.000    528.232    -29.232    513.314    527.343    513.314    514.200    513.314
 79.370    553.000    529.457     23.543    513.314    528.569    513.314    514.199    513.314
 79.470    504.000    530.970    -26.970    513.313    530.077    513.313    514.203    513.313
 79.570    515.000    532.808    -17.808    513.310    531.903    513.310    514.211    513.310
 79.670    515.000    535.026    -20.026    513.307    534.103    513.307    514.226    513.307
 79.770    492.948    537.718    -44.770    513.303    536.768    513.303    514.249    513.303
 79.870    573.451    541.035     32.416    513.298    540.049    513.298    514.279    513.298
 79.970    534.000    545.211    -11.211    513.292    544.182    513.292    514.316    513.292
 80.070    512.000    550.584    -38.584    513.285    549.505    513.285    514.360    513.285
 80.170    565.000    557.593      7.407    513.276    556.458    513.276    514.409    513.276
 80.270    569.000    566.726      2.274    513.267    565.533    513.267    514.460    513.267
 80.370    596.891    578.425     18.466    513.257    577.177    513.257    514.507    513.257
 80.470    584.000    592.967     -8.967    513.245    591.671    513.245    514.547    513.245
 80.570    616.433    610.354      6.079    513.233    609.026    513.233    514.571    513.233
 80.670    635.815    630.233      5.582    513.220    628.893    513.220    514.575    513.220
 80.770    669.730    651.846     17.885    513.205    650.518    513.205    514.553    513.205
 80.870    635.000    674.062    -39.062    513.190    672.772    513.190    514.507    513.190
 80.970    744.978    695.496     49.482    513.173    694.264    513.173    514.440    513.173
 81.070    670.000    714.708    -44.708    513.156    713.547    513.156    514.357    513.156
 81.170    750.000    730.400     19.600    513.137    729.318    513.137    514.266    513.137
 81.270    758.000    741.533     16.467    513.117    740.533    513.117    514.172    513.117
 81.370    736.416    747.415    -10.999    513.096    746.493    513.096    514.079    513.096
 81.470    713.906    747.773    -33.867    513.075    746.922    513.075    513.990    513.075
 81.570    730.396    742.769    -12.374    513.052    741.981    513.052    513.908    513.052
 81.670    779.854    732.940     46.914    513.028    732.205    513.028    513.833    513.028
 81.770    722.132    719.161      2.971    513.003    718.468    513.003    513.765    513.003
 81.870    720.000    702.606     17.394    512.977    701.947    512.977    513.705    512.977
 81.970    706.000    684.587     21.413    512.950    683.953    512.950    513.650    512.950
 82.070    727.000    666.284     60.716    512.921    665.670    512.921    513.599    512.921
 82.170    666.000    648.542     17.458    512.892    647.941    512.892    513.553    512.892
 82.270    639.000    631.820      7.180    512.862    631.228    512.862    513.509    512.862
 82.370    615.619    616.304     -0.685    512.830    615.718    512.830    513.467    512.830
 82.470    565.950    602.081    -36.130    512.798    601.497    512.798    513.426    512.798
 82.570    559.509    589.257    -29.748    512.764    588.674    512.764    513.386    512.764
 82.670    607.000    577.993     29.007    512.729    577.409    512.729    513.346    512.729
 82.770    592.000    568.461     23.539    512.693    567.875    512.693    513.305    512.693
 82.870    522.000    560.815    -38.815    512.657    560.226    512.657    513.265    512.657
 82.970    565.000    555.171      9.829    512.619    554.578    512.619    513.223    512.619
 83.070    555.000    551.591      3.409    512.579    550.994    512.579    513.181    512.579
 83.170    531.000    550.068    -19.068    512.539    549.466    512.539    513.139    512.539
 83.270    585.000    550.503     34.497    512.498    549.895    512.498    513.095    512.498
 83.370    540.000    552.686    -12.686    512.456    552.073    512.456    513.051    512.456
 83.470    531.056    556.286    -25.231    512.412    555.667    512.412    513.006    512.412
 83.570    481.000    560.850    -79.850    512.368    560.226    512.368    512.961    512.368
 83.670    534.265    565.814    -31.549    512.322    565.185    512.322    512.914    512.322
 83.770    584.000    570.534     13.466    512.275    569.901    512.275    512.867    512.275
 83.870    538.000    574.336    -36.336    512.227    573.700    512.227    512.818    512.227
 83.970    595.000    576.601     18.399    512.178    575.964    512.178    512.769    512.178
 84.070    609.582    576.897     32.685    512.128    576.261    512.128    512.719    512.128
 84.170    567.000    575.094     -8.094    512.077    574.460    512.077    512.669    512.077
 84.270    580.000    571.395      8.605    512.025    570.765    512.025    512.617    512.025
 84.370    534.000    566.255    -32.255    511.972    565.629    511.972    512.564    511.972
 84.470    556.000    560.241     -4.241    511.917    559.619    511.917    512.511    511.917
 84.570    524.000    553.909    -29.909    511.861    553.291    511.861    512.456    511.861
 84.670    519.000    547.734    -28.734    511.805    547.120    511.805    512.401    511.805
 84.770    532.734    542.078     -9.343    511.747    541.465    511.747    512.345    511.747
 84.870    514.000    537.171    -23.171    511.688    536.560    511.688    512.288    511.688
 84.970    548.000    533.124     14.876    511.628    532.514    511.628    512.230    511.628
 85.070    538.000    529.946      8.054    511.567    529.335    511.567    512.171    511.567
 85.170    557.000    527.573     29.427    511.505    526.960    511.505    512.112    511.505
 85.270    565.082    525.898     39.184    511.441    525.284    511.441    512.051    511.441
 85.370    533.000    524.805      8.195    511.377    524.188    511.377    511.990    511.377
 85.470    545.000    524.186     20.814    511.312    523.566    511.312    511.927    511.312
 85.570    529.377    523.962      5.415    511.245    523.339    511.245    511.864    511.245
 85.670    527.000    524.088      2.912    511.177    523.460    511.177    511.800    511.177
 85.770    521.704    524.561     -2.857    511.108    523.928    511.108    511.735    511.108
 85.870    506.000    525.420    -19.420    511.038    524.782    511.038    511.669    511.038
 85.970    530.000    526.750      3.250    510.967    526.106    510.967    511.603    510.967
 86.070    565.000    528.675     36.325    510.895    528.023    510.895    511.535    510.895
 86.170    553.433    531.355     22.079    510.822    530.694    510.822    511.467    510.822
 86.270    497.000    534.970    -37.970    510.748    534.299    510.748    511.398    510.748
 86.370    559.000    539.703     19.297    510.672    539.021    510.672    511.328    510.672
 86.470    556.000    545.711     10.289    510.596    545.016    510.596    511.257    510.596
 86.570    544.841    553.090     -8.249    510.518    552.380    510.518    511.185    510.518
 86.670    582.080    561.833     20.247    510.439    561.106    510.439    511.113    510.439
 86.770    562.345    571.794     -9.449    510.359    571.049    510.359    511.040    510.359
 86.870    585.000    582.661      2.339    510.279    581.897    510.279    510.966    510.279
 86.970    594.000    593.935      0.065    510.197    593.153    510.197    510.891    510.197
 87.070    619.788    604.942     14.846    510.113    604.141    510.113    510.816    510.113
 87.170    654.000    614.858     39.142    510.029    614.039    510.029    510.740    510.029
 87.270    610.399    622.783    -12.384    509.944    621.951    509.944    510.663    509.944
 87.370    618.000    627.888     -9.888    509.858    627.046    509.858    510.586    509.858
 87.470    613.000    629.602    -16.602    509.770    628.752    509.770    510.508    509.770
 87.570    645.305    627.777     17.527    509.682    626.926    509.682    510.428    509.682
 87.670    616.000    622.734     -6.734    509.592    621.882    509.592    510.349    509.592
 87.770    649.000    615.187     33.813    509.501    614.336    509.501    510.269    509.501
 87.870    598.000    606.038     -8.038    509.410    605.190    509.410    510.189    509.410
 87.970    597.000    596.229      0.771    509.317    595.381    509.317    510.108    509.317
 88.070    623.000    586.653     36.347    509.223    585.805    509.223    510.027    509.223
 88.170    582.526    578.087      4.438    509.128    577.238    509.128    509.945    509.128
 88.270    612.000    571.146     40.854    509.032    570.294    509.032    509.863    509.032
 88.370    620.000    566.257     53.743    508.935    565.400    508.935    509.781    508.935
 88.470    604.000    563.651     40.349    508.837    562.786    508.837    509.699    508.837
 88.570    576.000    563.364     12.636    508.738    562.492    508.738    509.616    508.738
 88.670    527.000    565.252    -38.252    508.637    564.370    508.637    509.533    508.637
 88.770    534.779    569.002    -34.223    508.536    568.109    508.536    509.450    508.536
 88.870    617.000    574.154     42.846    508.434    573.249    508.434    509.367    508.434
 88.970    643.000    580.127     62.873    508.330    579.209    508.330    509.284    508.330
 89.070    624.000    586.246     37.754    508.226    585.314    508.226    509.202    508.226
 89.170    572.000    591.782    -19.782    508.120    590.834    508.120    509.120    508.120
 89.270    595.000    596.017     -1.017    508.014    595.051    508.014    509.038    508.014
 89.370    609.000    598.335     10.665    507.906    597.347    507.906    508.956    507.906
 89.470    635.000    598.339     36.661    507.798    597.326    507.798    508.876    507.798
 89.570    591.000    595.947     -4.947    507.688    594.903    507.688    508.796    507.688
 89.670    622.000    591.392     30.608    507.577    590.315    507.577    508.717    507.577
 89.770    592.220    585.148      7.072    507.466    584.033    507.466    508.639    507.466
 89.870    583.000    577.800      5.200    507.353    576.643    507.353    508.563    507.353
 89.970    567.808    569.939     -2.131    507.240    568.735    507.240    508.489    507.240
 90.070    519.000    562.088    -43.088    507.125    560.836    507.125    508.416    507.125
 90.170    527.000    554.672    -27.672    507.009    553.368    507.009    508.346    507.009
 90.270    545.000    547.997     -2.997    506.893    546.637    506.893    508.279    506.893
 90.370    539.625    542.249     -2.625    506.775    540.829    506.775    508.215    506.775
 90.470    522.000    537.506    -15.506    506.656    536.022    506.656    508.155    506.656
 90.570    511.000    533.757    -22.757    506.537    532.205    506.537    508.100    506.537
 90.670    527.000    530.928     -3.928    506.416    529.302    506.416    508.050    506.416
 90.770    485.000    528.911    -43.911    506.295    527.202    506.295    508.008    506.295
 90.870    515.000    527.585    -12.585    506.172    525.784    506.172    507.976    506.172
 90.970    567.879    526.838     41.041    506.049    524.932    506.049    507.956    506.049
 91.070    485.165    526.584    -41.419    505.924    524.556    505.924    507.953    505.924
 91.170    533.000    526.767      6.233    505.799    524.593    505.799    507.972    505.799
 91.270    534.000    527.338      6.662    505.672    524.987    505.672    508.022    505.672
 91.370    514.167    528.399    -14.232    505.545    525.829    505.545    508.112    505.545
 91.470    510.166    530.020    -19.854    505.417    527.176    505.417    508.257    505.417
 91.570    484.210    532.315    -48.105    505.288    529.123    505.288    508.474    505.288
 91.670    542.873    535.460      7.413    505.158    531.825    505.158    508.785    505.158
 91.770    578.968    539.665     39.303    505.027    535.469    505.027    509.213    505.027
 91.870    564.000    545.177     18.823    504.895    540.269    504.895    509.790    504.895
 91.970    551.000    552.251     -1.251    504.762    546.449    504.762    510.547    504.762
 92.070    531.533    561.135    -29.602    504.628    554.224    504.628    511.517    504.628
 92.170    579.000    572.038      6.962    504.494    563.775    504.494    512.730    504.494
 92.270    552.000    585.102    -33.102    504.358    575.218    504.358    514.209    504.358
 92.370    626.933    600.369     26.564    504.222    588.580    504.222    515.971    504.222
 92.470    622.000    617.752      4.248    504.084    603.771    504.084    518.019    504.084
 92.570    643.000    637.014      5.986    503.946    620.570    503.946    520.337    503.946
 92.670    646.867    657.752    -10.884    503.807    638.608    503.807    522.891    503.807
 92.770    627.126    679.393    -52.266    503.667    657.374    503.667    525.620    503.667
 92.870    689.000    701.213    -12.213    503.527    676.230    503.527    528.437    503.527
 92.970    736.698    722.401     14.298    503.385    694.483    503.385    531.227    503.385
 93.070    750.983    742.157      8.826    503.243    711.477    503.243    533.844    503.243
 93.170    725.546    759.813    -34.267    503.099    726.716    503.099    536.117    503.099
 93.270    736.000    774.963    -38.963    502.955    739.973    502.955    537.865    502.955
 93.370    777.000    787.499    -10.499    502.811    751.313    502.811    538.918    502.811
 93.470    830.000    797.577     32.423    502.665    761.008    502.665    539.157    502.665
 93.570    849.948    805.532     44.415    502.518    769.436    502.518    538.540    502.518
 93.670    862.223    811.822     50.401    502.371    777.000    502.371    537.122    502.371
 93.770    786.000    816.995    -30.995    502.223    784.119    502.223    535.030    502.223
 93.870    798.678    821.699    -23.022    502.074    791.269    502.074    532.439    502.074
 93.970    864.574    826.651     37.923    501.925    798.983    501.925    529.530    501.925
 94.070    857.000    832.536     24.464    501.774    807.778    501.774    526.470    501.774
 94.170    859.000    839.844     19.156    501.623    818.005    501.623    523.403    501.623
 94.270    834.434    848.700    -14.266    501.471    829.676    501.471    520.438    501.471
 94.370    895.701    858.755     36.945    501.319    842.360    501.319    517.660    501.319
 94.470    825.724    869.168    -43.444    501.165    855.158    501.165    515.124    501.165
 94.570    952.000    878.666     73.334    501.011    866.768    501.011    512.864    501.011
 94.670    904.000    885.695     18.305    500.857    875.622    500.857    510.890    500.857
 94.770    884.000    888.639     -4.639    500.701    880.110    500.701    509.199    500.701
 94.870    901.000    886.128     14.872    500.545    878.878    500.545    507.772    500.545
 94.970    925.000    877.354     47.646    500.388    871.142    500.388    506.586    500.388
 95.070    907.172    862.289     44.883    500.231    856.906    500.231    505.608    500.231
 95.170    865.000    841.704     23.296    500.073    836.972    500.073    504.807    500.073
 95.270    855.000    817.003     37.997    499.914    812.773    499.914    504.151    499.914
 95.370    839.166    789.964     49.202    499.754    786.117    499.754    503.612    499.754
 95.470    800.000    762.504     37.496    499.594    758.945    499.594    503.165    499.594
 95.570    760.617    736.568     24.049    499.433    733.224    499.433    502.789    499.433
 95.670    768.000    713.951     54.049    499.272    710.764    499.272    502.468    499.272
 95.770    664.330    696.274    -31.943    499.110    693.201    499.110    502.189    499.110
 95.870    680.000    684.960     -4.960    498.948    681.968    498.948    501.940    498.948
 95.970    686.474    681.224      5.250    498.784    678.285    498.784    501.716    498.784
 96.070    632.000    686.074    -54.074    498.621    683.169    498.621    501.511    498.621
 96.170    708.256    700.314      7.942    498.456    697.425    498.456    501.321    498.456
 96.270    765.310    724.528     40.782    498.291    721.641    498.291    501.144    498.291
 96.370    789.000    759.037     29.963    498.126    756.141    498.126    500.977    498.126
 96.470    805.000    803.829      1.171    497.960    800.913    497.960    500.820    497.960
 96.570    847.000    858.465    -11.465    497.794    855.519    497.794    500.672    497.794
 96.670    896.000    921.977    -25.977    497.627    918.993    497.627    500.532    497.627
 96.770   1022.000    992.780     29.220    497.459    989.751    497.459    500.400    497.459
 96.870   1052.881   1068.617    -15.736    497.291   1065.537    497.291    500.277    497.291
 96.970   1093.000   1146.540    -53.539    497.123   1143.402    497.123    500.162    497.123
 97.070   1173.000   1222.952    -49.952    496.954   1219.753    496.954    500.055    496.954
 97.170   1320.000   1293.734     26.266    496.784   1290.468    496.784    499.956    496.784
 97.270   1379.000   1354.483     24.517    496.615   1351.146    496.615    499.867    496.615
 97.370   1404.000   1400.932      3.068    496.444   1397.519    496.444    499.787    496.444
 97.470   1376.941   1429.550    -52.608    496.274   1426.053    496.274    499.718    496.274
 97.570   1502.000   1438.181     63.819    496.102   1434.592    496.102    499.660    496.102
 97.670   1481.000   1426.471     54.529    495.931   1422.778    495.931    499.614    495.931
 97.770   1392.000   1395.895     -3.895    495.759   1392.083    495.759    499.582    495.759
 97.870   1384.384   1349.372     35.012    495.587   1345.422    495.587    499.566    495.587
 97.970   1264.168   1290.693    -26.524    495.414   1286.583    495.414    499.567    495.414
 98.070   1221.000   1223.997     -2.997    495.241   1219.701    495.241    499.590    495.241
 98.170   1117.389   1153.397    -36.008    495.068   1148.883    495.068    499.639    495.068
 98.270   1105.000   1082.727     22.273    494.894   1077.960    494.894    499.721    494.894
 98.370   1016.000   1015.405      0.595    494.720   1010.339    494.720    499.844    494.720
 98.470    951.000    954.345     -3.345    494.546    948.925    494.546    500.019    494.546
 98.570    929.354    901.943     27.411    494.371    896.097    494.371    500.263    494.371
 98.670    745.000    860.089   -115.089    494.196    853.726    494.196    500.596    494.196
 98.770    874.654    830.224     44.430    494.021    823.226    494.021    501.047    494.021
 98.870    754.000    813.408    -59.408    493.846    805.621    493.846    501.650    493.846
 98.970    820.000    810.395      9.605    493.670    801.623    493.670    502.451    493.670
 99.070    837.000    821.691     15.309    493.494    811.681    493.494    503.503    493.494
 99.170    825.000    847.577    -22.577    493.318    836.013    493.318    504.872    493.318
 99.270    848.000    888.150    -40.150    493.142    874.642    493.142    506.634    493.142
 99.370    902.000    943.225    -41.225    492.966    927.298    492.966    508.871    492.966
 99.470   1023.000   1012.275     10.725    492.789    993.366    492.789    511.675    492.789
 99.570   1066.000   1094.357    -28.357    492.612   1071.811    492.612    515.136    492.612
 99.670   1135.000   1188.009    -53.009    492.436   1161.084    492.436    519.342    492.436
 99.770   1323.000   1291.163     31.837    492.259   1259.043    492.259    524.368    492.259
 99.870   1319.000   1401.093    -82.093    492.081   1362.905    492.081    530.269    492.081
 99.970   1519.000   1514.402      4.598    491.904   1469.252    491.904    537.069    491.904
100.070   1551.403   1627.107    -75.704    491.727   1574.113    491.727    544.756    491.727
100.170   1717.000   1734.838    -17.838    491.550   1673.179    491.550    553.266    491.550
100.270   1896.388   1833.165     63.223    491.372   1762.139    491.372    562.481    491.372
100.370   1847.902   1918.004    -70.101    491.195   1837.086    491.195    572.222    491.195
100.470   2039.000   1985.949     53.051    491.017   1894.859    491.017    582.243    491.017
100.570   2084.000   2034.433     49.567    490.840   1933.207    490.840    592.227    490.840
100.670   2119.000   2061.707     57.293    490.663   1950.760    490.663    601.791    490.663
100.770   2058.000   2066.781     -8.781    490.485   1946.975    490.485    610.490    490.485
100.870   2054.000   2049.511      4.489    490.308   1922.189    490.308    617.841    490.308
100.970   2040.000   2010.818     29.182    490.131   1877.805    490.131    623.362    490.131
101.070   1893.000   1952.922    -59.922    489.953   1816.457    489.953    626.639    489.953
101.170   1825.458   1879.341    -53.883    489.776   1741.941    489.776    627.395    489.776
101.270   1790.000   1794.595     -4.595    489.599   1658.854    489.599    625.551    489.599
101.370   1672.588   1703.672    -31.084    489.422   1572.047    489.422    621.246    489.422
101.470   1599.000   1611.457    -12.457    489.246   1486.083    489.246    614.804    489.246
101.570   1581.000   1522.273     58.727    489.069   1404.842    489.069    606.668    489.069
101.670   1402.000   1439.577    -37.577    488.893   1331.295    488.893    597.326    488.893
101.770   1319.273   1365.814    -46.541    488.716   1267.413    488.716    587.254    488.716
101.870   1325.365   1302.378     22.987    488.540   1214.160    488.540    576.880    488.540
101.970   1311.885   1249.641     62.245    488.365   1171.545    488.365    566.570    488.365
102.070   1152.215   1207.051    -54.836    488.189   1138.721    488.189    556.618    488.189
102.170   1164.546   1173.257     -8.710    488.014   1114.111    488.014    547.251    488.014
102.270   1136.000   1146.283    -10.283    487.839   1095.578    487.839    538.631    487.839
102.370   1133.000   1123.742      9.258    487.664   1080.632    487.664    530.859    487.664
102.470   1057.669   1103.100    -45.431    487.490   1066.693    487.490    523.981    487.490
102.570   1040.000   1081.987    -41.987    487.316   1051.387    487.316    518.001    487.316
102.670   1056.525   1058.501     -1.976    487.142   1032.846    487.142    512.883    487.142
102.770   1013.000   1031.433    -18.433    486.968   1009.924    486.968    508.565    486.968
102.870   1020.000   1000.354     19.646    486.795    982.268    486.795    504.968    486.795
102.970    993.000    965.524     27.476    486.623    950.230    486.623    502.003    486.623
103.070    896.000    927.708    -31.708    486.451    914.664    486.451    499.579    486.451
103.170    886.000    887.960     -1.960    486.279    876.713    486.279    497.605    486.279
103.270    804.000    847.439    -43.439    486.108    837.620    486.108    496.001    486.108
103.370    789.000    807.285    -18.285    485.937    798.595    485.937    494.695    485.937
103.470    801.214    768.527     32.687    485.767    760.731    485.767    493.624    485.767
103.570    787.158    732.032     55.126    485.597    724.947    485.597    492.737    485.597
103.670    724.587    698.468     26.120    485.428    691.951    485.428    491.992    485.428
103.770    687.000    668.288     18.712    485.259    662.231    485.259    491.356    485.259
103.870    639.481    641.735     -2.255    485.091    636.057    485.091    490.803    485.091
103.970    652.932    618.860     34.072    484.924    613.496    484.924    490.315    484.924
104.070    582.000    599.549    -17.549    484.757    594.453    484.757    489.876    484.757
104.170    605.000    583.569     21.431    484.591    578.702    484.591    489.475    484.591
104.270    609.207    570.597     38.611    484.425    565.930    484.425    489.106    484.425
104.370    592.000    560.261     31.739    484.261    555.774    484.261    488.757    484.261
104.470    579.000    552.185     26.815    484.096    547.855    484.096    488.434    484.096
104.570    521.891    546.017    -24.126    483.933    541.827    483.933    488.128    483.933
104.670    535.360    541.425     -6.065    483.770    537.360    483.770    487.838    483.770
104.770    530.292    538.128     -7.836    483.608    534.175    483.608    487.562    483.608
104.870    549.000    535.898     13.102    483.447    532.047    483.447    487.298    483.447
104.970    518.890    534.567    -15.677    483.287    530.807    483.287    487.045    483.287
105.070    572.000    534.015     37.985    483.127    530.337    483.127    486.803    483.127
105.170    546.595    534.176     12.419    482.969    530.571    482.969    486.569    482.969
105.270    554.378    535.021     19.357    482.811    531.490    482.811    486.336    482.811
105.370    503.618    536.583    -32.965    482.654    533.111    482.654    486.119    482.654
105.470    550.631    538.910     11.721    482.498    535.488    482.498    485.910    482.498
105.570    509.000    542.078    -33.078    482.343    538.700    482.343    485.709    482.343
105.670    544.000    546.183     -2.183    482.189    542.843    482.189    485.515    482.189
105.770    604.000    551.325     52.675    482.036    548.016    482.036    485.328    482.036
105.870    516.000    557.592    -41.592    481.884    554.309    481.884    485.147    481.884
105.970    609.156    565.049     44.107    481.732    561.787    481.732    484.972    481.732
106.070    559.000    573.722    -14.722    481.582    570.476    481.582    484.803    481.582
106.170    580.397    583.584     -3.187    481.433    580.350    481.433    484.640    481.433
106.270    588.000    594.550     -6.550    481.286    591.322    481.286    484.482    481.286
106.370    557.000    606.466    -49.466    481.139    603.240    481.139    484.329    481.139
106.470    551.000    619.110    -68.110    480.993    615.882    480.993    484.183    480.993
106.570    598.417    632.192    -33.776    480.849    628.959    480.849    484.041    480.849
106.670    625.000    645.364    -20.364    480.705    642.122    480.705    483.904    480.705
106.770    614.000    658.228    -44.228    480.563    654.974    480.563    483.773    480.563
106.870    631.000    670.355    -39.355    480.422    667.085    480.422    483.647    480.422
106.970    624.000    681.312    -57.312    480.283    678.024    480.283    483.526    480.283
107.070    722.585    690.699     31.886    480.145    687.390    480.145    483.410    480.145
107.170    706.000    698.200      7.800    480.008    694.867    480.008    483.299    480.008
107.270    698.000    703.631     -5.631    479.872    700.271    479.872    483.193    479.872
107.370    689.000    706.984    -17.984    479.738    703.593    479.738    483.093    479.738
107.470    762.857    708.431     54.427    479.605    705.006    479.605    482.998    479.605
107.570    699.342    708.299     -8.956    479.473    704.836    479.473    482.909    479.473
107.670    748.989    707.014     41.975    479.343    703.509    479.343    482.825    479.343
107.770    698.000    705.037     -7.037    479.215    701.487    479.215    482.746    479.215
107.870    675.582    702.806    -27.224    479.087    699.206    479.087    482.674    479.087
107.970    749.052    700.691     48.361    478.962    697.036    478.962    482.607    478.962
108.070    652.638    698.962    -46.324    478.838    695.247    478.838    482.547    478.838
108.170    711.000    697.774     13.226    478.715    693.995    478.715    482.493    478.715
108.270    718.000    697.158     20.842    478.594    693.309    478.594    482.445    478.594
108.370    702.403    697.019      5.384    478.475    693.095    478.475    482.404    478.475
108.470    717.932    697.147     20.785    478.357    693.143    478.357    482.370    478.357
108.570    663.461    697.233    -33.773    478.241    693.143    478.241    482.344    478.241
108.670    646.000    696.900    -50.900    478.127    692.717    478.127    482.325    478.127
108.770    698.430    695.748      2.682    478.014    691.466    478.014    482.314    478.014
108.870    670.000    693.405    -23.405    477.903    689.018    477.903    482.311    477.903
108.970    678.156    689.587    -11.431    477.794    685.087    477.794    482.317    477.794
109.070    696.000    684.140     11.860    477.687    679.518    477.687    482.332    477.687
109.170    653.101    677.057    -23.956    477.581    672.306    477.581    482.357    477.581
109.270    665.000    668.476     -3.476    477.478    663.587    477.478    482.392    477.478
109.370    652.000    658.640     -6.640    477.376    653.603    477.376    482.438    477.376
109.470    673.000    647.862     25.138    477.276    642.667    477.276    482.495    477.276
109.570    682.774    636.482     46.292    477.178    631.119    477.178    482.564    477.178
109.670    581.235    624.843    -43.608    477.082    619.300    477.082    482.646    477.082
109.770    656.000    613.263     42.737    476.988    607.529    476.988    482.742    476.988
109.870    634.000    602.009     31.991    476.897    596.071    476.897    482.852    476.897
109.970    616.000    591.354     24.646    476.807    585.197    476.807    482.979    476.807
110.070    536.111    581.512    -45.401    476.719    575.121    476.719    483.123    476.719
110.170    612.000    572.612     39.388    476.633    565.970    476.633    483.286    476.633
110.270    523.738    564.748    -41.010    476.550    557.835    476.550    483.471    476.550
110.370    557.000    557.969     -0.969    476.468    550.765    476.468    483.679    476.468
110.470    586.106    552.283     33.822    476.389    544.763    476.389    483.914    476.389
110.570    560.000    547.664     12.336    476.312    539.799    476.312    484.180    476.312
110.670    565.000    544.056     20.944    476.238    535.813    476.238    484.481    476.238
110.770    572.110    541.386     30.724    476.165    532.726    476.165    484.825    476.165
110.870    587.000    539.570     47.430    476.095    530.444    476.095    485.220    476.095
110.970    520.000    538.520    -18.520    476.027    528.870    476.027    485.675    476.027
111.070    536.000    538.150     -2.150    475.962    527.904    475.962    486.205    475.962
111.170    587.645    538.382     49.263    475.899    527.451    475.899    486.825    475.899
111.270    515.532    539.149    -23.616    475.838    527.425    475.838    487.557    475.838
111.370    579.000    540.397     38.603    475.780    527.745    475.780    488.426    475.780
111.470    528.510    542.090    -13.579    475.725    528.343    475.725    489.465    475.725
111.570    561.000    544.208     16.792    475.672    529.160    475.672    490.712    475.672
111.670    534.074    546.748    -12.674    475.621    530.148    475.621    492.213    475.621
111.770    505.025    549.729    -44.704    475.573    531.272    475.573    494.022    475.573
111.870    546.000    553.187     -7.187    475.528    532.504    475.528    496.202    475.528
111.970    568.000    557.179     10.821    475.486    533.829    475.486    498.825    475.486
112.070    596.000    561.780     34.220    475.446    535.244    475.446    501.972    475.446
112.170    553.000    567.084    -14.084    475.409    536.752    475.409    505.730    475.409
112.270    580.000    573.200      6.800    475.374    538.370    475.374    510.193    475.374
112.370    546.000    580.247    -34.247    475.342    540.119    475.342    515.459    475.342
112.470    573.657    588.355    -14.699    475.314    542.031    475.314    521.626    475.314
112.570    582.000    597.659    -15.659    475.288    544.145    475.288    528.789    475.288
112.670    595.000    608.296    -13.296    475.265    546.512    475.265    537.035    475.265
112.770    621.000    620.402      0.598    475.244    549.195    475.244    546.437    475.244
112.870    665.000    634.112     30.888    475.227    552.276    475.227    557.049    475.227
112.970    644.000    649.561     -5.561    475.213    555.859    475.213    568.899    475.213
113.070    681.000    666.884     14.116    475.202    560.084    475.202    581.983    475.202
113.170    741.000    686.221     54.779    475.194    565.133    475.194    596.262    475.194
113.270    655.662    707.729    -52.068    475.188    571.246    475.188    611.650    475.188
113.370    706.000    731.591    -25.591    475.186    578.737    475.186    628.016    475.186
113.470    804.000    758.031     45.969    475.188    588.013    475.188    645.177    475.188
113.570    725.000    787.340    -62.340    475.192    599.602    475.192    662.898    475.192
113.670    798.000    819.892    -21.892    475.200    614.171    475.200    680.883    475.200
113.770    865.000    856.179      8.821    475.210    632.561    475.210    698.785    475.210
113.870    917.000    896.833     20.167    475.225    655.808    475.225    716.199    475.225
113.970    932.247    942.659    -10.412    475.242    685.172    475.242    732.669    475.242
114.070   1001.000    994.665      6.335    475.263    722.155    475.263    747.701    475.263
114.170   1095.765   1054.096     41.668    475.287    768.519    475.287    760.779    475.287
114.270   1068.000   1122.461    -54.461    475.315    826.276    475.315    771.397    475.315
114.370   1169.000   1201.559    -32.559    475.346    897.682    475.346    779.099    475.346
114.470   1308.000   1293.488     14.512    475.381    985.193    475.381    783.527    475.381
114.570   1484.000   1400.627     83.373    475.419   1091.406    475.419    784.463    475.419
114.670   1536.000   1525.577     10.423    475.460   1218.967    475.460    781.861    475.460
114.770   1718.227   1671.054     47.173    475.506   1370.459    475.506    775.854    475.506
114.870   1850.000   1839.716     10.284    475.555   1548.250    475.555    766.734    475.555
114.970   2190.000   2033.967    156.033    475.608   1754.329    475.608    754.913    475.608
115.070   2165.253   2255.713    -90.459    475.664   1990.119    475.664    740.878    475.664
115.170   2590.007   2506.131     83.876    475.724   2256.281    475.724    725.145    475.724
115.270   2819.000   2785.443     33.557    475.788   2552.529    475.788    708.222    475.788
115.370   3089.000   3092.713     -3.713    475.856   2877.453    475.856    690.588    475.856
115.470   3340.579   3425.699    -85.120    475.928   3228.381    475.928    672.672    475.928
115.570   3853.796   3780.746     73.050    476.003   3601.283    476.003    654.853    476.003
115.670   4065.000   4152.739    -87.739    476.083   3990.723    476.083    637.452    476.083
115.770   4589.997   4535.124     54.873    476.166   4389.885    476.166    620.735    476.166
115.870   5004.605   4919.989     84.616    476.254   4790.651    476.254    604.911    476.254
115.970   5145.000   5298.226   -153.226    476.346   5183.755    476.346    590.138    476.346
116.070   5680.809   5659.757     21.052    476.441   5559.014    476.441    576.523    476.441
116.170   5998.000   5993.853      4.147    476.541   5905.639    476.541    564.128    476.541
116.270   6218.000   6289.558    -71.558    476.645   6212.652    476.645    552.976    476.645
116.370   6560.483   6536.235     24.248    476.754   6469.428    476.754    543.052    476.754
116.470   6918.000   6724.242    193.758    476.866   6666.367    476.866    534.316    476.866
116.570   6987.654   6845.699    141.955    476.983   6795.649    476.983    526.704    476.983
116.670   6976.777   6895.236     81.541    477.104   6851.982    477.104    520.134    477.104
116.770   6945.000   6870.570     74.430    477.230   6833.169    477.230    514.516    477.230
116.870   6785.000   6772.758     12.242    477.360   6740.360    477.360    509.752    477.360
116.970   6639.016   6606.047     32.969    477.494   6577.893    477.494    505.744    477.494
117.070   6348.000   6377.391    -29.391    477.633   6352.818    477.633    502.396    477.633
117.170   6142.120   6095.773     46.347    477.776   6074.202    477.776    499.617    477.776
117.270   5633.773   5771.345   -137.572    477.925   5752.282    477.925    497.322    477.925
117.370   5290.000   5414.802   -124.802    478.077   5397.828    478.077    495.436    478.077
117.470   4952.000   5036.795    -84.795    478.235   5021.557    478.235    493.890    478.235
117.570   4617.000   4647.473    -30.473    478.397   4633.680    478.397    492.627    478.397
117.670   4217.000   4256.155    -39.155    478.563   4243.564    478.563    491.597    478.563
117.770   3971.608   3871.076    100.532    478.735   3859.490    478.735    490.756    478.735
117.870   3593.000   3499.230     93.770    478.911   3488.488    478.911    490.071    478.911
117.970   3197.000   3146.270     50.730    479.093   3136.242    479.093    489.512    479.093
118.070   2904.000   2816.493     87.507    479.279   2807.075    479.279    489.057    479.279
118.170   2644.000   2512.876    131.124    479.470   2503.984    479.470    488.686    479.470
118.270   2243.000   2237.173      5.827    479.666   2228.740    479.666    488.385    479.666
118.370   1980.511   1990.045     -9.534    479.867   1982.018    479.867    488.142    479.867
118.470   1771.000   1771.221     -0.221    480.074   1763.556    480.074    487.949    480.074
118.570   1574.000   1579.671     -5.671    480.285   1572.334    480.285    487.797    480.285
118.670   1473.881   1413.782     60.099    480.502   1406.745    480.502    487.682    480.502
118.770   1202.789   1271.529    -68.740    480.723   1264.769    480.723    487.598    480.723
118.870   1125.000   1150.637    -25.637    480.951   1144.133    480.951    487.544    480.951
118.970   1007.000   1048.716    -41.716    481.183   1042.453    481.183    487.515    481.183
119.070    957.135    963.384     -6.249    481.421    957.346    481.421    487.510    481.421
119.170    952.488    892.354     60.134    481.664    886.527    481.664    487.528    481.664
119.270    806.000    833.502    -27.502    481.912    827.873    481.912    487.567    481.912
119.370    755.607    784.906    -29.299    482.166    779.465    482.166    487.625    482.166
119.470    693.641    744.871    -51.230    482.426    739.605    482.426    487.703    482.426
119.570    696.000    711.930    -15.930    482.691    706.828    482.691    487.800    482.691
119.670    653.000    684.837    -31.837    482.962    679.888    482.962    487.915    482.962
119.770    636.000    662.550    -26.550    483.238    657.743    483.238    488.048    483.238
119.870    604.437    644.212    -39.775    483.520    639.534    483.520    488.200    483.520
119.970    679.409    629.122     50.287    483.808    624.562    483.808    488.369    483.808
120.070    580.272    616.719    -36.447    484.102    612.265    484.102    488.558    484.102
120.170    584.000    606.553    -22.553    484.401    602.192    484.401    488.765    484.401
120.270    616.213    598.269     17.945    484.706    593.986    484.706    488.991    484.706
120.370    564.088    591.585    -27.496    485.018    587.368    485.018    489.237    485.018
120.470    574.000    586.281    -12.281    485.335    582.115    485.335    489.504    485.335
120.570    599.607    582.187     17.421    485.658    578.056    485.658    489.792    485.658
120.670    574.637    579.167     -4.530    485.988    575.056    485.988    490.103    485.988
120.770    558.000    577.118    -19.118    486.323    573.009    486.323    490.437    486.323
120.870    532.000    575.955    -43.955    486.665    571.831    486.665    490.795    486.665
120.970    597.000    575.612     21.388    487.013    571.454    487.013    491.178    487.013
121.070    567.000    576.033     -9.033    487.367    571.822    487.367    491.586    487.367
121.170    556.295    577.168    -20.873    487.728    572.884    487.728    492.021    487.728
121.270    546.609    578.969    -32.360    488.095    574.592    488.095    492.482    488.095
121.370    595.000    581.388     13.612    488.468    576.899    488.468    492.970    488.468
121.470    619.079    584.375     34.704    488.848    579.753    488.848    493.484    488.848
121.570    567.000    587.874    -20.874    489.234    583.099    489.234    494.025    489.234
121.670    594.539    591.820      2.719    489.627    586.874    489.627    494.590    489.627
121.770    645.474    596.141     49.333    490.026    591.008    490.026    495.180    490.026
121.870    632.000    600.757     31.243    490.432    595.420    490.432    495.792    490.432
121.970    616.000    605.576     10.424    490.845    600.025    490.845    496.422    490.845
122.070    593.808    610.503    -16.695    491.265    604.726    491.265    497.071    491.265
122.170    629.500    615.432     14.068    491.691    609.421    491.691    497.734    491.691
122.270    601.691    620.249    -18.558    492.124    614.001    492.124    498.407    492.124
122.370    601.486    624.840    -23.354    492.565    618.355    492.565    499.086    492.565
122.470    591.410    629.088    -37.678    493.012    622.373    493.012    499.766    493.012
122.570    643.000    632.883     10.117    493.466    625.948    493.466    500.442    493.466
122.670    628.000    636.120     -8.120    493.927    628.983    493.927    501.108    493.927
122.770    591.187    638.714    -47.527    494.395    631.396    494.395    501.759    494.395
122.870    694.000    640.598     53.402    494.871    633.128    494.871    502.387    494.871
122.970    649.287    641.729      7.558    495.353    634.141    495.353    502.989    495.353
123.070    616.667    642.094    -25.427    495.843    634.427    495.843    503.558    495.843
123.170    650.601    641.707      8.894    496.341    634.004    496.341    504.091    496.341
123.270    654.585    640.604     13.981    496.845    632.911    496.845    504.585    496.845
123.370    622.000    638.844    -16.844    497.357    631.207    497.357    505.040    497.357
123.470    634.000    636.498     -2.498    497.877    628.964    497.877    505.455    497.877
123.570    640.000    633.650      6.350    498.404    626.261    498.404    505.834    498.404
123.670    639.000    630.386      8.614    498.938    623.184    498.938    506.180    498.938
123.770    669.384    626.795     42.589    499.481    619.815    499.481    506.498    499.481
123.870    596.000    622.964    -26.964    500.031    616.235    500.031    506.793    500.031
123.970    603.439    618.972    -15.532    500.588    612.519    500.588    507.072    500.588
124.070    647.000    614.892     32.108    501.154    608.734    501.154    507.340    501.154
124.170    587.530    610.790    -23.260    501.727    604.938    501.727    507.603    501.727
124.270    620.000    606.716     13.284    502.308    601.180    502.308    507.866    502.308
124.370    641.000    602.714     38.286    502.898    597.496    502.898    508.135    502.898
124.470    607.438    598.814      8.625    503.495    593.912    503.495    508.413    503.495
124.570    587.000    595.035     -8.035    504.100    590.445    504.100    508.704    504.100
124.670    586.000    591.390     -5.390    504.714    587.103    504.714    509.011    504.714
124.770    592.000    587.881      4.119    505.335    583.887    505.335    509.338    505.335
124.870    620.000    584.508     35.492    505.965    580.793    505.965    509.687    505.965
124.970    575.160    581.264     -6.105    506.603    577.815    506.603    510.059    506.603
