neutron_powder_diffraction_0158
R_wp: 3.969
Temperature (K): 1074.000
Counts: 83684.00
Wavelength (Ã…): 2.52098
COMMENTS
Test file for demonstrating the .xyy file format in Reel1.0
END OF HEADER
   tth       Y_obs     Y_calc      Y_res    Background    Phase_1_Nuc    Phase_1_Mag    Phase_2_Nuc    Phase_2_Mag
  9.970    605.000    571.082     33.918    570.389    571.030    570.389    570.440    570.389
 10.070    530.689    571.176    -40.487    570.427    571.124    570.427    570.478    570.427
 10.170    594.000    571.272     22.728    570.460    571.220    570.460    570.512    570.460
 10.270    534.791    571.373    -36.582    570.488    571.321    570.488    570.540    570.488
 10.370    607.000    571.481     35.519    570.511    571.428    570.511    570.562    570.511
 10.470    572.000    571.598      0.402    570.528    571.545    570.528    570.580    570.528
 10.570    562.000    571.728     -9.728    570.540    571.675    570.540    570.593    570.540
 10.670    623.000    571.875     51.125    570.547    571.822    570.547    570.600    570.547
 10.770    528.997    572.047    -43.050    570.550    571.993    570.550    570.602    570.550
 10.870    599.000    572.251     26.749    570.547    572.197    570.547    570.600    570.547
 10.970    570.000    572.500     -2.500    570.539    572.446    570.539    570.592    570.539
 11.070    585.000    572.811     12.189    570.526    572.756    570.526    570.580    570.526
 11.170    605.000    573.208     31.792    570.509    573.153    570.509    570.562    570.509
 11.270    612.000    573.731     38.269    570.486    573.676    570.486    570.540    570.486
 11.370    582.771    574.448      8.322    570.459    574.392    570.459    570.513    570.459
 11.470    562.185    575.502    -13.317    570.427    575.443    570.427    570.483    570.427
 11.570    597.000    577.296     19.704    570.391    577.236    570.391    570.447    570.391
 11.670    596.000    580.982     15.018    570.350    580.920    570.350    570.406    570.350
 11.770    589.535    589.243      0.293    570.304    589.176    570.304    570.361    570.304
 11.870    573.059    606.411    -33.352    570.254    606.335    570.254    570.311    570.254
 11.970    669.000    635.863     33.137    570.199    635.770    570.199    570.256    570.199
 12.070    674.000    673.811      0.189    570.140    673.696    570.140    570.198    570.140
 12.170    678.000    703.664    -25.664    570.077    703.533    570.077    570.134    570.077
 12.270    666.000    704.573    -38.573    570.009    704.441    570.009    570.067    570.009
 12.370    665.000    675.657    -10.657    569.937    675.541    569.937    569.995    569.937
 12.470    627.000    637.402    -10.402    569.861    637.307    569.861    569.919    569.861
 12.570    568.210    607.144    -38.934    569.780    607.065    569.780    569.839    569.780
 12.670    542.000    589.250    -47.250    569.696    589.180    569.696    569.755    569.696
 12.770    522.000    580.521    -58.521    569.607    580.456    569.607    569.667    569.607
 12.870    570.000    576.559     -6.559    569.515    576.496    569.515    569.574    569.515
 12.970    613.054    574.580     38.474    569.418    574.517    569.418    569.478    569.418
 13.070    606.598    573.375     33.223    569.317    573.312    569.317    569.378    569.317
 13.170    576.917    572.518      4.399    569.213    572.456    569.213    569.273    569.213
 13.270    567.000    571.859     -4.859    569.104    571.796    569.104    569.165    569.104
 13.370    584.000    571.328     12.672    568.992    571.266    568.992    569.053    568.992
 13.470    591.000    570.887     20.113    568.876    570.825    568.876    568.938    568.876
 13.570    529.908    570.510    -40.603    568.757    570.448    568.757    568.818    568.757
 13.670    535.000    570.180    -35.180    568.633    570.117    568.633    568.695    568.633
 13.770    563.000    569.884     -6.884    568.506    569.821    568.506    568.568    568.506
 13.870    545.060    569.615    -24.554    568.375    569.551    568.375    568.438    568.375
 13.970    561.510    569.364     -7.854    568.241    569.301    568.241    568.304    568.241
 14.070    590.000    569.129     20.871    568.104    569.065    568.104    568.167    568.104
 14.170    617.000    568.905     48.095    567.962    568.841    567.962    568.026    567.962
 14.270    560.217    568.689     -8.472    567.818    568.625    567.818    567.882    567.818
 14.370    583.000    568.480     14.520    567.670    568.415    567.670    567.734    567.670
 14.470    590.973    568.275     22.698    567.518    568.211    567.518    567.583    567.518
 14.570    598.465    568.078     30.388    567.364    568.012    567.364    567.429    567.364
 14.670    548.000    567.885    -19.885    567.206    567.815    567.206    567.275    567.206
 14.770    531.798    567.690    -35.891    567.045    567.618    567.045    567.116    567.045
 14.870    517.000    567.494    -50.494    566.880    567.422    566.880    566.952    566.880
 14.970    552.426    567.299    -14.873    566.713    567.227    566.713    566.785    566.713
 15.070    587.724    567.104     20.620    566.542    567.031    566.542    566.615    566.542
 15.170    560.000    566.908     -6.908    566.369    566.835    566.369    566.441    566.369
 15.270    560.000    566.712     -6.712    566.192    566.639    566.192    566.265    566.192
 15.370    560.000    566.515     -6.515    566.013    566.441    566.013    566.086    566.013
 15.470    601.277    566.317     34.961    565.830    566.242    565.830    565.904    565.830
 15.570    551.465    566.117    -14.652    565.645    566.043    565.645    565.719    565.645
 15.670    555.000    565.916    -10.916    565.456    565.841    565.456    565.531    565.456
 15.770    519.897    565.714    -45.817    565.265    565.639    565.265    565.340    565.265
 15.870    548.000    565.511    -17.511    565.071    565.435    565.071    565.147    565.071
 15.970    571.000    565.307      5.693    564.875    565.231    564.875    564.951    564.875
 16.070    570.000    565.100      4.900    564.675    565.023    564.675    564.752    564.675
 16.170    594.000    564.890     29.110    564.473    564.813    564.473    564.550    564.473
 16.270    539.000    564.679    -25.679    564.269    564.602    564.269    564.346    564.269
 16.370    562.000    564.466     -2.466    564.062    564.388    564.062    564.139    564.062
 16.470    563.000    564.252     -1.252    563.852    564.173    563.852    563.930    563.852
 16.570    559.000    564.035     -5.035    563.640    563.956    563.640    563.718    563.640
 16.670    507.000    563.817    -56.817    563.425    563.737    563.425    563.504    563.425
 16.770    570.143    563.596      6.547    563.208    563.516    563.208    563.287    563.208
 16.870    538.578    563.374    -24.796    562.988    563.293    562.988    563.068    562.988
 16.970    552.027    563.149    -11.123    562.766    563.068    562.766    562.847    562.766
 17.070    604.000    562.923     41.077    562.542    562.842    562.542    562.623    562.542
 17.170    556.676    562.695     -6.019    562.315    562.613    562.315    562.397    562.315
 17.270    584.000    562.465     21.535    562.087    562.383    562.087    562.169    562.087
 17.370    595.010    562.236     32.774    561.856    562.153    561.856    561.939    561.856
 17.470    595.529    562.002     33.527    561.622    561.919    561.622    561.706    561.622
 17.570    583.099    561.767     21.332    561.387    561.683    561.387    561.471    561.387
 17.670    553.000    561.530     -8.530    561.150    561.445    561.150    561.234    561.150
 17.770    539.000    561.291    -22.291    560.910    561.206    560.910    560.995    560.910
 17.870    559.000    561.050     -2.050    560.669    560.964    560.669    560.754    560.669
 17.970    536.000    560.808    -24.808    560.425    560.721    560.425    560.511    560.425
 18.070    516.542    560.564    -44.021    560.180    560.477    560.180    560.266    560.180
 18.170    551.728    560.318     -8.590    559.932    560.231    559.932    560.020    559.932
 18.270    557.000    560.071     -3.071    559.683    559.983    559.683    559.771    559.683
 18.370    602.007    559.822     42.184    559.432    559.734    559.432    559.520    559.432
 18.470    597.000    559.572     37.428    559.178    559.483    559.178    559.268    559.178
 18.570    586.348    559.320     27.028    558.924    559.230    558.924    559.014    558.924
 18.670    527.000    559.067    -32.067    558.667    558.976    558.667    558.758    558.667
 18.770    545.551    558.812    -13.261    558.409    558.720    558.409    558.500    558.409
 18.870    577.000    558.555     18.445    558.149    558.463    558.149    558.241    558.149
 18.970    536.000    558.298    -22.298    557.887    558.205    557.887    557.980    557.887
 19.070    544.000    558.038    -14.038    557.624    557.945    557.624    557.717    557.624
 19.170    568.382    557.778     10.604    557.359    557.684    557.359    557.453    557.359
 19.270    564.000    557.517      6.483    557.092    557.422    557.092    557.187    557.092
 19.370    544.000    557.256    -13.256    556.824    557.160    556.824    556.920    556.824
 19.470    547.741    556.992     -9.250    556.554    556.895    556.554    556.651    556.554
 19.570    593.842    556.727     37.116    556.283    556.629    556.283    556.381    556.283
 19.670    572.000    556.462     15.538    556.011    556.362    556.011    556.111    556.011
 19.770    561.000    556.196      4.804    555.737    556.094    555.737    555.839    555.737
 19.870    569.000    555.929     13.071    555.462    555.826    555.462    555.565    555.462
 19.970    508.000    555.673    -47.673    555.185    555.569    555.185    555.289    555.185
 20.070    554.475    555.413     -0.938    554.907    555.309    554.907    555.012    554.907
 20.170    538.005    555.143    -17.138    554.628    555.038    554.628    554.734    554.628
 20.270    592.243    554.872     37.371    554.348    554.765    554.348    554.454    554.348
 20.370    571.000    554.599     16.401    554.066    554.492    554.066    554.173    554.066
 20.470    516.000    554.326    -38.326    553.783    554.218    553.783    553.891    553.783
 20.570    545.000    554.053     -9.053    553.499    553.944    553.499    553.608    553.499
 20.670    549.000    553.779     -4.779    553.214    553.669    553.214    553.324    553.214
 20.770    538.000    553.505    -15.505    552.928    553.393    552.928    553.039    552.928
 20.870    547.000    553.230     -6.230    552.640    553.117    552.640    552.753    552.640
 20.970    586.523    552.955     33.568    552.352    552.841    552.352    552.465    552.352
 21.070    556.000    552.688      3.312    552.062    552.573    552.062    552.177    552.062
 21.170    514.000    552.497    -38.497    551.772    552.381    551.772    551.888    551.772
 21.270    550.000    552.244     -2.244    551.481    552.127    551.481    551.598    551.481
 21.370    524.326    551.971    -27.645    551.188    551.852    551.188    551.307    551.188
 21.470    514.972    551.696    -36.724    550.895    551.576    550.895    551.015    550.895
 21.570    560.235    551.422      8.813    550.601    551.301    550.601    550.722    550.601
 21.670    522.658    551.149    -28.491    550.306    551.026    550.306    550.429    550.306
 21.770    577.000    550.876     26.124    550.010    550.753    550.010    550.134    550.010
 21.870    514.000    550.607    -36.607    549.714    550.481    549.714    549.839    549.714
 21.970    580.000    550.358     29.642    549.416    550.231    549.416    549.543    549.416
 22.070    506.000    550.118    -44.118    549.118    549.989    549.118    549.247    549.118
 22.170    548.000    549.854     -1.854    548.820    549.724    548.820    548.950    548.820
 22.270    518.000    549.594    -31.594    548.520    549.463    548.520    548.652    548.520
 22.370    529.461    549.379    -19.918    548.220    549.245    548.220    548.353    548.220
 22.470    536.000    549.142    -13.142    547.919    549.007    547.919    548.054    547.919
 22.570    579.169    548.894     30.275    547.618    548.757    547.618    547.755    547.618
 22.670    572.000    548.646     23.354    547.316    548.507    547.316    547.455    547.316
 22.770    515.000    548.403    -33.403    547.013    548.263    547.013    547.154    547.013
 22.870    602.000    548.168     53.832    546.710    548.026    546.710    546.853    546.710
 22.970    585.351    547.942     37.409    546.407    547.797    546.407    546.552    546.407
 23.070    583.000    547.727     35.273    546.103    547.580    546.103    546.250    546.103
 23.170    541.000    547.525     -6.525    545.798    547.376    545.798    545.948    545.798
 23.270    539.000    547.341     -8.341    545.494    547.190    545.494    545.646    545.494
 23.370    532.791    547.179    -14.389    545.188    547.026    545.188    545.343    545.188
 23.470    511.684    547.048    -35.364    544.883    546.892    544.883    545.040    544.883
 23.570    575.000    546.952     28.048    544.577    546.793    544.577    544.736    544.577
 23.670    530.000    546.905    -16.905    544.270    546.744    544.270    544.433    544.270
 23.770    554.000    546.928      7.072    543.964    546.764    543.964    544.129    543.964
 23.870    570.293    547.050     23.243    543.657    546.883    543.657    543.825    543.657
 23.970    504.291    547.325    -43.035    543.350    547.156    543.350    543.521    543.350
 24.070    553.000    547.882      5.118    543.042    547.710    543.042    543.217    543.042
 24.170    587.000    549.085     37.915    542.734    548.910    542.734    542.913    542.734
 24.270    574.074    551.903     22.171    542.427    551.727    542.427    542.609    542.427
 24.370    623.000    558.366     64.634    542.119    558.191    542.119    542.305    542.119
 24.470    617.459    571.279     46.179    541.811    571.109    541.811    542.001    541.811
 24.570    629.164    592.025     37.140    541.502    591.865    541.502    541.697    541.502
 24.670    644.129    616.548     27.582    541.194    616.402    541.194    541.393    541.194
 24.770    615.000    632.793    -17.793    540.886    632.654    540.886    541.090    540.886
 24.870    607.562    628.827    -21.265    540.577    628.681    540.577    540.786    540.577
 24.970    628.000    607.880     20.120    540.269    607.713    540.269    540.483    540.269
 25.070    584.599    583.342      1.256    539.960    583.152    539.960    540.180    539.960
 25.170    568.000    564.603      3.397    539.652    564.394    539.652    539.878    539.652
 25.270    525.000    553.523    -28.523    539.343    553.299    539.343    539.576    539.343
 25.370    578.915    547.955     30.960    539.035    547.721    539.035    539.275    539.035
 25.470    562.000    545.272     16.728    538.727    545.029    538.727    538.974    538.727
 25.570    523.000    543.825    -20.825    538.418    543.572    538.418    538.673    538.418
 25.670    569.000    542.883     26.117    538.110    542.621    538.110    538.374    538.110
 25.770    549.000    542.181      6.819    537.802    541.910    537.802    538.075    537.802
 25.870    541.000    541.619     -0.619    537.495    541.338    537.495    537.777    537.495
 25.970    530.549    541.157    -10.608    537.187    540.866    537.187    537.479    537.187
 26.070    583.000    540.774     42.226    536.880    540.471    536.880    537.183    536.880
 26.170    514.195    540.479    -26.284    536.572    540.164    536.572    536.888    536.572
 26.270    552.000    540.235     11.765    536.266    539.906    536.266    536.595    536.266
 26.370    510.000    540.019    -30.019    535.959    539.676    535.959    536.302    535.959
 26.470    570.472    539.855     30.618    535.653    539.496    535.653    536.012    535.653
 26.570    562.000    539.745     22.255    535.346    539.369    535.346    535.723    535.346
 26.670    587.000    539.686     47.314    535.041    539.291    535.041    535.436    535.041
 26.770    587.039    539.691     47.347    534.735    539.276    534.735    535.151    534.735
 26.870    540.000    539.781      0.219    534.430    539.343    534.430    534.869    534.430
 26.970    563.000    539.985     23.015    534.126    539.521    534.126    534.589    534.126
 27.070    528.000    540.310    -12.310    533.821    539.818    533.821    534.313    533.821
 27.170    510.105    540.771    -30.665    533.517    540.247    533.517    534.040    533.517
 27.270    549.000    541.443      7.557    533.214    540.884    533.214    533.772    533.214
 27.370    576.000    542.416     33.584    532.911    541.818    532.911    533.509    532.911
 27.470    558.000    543.847     14.153    532.609    543.203    532.609    533.251    532.609
 27.570    586.722    546.147     40.575    532.307    545.451    532.307    533.000    532.307
 27.670    546.000    550.746     -4.746    532.005    549.991    532.005    532.756    532.005
 27.770    555.000    562.381     -7.381    531.704    561.555    531.704    532.523    531.704
 27.870    602.000    592.738      9.262    531.404    591.824    531.404    532.300    531.404
 27.970    698.000    659.482     38.518    531.104    658.455    531.104    532.091    531.104
 28.070    782.000    769.851     12.149    530.805    768.686    530.805    531.899    530.805
 28.170    888.000    892.534     -4.534    530.506    891.215    530.506    531.727    530.506
 28.270    973.857    952.978     20.879    530.208    951.508    530.208    531.582    530.208
 28.370    902.000    902.092     -0.092    529.910    900.471    529.910    531.471    529.910
 28.470    774.000    792.248    -18.248    529.613    790.430    529.613    531.406    529.613
 28.570    709.000    706.979      2.021    529.317    704.878    529.317    531.406    529.317
 28.670    713.000    689.434     23.566    529.022    686.939    529.022    531.502    529.022
 28.770    785.725    734.879     50.846    528.727    731.843    528.727    531.745    528.727
 28.870    773.000    803.412    -30.412    528.433    799.617    528.433    532.215    528.433
 28.970    734.000    835.688   -101.688    528.139    830.801    528.139    533.029    528.139
 29.070    747.000    796.611    -49.611    527.847    790.139    527.847    534.332    527.847
 29.170    692.000    716.626    -24.626    527.555    707.915    527.555    536.278    527.555
 29.270    601.000    642.855    -41.855    527.264    631.149    527.264    538.978    527.264
 29.370    601.000    596.669      4.331    526.973    581.246    526.973    542.399    526.973
 29.470    550.507    575.518    -25.011    526.684    556.021    526.684    546.181    526.684
 29.570    564.415    568.038     -3.624    526.395    545.031    526.395    549.402    526.395
 29.670    616.000    564.742     51.258    526.107    540.148    526.107    550.701    526.107
 29.770    560.000    560.981     -0.981    525.820    537.527    525.820    549.273    525.820
 29.870    547.438    556.017     -8.579    525.534    535.824    525.534    545.726    525.534
 29.970    568.000    550.780     17.220    525.249    534.626    525.249    541.401    525.249
 30.070    567.915    546.150     21.765    524.964    533.801    524.964    537.312    524.964
 30.170    579.000    542.548     36.452    524.681    533.324    524.681    533.903    524.681
 30.270    584.000    540.163     43.837    524.398    533.305    524.398    531.253    524.398
 30.370    563.806    539.342     24.464    524.117    534.184    524.117    529.271    524.117
 30.470    578.000    541.095     36.905    523.836    537.119    523.836    527.806    523.836
 30.570    528.000    547.410    -19.410    523.556    544.245    523.556    526.710    523.556
 30.670    606.098    560.478     45.619    523.277    557.874    523.277    525.859    523.277
 30.770    552.086    580.111    -28.024    522.999    577.904    522.999    525.169    522.999
 30.870    587.798    600.455    -12.657    522.723    598.544    522.723    524.582    522.723
 30.970    607.247    609.730     -2.483    522.447    608.056    522.447    524.066    522.447
 31.070    607.000    600.148      6.852    522.172    598.677    522.172    523.598    522.172
 31.170    613.000    578.928     34.072    521.898    577.630    521.898    523.168    521.898
 31.270    558.000    557.850      0.150    521.625    556.695    521.625    522.765    521.625
 31.370    537.000    543.013     -6.013    521.354    541.974    521.354    522.384    521.354
 31.470    516.554    534.729    -18.174    521.083    533.786    521.083    522.021    521.083
 31.570    550.000    530.731     19.269    520.813    529.869    520.813    521.673    520.813
 31.670    546.123    528.838     17.284    520.545    528.044    520.545    521.337    520.545
 31.770    568.000    527.816     40.184    520.278    527.080    520.278    521.012    520.278
 31.870    525.000    527.159     -2.159    520.011    526.474    520.011    520.695    520.011
 31.970    484.679    526.699    -42.020    519.746    526.059    519.746    520.386    519.746
 32.070    562.000    526.377     35.623    519.482    525.776    519.482    520.083    519.482
 32.170    563.000    526.171     36.829    519.220    525.604    519.220    519.786    519.220
 32.270    536.000    526.072      9.928    518.958    525.535    518.958    519.494    518.958
 32.370    563.000    526.082     36.918    518.697    525.572    518.697    519.206    518.697
 32.470    556.000    526.208     29.792    518.438    525.722    518.438    518.923    518.438
 32.570    523.000    526.467     -3.467    518.180    526.003    518.180    518.643    518.180
 32.670    537.891    526.884     11.007    517.923    526.440    517.923    518.367    517.923
 32.770    524.000    527.497     -3.497    517.667    527.070    517.667    518.093    517.667
 32.870    553.000    528.362     24.638    517.413    527.950    517.413    517.823    517.413
 32.970    575.000    529.559     45.441    517.160    529.162    517.160    517.556    517.160
 33.070    559.000    531.216     27.784    516.908    530.831    516.908    517.291    516.908
 33.170    579.792    533.563     46.229    516.657    533.190    516.657    517.028    516.657
 33.270    553.515    537.134     16.380    516.408    536.772    516.408    516.768    516.408
 33.370    546.960    543.381      3.579    516.159    543.027    516.159    516.510    516.159
 33.470    541.000    556.108    -15.108    515.912    555.761    515.912    516.254    515.912
 33.570    617.000    583.529     33.471    515.667    583.184    515.667    516.000    515.667
 33.670    626.000    638.576    -12.576    515.422    638.230    515.422    515.749    515.422
 33.770    705.000    732.886    -27.886    515.179    732.531    515.179    515.499    515.179
 33.870    876.000    862.610     13.390    514.938    862.245    514.938    515.251    514.938
 33.970   1069.000    992.514     76.486    514.697    992.145    514.697    515.005    514.697
 34.070   1033.742   1056.113    -22.370    514.458   1055.759    514.458    514.760    514.458
 34.170   1034.880   1008.340     26.540    514.221   1008.017    514.221    514.518    514.221
 34.270    847.095    884.502    -37.407    513.984    884.207    513.984    514.277    513.984
 34.370    744.000    751.491     -7.491    513.749    751.211    513.749    514.038    513.749
 34.470    687.026    650.110     36.917    513.516    649.833    513.516    513.801    513.516
 34.570    597.000    588.526      8.474    513.284    588.250    513.284    513.565    513.284
 34.670    561.000    556.731      4.269    513.053    556.454    513.053    513.332    513.053
 34.770    502.021    541.541    -39.520    512.823    541.266    512.823    513.099    512.823
 34.870    530.000    533.931     -3.931    512.595    533.657    512.595    512.869    512.595
 34.970    564.000    529.476     34.524    512.369    529.204    512.369    512.640    512.369
 35.070    548.000    526.423     21.577    512.143    526.154    512.143    512.413    512.143
 35.170    542.262    524.125     18.137    511.920    523.857    511.920    512.187    511.920
 35.270    524.000    522.312      1.688    511.697    522.046    511.697    511.963    511.697
 35.370    545.125    520.842     24.283    511.476    520.577    511.476    511.741    511.476
 35.470    556.000    519.625     36.375    511.257    519.361    511.257    511.520    511.257
 35.570    517.000    518.599     -1.599    511.039    518.337    511.039    511.301    511.039
 35.670    511.159    517.722     -6.563    510.822    517.461    510.822    511.083    510.822
 35.770    490.000    516.961    -26.961    510.607    516.700    510.607    510.867    510.607
 35.870    567.000    516.293     50.707    510.393    516.033    510.393    510.653    510.393
 35.970    491.000    515.701    -24.701    510.181    515.442    510.181    510.440    510.181
 36.070    538.980    515.171     23.809    509.971    514.913    509.971    510.229    509.971
 36.170    515.897    514.695      1.202    509.761    514.437    509.761    510.020    509.761
 36.270    540.130    514.265     25.865    509.554    514.007    509.554    509.812    509.554
 36.370    516.000    513.876      2.124    509.347    513.618    509.347    509.605    509.347
 36.470    432.000    513.525    -81.525    509.143    513.267    509.143    509.401    509.143
 36.570    523.055    513.209      9.846    508.940    512.951    508.940    509.198    508.940
 36.670    472.000    512.932    -40.932    508.738    512.673    508.738    508.996    508.738
 36.770    556.741    512.697     44.044    508.538    512.438    508.538    508.797    508.538
 36.870    488.118    512.524    -24.407    508.339    512.265    508.339    508.598    508.339
 36.970    487.000    512.463    -25.463    508.142    512.204    508.142    508.402    508.142
 37.070    526.645    512.636     14.009    507.946    512.376    507.946    508.207    507.946
 37.170    546.000    513.280     32.720    507.752    513.019    507.752    508.014    507.752
 37.270    520.000    514.733      5.267    507.560    514.472    507.560    507.822    507.560
 37.370    552.643    517.284     35.359    507.369    517.023    507.369    507.632    507.369
 37.470    511.000    520.845     -9.845    507.180    520.583    507.180    507.444    507.180
 37.570    526.000    524.598      1.402    506.992    524.336    506.992    507.257    506.992
 37.670    544.000    526.955     17.045    506.806    526.694    506.806    507.072    506.806
 37.770    489.528    526.590    -37.063    506.621    526.329    506.621    506.889    506.621
 37.870    484.436    523.844    -39.408    506.438    523.584    506.438    506.707    506.438
 37.970    485.000    520.171    -35.171    506.257    519.911    506.257    506.527    506.257
 38.070    540.408    516.707     23.700    506.077    516.446    506.077    506.348    506.077
 38.170    514.000    513.902      0.098    505.898    513.638    505.898    506.171    505.898
 38.270    539.559    511.842     27.717    505.722    511.574    505.722    505.996    505.722
 38.370    504.000    510.434     -6.434    505.546    510.162    505.546    505.823    505.546
 38.470    531.000    509.505     21.495    505.373    509.230    505.373    505.651    505.373
 38.570    511.982    508.893      3.089    505.201    508.614    505.201    505.481    505.201
 38.670    511.880    508.471      3.409    505.031    508.190    505.031    505.313    505.031
 38.770    492.662    508.156    -15.494    504.862    507.873    504.862    505.146    504.862
 38.870    503.000    507.900     -4.900    504.695    507.614    504.695    504.981    504.695
 38.970    517.888    507.675     10.213    504.529    507.387    504.529    504.818    504.529
 39.070    507.000    507.471     -0.471    504.365    507.181    504.365    504.656    504.365
 39.170    512.000    507.283      4.717    504.203    506.990    504.203    504.496    504.203
 39.270    514.000    507.106      6.894    504.042    506.811    504.042    504.338    504.042
 39.370    500.000    506.940     -6.940    503.883    506.642    503.883    504.181    503.883
 39.470    497.000    506.784     -9.784    503.726    506.483    503.726    504.027    503.726
 39.570    475.000    506.636    -31.636    503.570    506.333    503.570    503.874    503.570
 39.670    514.000    506.496      7.504    503.416    506.190    503.416    503.722    503.416
 39.770    531.199    506.365     24.835    503.263    506.055    503.263    503.573    503.263
 39.870    527.000    506.241     20.759    503.112    505.928    503.112    503.425    503.112
 39.970    466.278    506.125    -39.847    502.963    505.809    502.963    503.279    502.963
 40.070    533.413    506.017     27.396    502.815    505.698    502.815    503.134    502.815
 40.170    483.607    505.917    -22.311    502.669    505.595    502.669    502.991    502.669
 40.270    483.000    505.827    -22.827    502.525    505.502    502.525    502.851    502.525
 40.370    504.000    505.747     -1.747    502.382    505.418    502.382    502.711    502.382
 40.470    499.538    505.677     -6.139    502.241    505.345    502.241    502.574    502.241
 40.570    477.551    505.620    -28.069    502.102    505.284    502.102    502.438    502.102
 40.670    476.000    505.577    -29.577    501.964    505.237    501.964    502.304    501.964
 40.770    481.000    505.550    -24.550    501.828    505.206    501.828    502.172    501.828
 40.870    463.244    505.541    -42.297    501.693    505.193    501.693    502.042    501.693
 40.970    447.000    505.555    -58.555    501.560    505.202    501.560    501.913    501.560
 41.070    541.245    505.595     35.649    501.429    505.238    501.429    501.787    501.429
 41.170    461.000    505.668    -44.668    501.299    505.307    501.299    501.662    501.299
 41.270    499.000    505.782     -6.782    501.172    505.416    501.172    501.538    501.172
 41.370    465.000    505.948    -40.948    501.045    505.577    501.045    501.417    501.045
 41.470    493.000    506.181    -13.181    500.921    505.805    500.921    501.297    500.921
 41.570    492.000    506.505    -14.505    500.798    506.125    500.798    501.180    500.798
 41.670    522.169    506.967     15.202    500.676    506.581    500.676    501.064    500.676
 41.770    485.000    507.663    -22.663    500.557    507.272    500.557    500.950    500.557
 41.870    473.324    508.834    -35.510    500.439    508.437    500.439    500.837    500.439
 41.970    457.000    511.028    -54.028    500.322    510.627    500.322    500.727    500.322
 42.070    518.000    515.342      2.658    500.208    514.937    500.208    500.619    500.208
 42.170    543.142    523.524     19.618    500.094    523.116    500.094    500.512    500.094
 42.270    508.876    537.572    -28.696    499.983    537.164    499.983    500.407    499.983
 42.370    547.000    558.522    -11.522    499.873    558.117    499.873    500.304    499.873
 42.470    600.000    584.634     15.366    499.765    584.236    499.765    500.203    499.765
 42.570    652.596    609.831     42.765    499.659    609.440    499.659    500.104    499.659
 42.670    589.000    624.242    -35.242    499.554    623.853    499.554    500.007    499.554
 42.770    667.405    620.339     47.066    499.451    619.943    499.451    499.912    499.451
 42.870    574.958    600.413    -25.455    499.349    600.001    499.349    499.818    499.349
 42.970    570.490    573.858     -3.369    499.249    573.424    499.249    499.727    499.249
 43.070    562.000    549.267     12.733    499.151    548.810    499.151    499.638    499.151
 43.170    554.353    530.900     23.452    499.054    530.422    499.054    499.551    499.054
 43.270    549.591    519.209     30.382    498.959    518.714    498.959    499.465    498.959
 43.370    520.222    512.616      7.606    498.866    512.106    498.866    499.382    498.866
 43.470    540.000    509.147     30.853    498.774    508.625    498.774    499.301    498.774
 43.570    501.000    507.308     -6.308    498.684    506.773    498.684    499.222    498.684
 43.670    498.000    506.241     -8.241    498.596    505.694    498.596    499.145    498.596
 43.770    523.000    505.538     17.462    498.509    504.979    498.509    499.070    498.509
 43.870    500.000    505.026     -5.026    498.424    504.454    498.424    498.997    498.424
 43.970    515.000    504.633     10.367    498.340    504.048    498.340    498.927    498.340
 44.070    496.000    504.324     -8.324    498.258    503.724    498.258    498.859    498.258
 44.170    504.000    504.077     -0.077    498.178    503.463    498.178    498.793    498.178
 44.270    536.346    503.881     32.465    498.099    503.252    498.099    498.729    498.099
 44.370    461.892    503.725    -41.833    498.022    503.080    498.022    498.668    498.022
 44.470    508.000    503.603      4.397    497.947    502.941    497.947    498.609    497.947
 44.570    502.000    503.509     -1.509    497.873    502.829    497.873    498.553    497.873
 44.670    496.000    503.440     -7.440    497.800    502.742    497.800    498.500    497.800
 44.770    471.000    503.393    -32.393    497.730    502.675    497.730    498.449    497.730
 44.870    510.000    503.366      6.634    497.661    502.627    497.661    498.400    497.661
 44.970    494.000    503.358     -9.358    497.593    502.597    497.593    498.355    497.593
 45.070    467.720    503.367    -35.648    497.528    502.583    497.528    498.312    497.528
 45.170    542.356    503.394     38.962    497.463    502.585    497.463    498.273    497.463
 45.270    498.000    503.437     -5.437    497.401    502.602    497.401    498.236    497.401
 45.370    467.681    503.498    -35.817    497.340    502.635    497.340    498.203    497.340
 45.470    534.845    503.575     31.269    497.280    502.683    497.280    498.173    497.280
 45.570    502.000    503.671     -1.671    497.222    502.747    497.222    498.147    497.222
 45.670    478.000    503.786    -25.786    497.166    502.828    497.166    498.125    497.166
 45.770    485.000    503.922    -18.922    497.112    502.927    497.112    498.106    497.112
 45.870    502.000    504.080     -2.080    497.058    503.045    497.058    498.092    497.058
 45.970    467.000    504.262    -37.262    497.007    503.186    497.007    498.083    497.007
 46.070    510.046    504.471      5.575    496.957    503.350    496.957    498.078    496.957
 46.170    474.000    504.712    -30.712    496.908    503.541    496.908    498.079    496.908
 46.270    510.000    504.988      5.012    496.862    503.764    496.862    498.085    496.862
 46.370    496.000    505.305     -9.305    496.816    504.024    496.816    498.097    496.816
 46.470    502.000    505.672     -3.672    496.773    504.327    496.773    498.116    496.773
 46.570    518.000    506.097     11.903    496.730    504.684    496.730    498.142    496.730
 46.670    521.105    506.597     14.508    496.690    505.109    496.690    498.177    496.690
 46.770    543.000    507.199     35.801    496.651    505.628    496.651    498.220    496.651
 46.870    485.834    507.957    -22.123    496.613    506.295    496.613    498.274    496.613
 46.970    478.330    508.994    -30.664    496.577    507.230    496.577    498.339    496.577
 47.070    487.315    510.574    -23.259    496.542    508.697    496.542    498.416    496.542
 47.170    517.000    513.210      3.790    496.509    511.207    496.509    498.508    496.509
 47.270    506.000    517.732    -11.732    496.478    515.584    496.478    498.617    496.478
 47.370    490.000    525.187    -35.187    496.448    522.876    496.448    498.745    496.448
 47.470    522.679    536.419    -13.740    496.420    533.922    496.420    498.895    496.420
 47.570    524.000    551.342    -27.342    496.393    548.630    496.393    499.072    496.393
 47.670    572.000    568.157      3.843    496.367    565.201    496.367    499.279    496.367
 47.770    568.000    582.922    -14.922    496.343    579.688    496.343    499.524    496.343
 47.870    572.227    590.371    -18.144    496.321    586.821    496.321    499.814    496.321
 47.970    586.000    587.381     -1.381    496.300    583.468    496.300    500.160    496.300
 48.070    599.000    576.095     22.905    496.280    571.755    496.280    500.579    496.280
 48.170    573.000    561.649     11.351    496.262    556.789    496.262    501.092    496.262
 48.270    561.133    548.489     12.644    496.246    542.977    496.246    501.738    496.246
 48.370    549.000    539.021      9.979    496.230    532.663    496.230    502.576    496.230
 48.470    523.016    533.831    -10.815    496.217    526.337    496.217    503.702    496.217
 48.570    496.000    532.443    -36.443    496.205    523.379    496.205    505.264    496.205
 48.670    492.259    534.100    -41.841    496.194    522.817    496.194    507.473    496.194
 48.770    493.827    538.273    -44.446    496.185    523.845    496.185    510.609    496.185
 48.870    582.942    544.819     38.123    496.177    525.996    496.177    514.996    496.177
 48.970    565.347    553.921     11.426    496.170    529.134    496.170    520.954    496.170
 49.070    551.000    565.973    -14.973    496.165    533.436    496.165    528.698    496.165
 49.170    615.719    581.621     34.098    496.162    539.570    496.162    538.207    496.162
 49.270    621.000    602.229     18.771    496.159    549.355    496.159    549.027    496.159
 49.370    639.000    631.186      7.814    496.159    567.320    496.159    560.012    496.159
 49.470    632.000    676.437    -44.437    496.159    603.426    496.159    569.148    496.159
 49.570    699.000    753.922    -54.922    496.161    676.105    496.161    573.935    496.161
 49.670    894.000    889.180      4.820    496.165    812.532    496.165    572.737    496.165
 49.770   1151.604   1111.090     40.514    496.170   1041.127    496.170    566.014    496.170
 49.870   1449.942   1433.422     16.520    496.176   1373.509    496.176    555.930    496.176
 49.970   1888.391   1829.967     58.424    496.183   1781.106    496.183    544.873    496.183
 50.070   2190.389   2218.901    -28.512    496.192   2180.447    496.192    534.509    496.192
 50.170   2519.000   2475.607     43.393    496.202   2446.077    496.202    525.687    496.202
 50.270   2565.927   2492.226     73.701    496.214   2469.842    496.214    518.672    496.214
 50.370   2233.000   2258.186    -25.186    496.227   2241.201    496.227    513.377    496.227
 50.470   1850.000   1870.736    -20.736    496.241   1857.639    496.241    509.535    496.241
 50.570   1407.000   1459.141    -52.141    496.257   1448.761    496.257    506.817    496.257
 50.670   1120.673   1116.331      4.342    496.274   1107.833    496.274    504.910    496.274
 50.770    897.000    879.261     17.739    496.292    872.087    496.292    503.562    496.292
 50.870    685.000    740.151    -55.151    496.312    733.941    496.312    502.587    496.312
 50.970    699.000    669.386     29.614    496.333    663.908    496.333    501.860    496.333
 51.070    640.000    635.478      4.522    496.355    630.575    496.355    501.299    496.355
 51.170    630.000    615.771     14.229    496.378    611.331    496.378    500.854    496.378
 51.270    616.000    599.037     16.963    496.403    594.974    496.403    500.495    496.403
 51.370    583.000    582.599      0.401    496.429    578.850    496.429    500.202    496.429
 51.470    546.000    567.460    -21.460    496.456    563.973    496.456    499.961    496.456
 51.570    569.000    554.994     14.006    496.485    551.729    496.485    499.762    496.485
 51.670    555.000    545.818      9.182    496.515    542.742    496.515    499.598    496.515
 51.770    572.000    539.748     32.252    496.546    536.835    496.546    499.464    496.546
 51.870    578.000    536.149     41.851    496.578    533.376    496.578    499.355    496.578
 51.970    503.617    534.311    -30.694    496.611    531.658    496.611    499.268    496.611
 52.070    525.647    533.695     -8.048    496.646    531.145    496.646    499.199    496.646
 52.170    548.883    534.012     14.871    496.682    531.549    496.682    499.147    496.682
 52.270    555.000    535.214     19.786    496.719    532.826    496.719    499.110    496.719
 52.370    566.000    537.523     28.477    496.758    535.198    496.758    499.085    496.758
 52.470    578.000    541.581     36.419    496.797    539.308    496.797    499.072    496.797
 52.570    557.000    548.807      8.193    496.838    546.576    496.838    499.070    496.838
 52.670    527.275    561.942    -34.667    496.880    559.746    496.880    499.077    496.880
 52.770    586.000    585.575      0.425    496.923    583.404    496.923    499.093    496.923
 52.870    607.796    626.098    -18.302    496.967    623.946    496.967    499.117    496.967
 52.970    731.317    690.388     40.929    497.013    688.248    497.013    499.149    497.013
 53.070    747.373    782.747    -35.375    497.059    780.614    497.059    499.189    497.059
 53.170    884.259    900.617    -16.358    497.107    898.487    497.107    499.235    497.107
 53.270   1028.000   1030.496     -2.496    497.156   1028.366    497.156    499.288    497.156
 53.370   1150.010   1146.071      3.939    497.206   1143.942    497.206    499.348    497.206
 53.470   1209.000   1212.951     -3.951    497.257   1210.819    497.257    499.414    497.257
 53.570   1170.493   1205.908    -35.414    497.309   1203.768    497.309    499.486    497.309
 53.670   1088.000   1128.120    -40.120    497.362   1125.962    497.362    499.565    497.362
 53.770   1017.000   1008.206      8.794    497.417   1006.017    497.417    499.649    497.417
 53.870    896.000    879.726     16.274    497.472    877.495    497.472    499.740    497.472
 53.970    748.000    766.632    -18.632    497.529    764.351    497.529    499.838    497.529
 54.070    686.000    680.170      5.830    497.586    677.835    497.586    499.941    497.586
 54.170    624.000    621.317      2.683    497.645    618.923    497.645    500.052    497.645
 54.270    565.598    585.025    -19.426    497.705    582.568    497.705    500.169    497.705
 54.370    608.000    564.358     43.642    497.766    561.835    497.766    500.294    497.766
 54.470    508.558    553.220    -44.662    497.827    550.624    497.827    500.426    497.827
 54.570    586.000    547.389     38.611    497.890    544.716    497.890    500.566    497.890
 54.670    508.000    544.405    -36.405    497.954    541.646    497.954    500.714    497.954
 54.770    602.000    543.012     58.988    498.019    540.161    498.019    500.871    498.019
 54.870    590.000    542.634     47.366    498.085    539.683    498.085    501.038    498.085
 54.970    556.000    543.030     12.970    498.151    539.969    498.151    501.214    498.151
 55.070    603.000    544.113     58.887    498.219    540.931    498.219    501.402    498.219
 55.170    583.000    545.871     37.129    498.288    542.559    498.288    501.601    498.288
 55.270    514.000    548.347    -34.347    498.358    544.892    498.358    501.813    498.358
 55.370    578.000    551.633     26.367    498.428    548.023    498.428    502.040    498.428
 55.470    570.000    555.900     14.100    498.500    552.120    498.500    502.281    498.500
 55.570    563.000    561.476      1.524    498.572    557.510    498.572    502.540    498.572
 55.670    570.000    569.042      0.958    498.646    564.871    498.646    502.817    498.646
 55.770    590.000    580.067      9.933    498.720    575.672    498.720    503.115    498.720
 55.870    562.000    597.645    -35.645    498.796    593.002    498.796    503.437    498.796
 55.970    637.000    627.797      9.203    498.872    622.880    498.872    503.784    498.872
 56.070    678.774    680.969     -2.195    498.949    675.747    498.949    504.160    498.949
 56.170    744.276    772.755    -28.479    499.027    767.191    499.027    504.570    499.027
 56.270    914.000    922.210     -8.210    499.106    916.265    499.106    505.017    499.106
 56.370   1085.915   1146.170    -60.256    499.185   1139.801    499.185    505.507    499.185
 56.470   1381.601   1449.599    -67.998    499.266   1442.762    499.266    506.046    499.266
 56.570   1790.000   1814.612    -24.612    499.347   1807.266    499.347    506.642    499.347
 56.670   2142.521   2192.543    -50.022    499.430   2184.646    499.430    507.304    499.430
 56.770   2450.000   2504.218    -54.218    499.513   2495.723    499.513    508.042    499.513
 56.870   2576.000   2659.165    -83.165    499.596   2650.007    499.596    508.872    499.596
 56.970   2501.000   2603.102   -102.102    499.681   2593.175    499.681    509.809    499.681
 57.070   2388.000   2358.186     29.814    499.767   2347.328    499.767    510.877    499.767
 57.170   2041.000   2004.444     36.556    499.853   1992.452    499.853    512.106    499.853
 57.270   1626.390   1629.611     -3.221    499.940   1616.244    499.940    513.539    499.940
 57.370   1326.000   1297.419     28.581    500.028   1282.388    500.028    515.244    500.028
 57.470   1039.503   1039.832     -0.328    500.116   1022.761    500.116    517.320    500.116
 57.570    886.000    861.767     24.233    500.206    842.131    500.206    519.929    500.206
 57.670    754.500    751.316      3.184    500.296    728.345    500.296    523.319    500.296
 57.770    654.238    690.629    -36.391    500.386    663.185    500.386    527.859    500.386
 57.870    672.000    663.814      8.186    500.478    630.235    500.478    534.070    500.478
 57.970    668.582    660.599      7.983    500.570    618.533    500.570    542.638    500.570
 58.070    669.000    676.617     -7.617    500.663    622.891    500.663    554.381    500.663
 58.170    710.000    711.835     -1.835    500.757    642.404    500.757    570.170    500.757
 58.270    814.985    768.252     46.734    500.851    678.309    500.851    590.766    500.851
 58.370    853.000    847.500      5.500    500.946    731.801    500.946    616.607    500.946
 58.470    916.000    948.653    -32.653    501.041    802.118    501.041    647.531    501.041
 58.570   1116.000   1066.550     49.450    501.138    885.215    501.138    682.424    501.138
 58.670   1171.657   1190.945    -19.287    501.234    973.357    501.234    718.780    501.234
 58.770   1351.000   1307.853     43.147    501.332   1056.916    501.332    752.238    501.332
 58.870   1426.000   1402.716     23.284    501.430   1127.429    501.430    776.703    501.430
 58.970   1425.672   1462.760    -37.089    501.529   1178.180    501.529    786.117    501.529
 59.070   1467.927   1478.575    -10.648    501.628   1202.481    501.628    777.750    501.628
 59.170   1434.682   1448.199    -13.516    501.728   1195.859    501.728    754.111    501.728
 59.270   1408.129   1381.150     26.980    501.829   1161.854    501.829    721.169    501.829
 59.370   1268.625   1295.850    -27.225    501.930   1112.749    501.930    685.063    501.930
 59.470   1310.000   1212.084     97.916    502.031   1063.879    502.031    650.242    502.031
 59.570   1198.000   1146.799     51.201    502.134   1029.604    502.134    619.299    502.134
 59.670   1077.000   1114.558    -37.558    502.236   1023.314    502.236    593.405    502.236
 59.770   1230.000   1126.662    103.338    502.340   1056.110    502.340    572.764    502.340
 59.870   1238.304   1186.427     51.877    502.444   1131.724    502.444    556.962    502.444
 59.970   1291.778   1284.538      7.240    502.548   1241.602    502.548    545.247    502.548
 60.070   1446.000   1397.686     48.314    502.653   1363.309    502.653    536.754    502.653
 60.170   1568.000   1491.215     76.785    502.758   1463.027    502.758    530.658    502.758
 60.270   1600.713   1528.346     72.367    502.864   1504.675    502.864    526.268    502.864
 60.370   1489.000   1487.616      1.384    502.970   1467.314    502.970    523.057    502.970
 60.470   1331.384   1375.952    -44.568    503.077   1358.228    503.077    520.650    503.077
 60.570   1248.000   1221.851     26.149    503.184   1206.144    503.184    518.797    503.184
 60.670   1070.000   1058.160     11.840    503.292   1044.061    503.292    517.341    503.292
 60.770    902.537    910.431     -7.894    503.400    897.627    503.400    516.183    503.400
 60.870    806.000    793.044     12.956    503.508    781.281    503.508    515.263    503.508
 60.970    659.000    710.044    -51.044    503.617    699.111    503.617    514.546    503.617
 61.070    627.000    658.608    -31.608    503.726    648.318    503.726    514.010    503.726
 61.170    608.862    633.392    -24.530    503.836    623.579    503.836    513.638    503.836
 61.270    659.000    630.180     28.820    503.946    620.692    503.946    513.415    503.946
 61.370    633.000    647.896    -14.896    504.056    638.598    504.056    513.323    504.056
 61.470    718.000    688.766     29.234    504.167    679.547    504.167    513.337    504.167
 61.570    803.683    756.769     46.914    504.278    747.556    504.278    513.418    504.278
 61.670    833.000    854.745    -21.745    504.390    845.521    504.390    513.512    504.390
 61.770   1032.329    980.837     51.492    504.501    971.658    504.501    513.547    504.501
 61.870   1100.314   1125.354    -25.040    504.613   1116.350    504.613    513.455    504.613
 61.970   1214.000   1269.178    -55.178    504.726   1260.526    504.726    513.199    504.726
 62.070   1296.000   1384.958    -88.958    504.839   1376.826    504.839    512.792    504.839
 62.170   1388.711   1443.594    -54.883    504.952   1436.105    504.952    512.288    504.952
 62.270   1458.156   1427.414     30.741    505.065   1420.620    505.065    511.748    505.065
 62.370   1224.000   1341.225   -117.225    505.178   1335.113    505.178    511.225    505.178
 62.470   1189.000   1208.852    -19.852    505.292   1203.365    505.292    510.751    505.292
 62.570   1027.000   1059.719    -32.719    505.406   1054.780    505.406    510.343    505.406
 62.670    875.000    918.234    -43.234    505.520    913.758    505.520    510.007    505.520
 62.770    811.539    799.615     11.924    505.635    795.522    505.635    509.742    505.635
 62.870    715.000    709.830      5.170    505.749    706.052    505.749    509.540    505.749
 62.970    635.615    647.724    -12.109    505.864    644.204    505.864    509.392    505.864
 63.070    611.375    608.102      3.273    505.979    604.796    505.979    509.289    505.979
 63.170    570.934    584.626    -13.692    506.095    581.499    506.095    509.221    506.095
 63.270    584.000    571.757     12.243    506.210    568.784    506.210    509.180    506.210
 63.370    572.000    565.625      6.375    506.326    562.786    506.326    509.160    506.326
 63.470    593.718    564.140     29.578    506.441    561.418    506.441    509.157    506.441
 63.570    578.000    566.768     11.232    506.557    564.150    506.557    509.166    506.557
 63.670    527.414    574.255    -46.841    506.673    571.728    506.673    509.186    506.673
 63.770    627.000    588.345     38.655    506.789    585.900    506.789    509.215    506.789
 63.870    627.000    611.412     15.588    506.906    609.037    506.906    509.251    506.906
 63.970    681.520    645.844     35.676    507.022    643.529    507.022    509.294    507.022
 64.070    726.000    693.142     32.858    507.138    690.877    507.138    509.343    507.138
 64.170    768.000    752.833     15.167    507.255    750.610    507.255    509.397    507.255
 64.270    833.000    821.465     11.535    507.371    819.280    507.371    509.456    507.371
 64.370    893.000    891.966      1.034    507.488    889.817    507.488    509.519    507.488
 64.470    945.625    953.898     -8.274    507.605    951.789    507.605    509.587    507.605
 64.570   1069.000    995.678     73.322    507.721    993.617    507.721    509.658    507.721
 64.670    992.047   1009.133    -17.087    507.838   1007.128    507.838    509.733    507.838
 64.770    986.000    993.200     -7.200    507.955    991.256    507.955    509.811    507.955
 64.870   1001.000    953.386     47.614    508.071    951.505    508.071    509.892    508.071
 64.970    933.425    898.790     34.635    508.188    896.969    508.188    509.976    508.188
 65.070    842.000    839.102      2.898    508.305    837.336    508.305    510.062    508.305
 65.170    749.146    782.034    -32.888    508.422    780.313    508.422    510.151    508.422
 65.270    715.602    731.917    -16.315    508.538    730.233    508.538    510.242    508.538
 65.370    669.000    690.005    -21.005    508.655    688.350    508.655    510.336    508.655
 65.470    646.000    655.853     -9.853    508.771    654.219    508.771    510.432    508.771
 65.570    628.000    628.572     -0.572    508.888    626.953    508.888    510.529    508.888
 65.670    591.000    607.278    -16.278    509.004    605.671    509.004    510.629    509.004
 65.770    631.554    591.108     40.446    509.120    589.511    509.120    510.731    509.120
 65.870    567.000    579.245    -12.245    509.237    577.655    509.237    510.834    509.237
 65.970    566.805    570.950     -4.144    509.353    569.367    509.353    510.939    509.353
 66.070    552.972    565.577    -12.605    509.469    564.001    509.469    511.046    509.469
 66.170    563.000    562.569      0.431    509.584    560.999    509.584    511.155    509.584
 66.270    531.074    561.461    -30.387    509.700    559.896    509.700    511.265    509.700
 66.370    526.000    561.911    -35.911    509.816    560.350    509.816    511.377    509.816
 66.470    594.813    563.737     31.075    509.931    562.179    509.931    511.490    509.931
 66.570    574.283    566.981      7.302    510.046    565.423    510.046    511.605    510.046
 66.670    569.000    572.016     -3.016    510.161    570.457    510.161    511.722    510.161
 66.770    563.000    579.753    -16.753    510.276    578.190    510.276    511.840    510.276
 66.870    590.000    591.968     -1.968    510.391    590.399    510.391    511.960    510.391
 66.970    598.000    611.766    -13.766    510.505    610.188    510.505    512.082    510.505
 67.070    605.000    644.068    -39.068    510.619    642.479    510.619    512.205    510.619
 67.170    691.000    695.906     -4.906    510.733    694.302    510.733    512.330    510.733
 67.270    740.540    776.125    -35.585    510.847    774.503    510.847    512.457    510.847
 67.370    889.000    894.113     -5.113    510.960    892.473    510.960    512.585    510.960
 67.470   1072.000   1057.328     14.672    511.074   1055.670    511.074    512.716    511.074
 67.570   1250.000   1267.849    -17.849    511.186   1266.178    511.186    512.849    511.186
 67.670   1506.000   1518.740    -12.740    511.299   1517.064    511.299    512.983    511.299
 67.770   1750.605   1791.287    -40.682    511.411   1789.619    511.411    513.120    511.411
 67.870   2091.000   2054.126     36.874    511.523   2052.480    511.523    513.259    511.523
 67.970   2336.771   2265.696     71.075    511.635   2264.084    511.635    513.401    511.635
 68.070   2478.000   2382.969     95.031    511.747   2381.394    511.747    513.546    511.747
 68.170   2395.000   2377.747     17.253    511.858   2376.198    511.858    513.693    511.858
 68.270   2237.000   2251.467    -14.467    511.968   2249.916    511.968    513.843    511.968
 68.370   2055.000   2034.307     20.693    512.079   2032.718    512.079    513.997    512.079
 68.470   1753.645   1769.648    -16.003    512.189   1767.989    512.189    514.154    512.189
 68.570   1480.119   1498.371    -18.252    512.298   1496.617    512.298    514.315    512.298
 68.670   1268.000   1250.795     17.205    512.407   1248.934    512.407    514.480    512.407
 68.770    997.000   1044.575    -47.575    512.516   1042.602    512.516    514.650    512.516
 68.870    918.209    885.764     32.446    512.625    883.678    512.625    514.825    512.625
 68.970    790.000    771.689     18.311    512.733    769.496    512.733    515.006    512.733
 69.070    705.000    694.619     10.381    512.840    692.319    512.840    515.192    512.840
 69.170    685.041    645.136     39.905    512.947    642.732    512.947    515.385    512.947
 69.270    661.961    614.515     47.446    513.054    612.005    513.054    515.586    513.054
 69.370    585.291    595.896    -10.605    513.160    593.276    513.160    515.795    513.160
 69.470    562.000    584.508    -22.508    513.266    581.771    513.266    516.013    513.266
 69.570    557.000    577.344    -20.344    513.371    574.481    513.371    516.241    513.371
 69.670    544.177    572.661    -28.484    513.476    569.662    513.476    516.481    513.476
 69.770    639.000    569.513     69.487    513.581    566.364    513.581    516.734    513.581
 69.870    591.000    567.412     23.588    513.685    564.099    513.685    517.001    513.685
 69.970    543.000    566.116    -23.116    513.788    562.621    513.788    517.285    513.788
 70.070    604.000    565.511     38.489    513.891    561.816    513.891    517.587    513.891
 70.170    531.091    565.564    -34.472    513.993    561.646    513.993    517.911    513.993
 70.270    578.000    566.303     11.697    514.095    562.138    514.095    518.259    514.095
 70.370    621.000    567.843     53.157    514.196    563.403    514.196    518.635    514.196
 70.470    524.741    570.438    -45.697    514.296    565.687    514.296    519.044    514.296
 70.570    594.000    574.578     19.422    514.396    569.478    514.396    519.492    514.396
 70.670    600.000    581.159     18.841    514.496    575.662    514.496    519.986    514.496
 70.770    580.000    591.700    -11.700    514.595    585.749    514.595    520.535    514.595
 70.870    605.000    608.603     -3.603    514.693    602.126    514.693    521.153    514.693
 70.970    594.000    635.368    -41.368    514.791    628.272    514.791    521.860    514.791
 71.070    667.000    676.609     -9.609    514.888    668.770    514.888    522.687    514.888
 71.170    725.000    737.700    -12.700    514.984    728.945    514.984    523.680    514.984
 71.270    804.000    823.912    -19.912    515.080    813.995    515.080    524.915    515.080
 71.370    891.264    938.981    -47.717    515.175    927.545    515.175    526.501    515.175
 71.470   1038.567   1083.316    -44.749    515.270   1069.844    515.270    528.601    515.270
 71.570   1259.490   1252.240      7.250    515.364   1235.991    515.364    531.443    515.364
 71.670   1436.000   1434.737      1.263    515.457   1414.672    515.457    535.330    515.457
 71.770   1606.583   1613.131     -6.548    515.549   1587.843    515.549    540.633    515.549
 71.870   1807.033   1764.268     42.765    515.641   1731.936    515.641    547.774    515.641
 71.970   1855.000   1863.479     -8.479    515.732   1821.856    515.732    557.179    515.732
 72.070   1860.755   1892.301    -31.546    515.823   1838.779    515.823    569.203    515.823
 72.170   1880.000   1846.969     33.031    515.912   1778.740    515.912    584.039    515.912
 72.270   1797.000   1740.530     56.470    516.001   1654.855    516.001    601.612    516.001
 72.370   1519.028   1596.159    -77.131    516.089   1490.749    516.089    621.463    516.089
 72.470   1447.623   1437.961      9.662    516.177   1311.473    516.177    642.650    516.177
 72.570   1274.000   1285.132    -11.132    516.264   1137.750    516.264    663.643    516.264
 72.670   1116.000   1149.747    -33.747    516.350    983.803    516.350    682.297    516.350
 72.770    961.000   1036.753    -75.753    516.435    857.161    516.435    696.032    516.435
 72.870    890.763    945.509    -54.745    516.519    759.577    516.519    702.456    516.519
 72.970    923.989    872.335     51.654    516.603    688.647    516.603    700.294    516.603
 73.070    796.000    812.992    -16.992    516.686    639.655    516.686    690.024    516.686
 73.170    767.308    764.054      3.254    516.768    607.208    516.768    673.615    516.768
 73.270    658.000    723.155    -65.155    516.849    586.358    516.849    653.647    516.849
 73.370    715.077    688.760     26.317    516.929    573.182    516.929    632.508    516.929
 73.470    585.000    659.914    -74.914    517.009    564.894    517.009    612.031    517.009
 73.570    607.000    636.048    -29.048    517.088    559.706    517.088    593.433    517.088
 73.670    660.263    616.794     43.469    517.166    556.568    517.166    577.397    517.166
 73.770    580.171    601.838    -21.667    517.243    554.915    517.243    564.173    517.243
 73.870    603.000    590.814     12.186    517.319    554.457    517.319    553.686    517.319
 73.970    551.277    583.261    -31.985    517.394    555.021    517.394    545.649    517.394
 74.070    615.000    578.616     36.384    517.469    556.445    517.469    539.659    517.469
 74.170    594.000    576.231     17.769    517.542    558.511    517.542    535.287    517.542
 74.270    594.000    575.394     18.606    517.615    560.906    517.615    532.134    517.615
 74.370    601.522    575.357     26.166    517.686    563.219    517.686    529.861    517.686
 74.470    563.301    575.374    -12.073    517.757    564.967    517.757    528.205    517.757
 74.570    635.000    574.793     60.207    517.827    565.690    517.827    526.974    517.827
 74.670    527.828    573.190    -45.362    517.896    565.098    517.896    526.032    517.896
 74.770    618.624    570.486     48.138    517.964    563.203    517.964    525.290    517.964
 74.870    590.000    566.938     23.062    518.031    560.320    518.031    524.687    518.031
 74.970    585.634    563.001     22.633    518.097    556.943    518.097    524.187    518.097
 75.070    582.979    559.190     23.789    518.163    553.613    518.163    523.765    518.163
 75.170    558.712    556.006      2.706    518.227    550.849    518.227    523.404    518.227
 75.270    572.000    553.926     18.074    518.290    549.138    518.290    523.092    518.290
 75.370    547.980    553.415     -5.435    518.352    548.954    518.352    522.821    518.352
 75.470    575.000    554.957     20.043    518.414    550.787    518.414    522.586    518.414
 75.570    628.000    559.059     68.941    518.474    555.149    518.474    522.380    518.474
 75.670    549.619    566.225    -16.606    518.533    562.549    518.533    522.200    518.533
 75.770    563.000    576.882    -13.882    518.592    573.415    518.592    522.042    518.592
 75.870    587.000    591.237     -4.237    518.649    587.958    518.649    521.904    518.649
 75.970    575.000    609.126    -34.126    518.705    606.017    518.705    521.782    518.705
 76.070    670.000    629.853     40.147    518.760    626.896    518.760    521.676    518.760
 76.170    611.901    652.082    -40.181    518.814    649.265    518.814    521.582    518.814
 76.270    634.343    673.819    -39.476    518.868    671.131    518.868    521.500    518.868
 76.370    732.882    692.504     40.378    518.920    689.935    518.920    521.428    518.920
 76.470    734.000    705.336     28.664    518.971    702.879    518.971    521.365    518.971
 76.570    704.990    709.966     -4.976    519.021    707.616    519.021    521.310    519.021
 76.670    711.000    705.415      5.585    519.069    703.168    519.069    521.261    519.069
 76.770    710.000    692.545     17.455    519.117    690.396    519.117    521.219    519.117
 76.870    725.000    673.631     51.369    519.164    671.574    519.164    521.183    519.164
 76.970    675.580    651.454     24.126    519.209    649.483    519.209    521.151    519.209
 77.070    656.000    628.581     27.419    519.254    626.689    519.254    521.124    519.254
 77.170    533.000    607.018    -74.018    519.297    605.199    519.297    521.101    519.297
 77.270    587.000    588.099     -1.099    519.340    586.347    519.340    521.081    519.340
 77.370    570.000    572.496     -2.496    519.381    570.806    519.381    521.064    519.381
 77.470    580.000    560.324     19.676    519.421    558.690    519.421    521.050    519.421
 77.570    582.000    551.291     30.709    519.460    549.709    519.460    521.039    519.460
 77.670    546.000    544.879      1.121    519.497    543.345    519.497    521.029    519.497
 77.770    572.855    540.492     32.363    519.534    539.003    519.534    521.021    519.534
 77.870    570.532    537.574     32.959    519.569    536.126    519.569    521.016    519.569
 77.970    548.000    535.661     12.339    519.604    534.253    519.604    521.011    519.604
 78.070    501.000    534.409    -33.409    519.637    533.037    519.637    521.008    519.637
 78.170    483.000    533.579    -50.579    519.669    532.241    519.669    521.006    519.669
 78.270    568.000    533.018     34.982    519.700    531.712    519.700    521.005    519.700
 78.370    491.109    532.633    -41.524    519.729    531.357    519.729    521.005    519.729
 78.470    566.041    532.355     33.686    519.758    531.106    519.758    521.006    519.758
 78.570    515.000    532.178    -17.178    519.785    530.955    519.785    521.007    519.785
 78.670    570.808    532.129     38.680    519.811    530.929    519.811    521.010    519.811
 78.770    536.000    532.192      3.808    519.836    531.014    519.836    521.013    519.836
 78.870    482.000    532.385    -50.385    519.859    531.226    519.859    521.017    519.859
 78.970    520.000    532.732    -12.732    519.882    531.590    519.882    521.023    519.882
 79.070    561.796    533.264     28.532    519.903    532.135    519.903    521.030    519.903
 79.170    548.000    534.014     13.986    519.923    532.896    519.923    521.039    519.923
 79.270    525.603    535.013     -9.410    519.941    533.902    519.941    521.050    519.941
 79.370    524.000    536.290    -12.290    519.959    535.181    519.959    521.065    519.959
 79.470    538.739    537.872      0.866    519.975    536.760    519.975    521.084    519.975
 79.570    528.000    539.791    -11.791    519.990    538.670    519.990    521.107    519.990
 79.670    537.000    542.094     -5.094    520.004    540.958    520.004    521.135    520.004
 79.770    511.947    544.862    -32.915    520.016    543.704    520.016    521.169    520.016
 79.870    526.000    548.229    -22.229    520.027    547.043    520.027    521.208    520.027
 79.970    577.588    552.410     25.177    520.037    551.190    520.037    521.253    520.037
 80.070    555.000    557.725     -2.725    520.046    556.465    520.046    521.302    520.046
 80.170    594.000    564.597     29.403    520.053    563.294    520.053    521.353    520.053
 80.270    541.739    573.506    -31.767    520.059    572.159    520.059    521.405    520.059
 80.370    553.000    584.892    -31.892    520.064    583.504    520.064    521.454    520.064
 80.470    566.000    599.033    -33.033    520.068    597.611    520.068    521.495    520.068
 80.570    563.000    615.944    -52.944    520.070    614.500    520.070    521.523    520.070
 80.670    595.877    635.286    -39.408    520.071    633.837    520.071    521.534    520.071
 80.770    656.000    656.330     -0.330    520.070    654.895    520.070    521.525    520.070
 80.870    650.000    677.980    -27.980    520.069    676.579    520.069    521.496    520.069
 80.970    727.000    698.891     28.109    520.066    697.540    520.066    521.449    520.066
 81.070    750.069    717.664     32.404    520.061    716.375    520.061    521.390    520.061
 81.170    746.000    733.039     12.961    520.056    731.819    520.056    521.322    520.056
 81.270    803.000    744.001     58.999    520.049    742.852    520.049    521.251    520.049
 81.370    771.290    749.864     21.426    520.040    748.783    520.040    521.180    520.040
 81.470    736.000    750.341    -14.341    520.031    749.324    520.031    521.111    520.031
 81.570    755.561    745.559     10.002    520.020    744.599    520.020    521.046    520.020
 81.670    718.000    736.014    -18.014    520.007    735.103    520.007    520.986    520.007
 81.770    735.469    722.540     12.929    519.994    721.671    519.994    520.930    519.994
 81.870    698.000    706.280     -8.280    519.979    705.445    519.979    520.880    519.979
 81.970    687.000    688.530     -1.530    519.962    687.721    519.962    520.835    519.962
 82.070    692.000    670.470     21.530    519.945    669.683    519.945    520.793    519.945
 82.170    699.420    652.954     46.466    519.926    652.183    519.926    520.755    519.926
 82.270    613.000    636.457    -23.457    519.905    635.697    519.905    520.719    519.905
 82.370    594.000    621.180    -27.180    519.883    620.428    519.883    520.684    519.883
 82.470    634.000    607.216     26.784    519.860    606.469    519.860    520.650    519.860
 82.570    586.625    594.672     -8.047    519.836    593.928    519.836    520.617    519.836
 82.670    590.000    583.696      6.304    519.810    582.953    519.810    520.584    519.810
 82.770    532.978    574.445    -41.466    519.783    573.701    519.783    520.551    519.783
 82.870    550.557    567.053    -16.496    519.754    566.307    519.754    520.518    519.754
 82.970    553.335    561.617     -8.282    519.724    560.869    519.724    520.483    519.724
 83.070    590.459    558.188     32.271    519.693    557.437    519.693    520.448    519.693
 83.170    532.000    556.753    -24.753    519.660    555.997    519.660    520.413    519.660
 83.270    559.866    557.209      2.657    519.626    556.449    519.626    520.376    519.626
 83.370    528.433    559.353    -30.920    519.590    558.588    519.590    520.338    519.590
 83.470    547.000    562.864    -15.864    519.553    562.094    519.553    520.299    519.553
 83.570    592.000    567.305     24.695    519.515    566.529    519.515    520.260    519.515
 83.670    574.000    572.131      1.869    519.475    571.350    519.475    520.219    519.475
 83.770    528.000    576.718    -48.718    519.434    575.934    519.434    520.177    519.434
 83.870    614.262    580.413     33.850    519.392    579.626    519.392    520.134    519.392
 83.970    546.128    582.613    -36.486    519.348    581.826    519.348    520.090    519.348
 84.070    617.708    582.899     34.809    519.302    582.112    519.302    520.045    519.302
 84.170    576.000    581.141     -5.141    519.256    580.357    519.256    519.999    519.256
 84.270    573.000    577.541     -4.541    519.208    576.759    519.208    519.951    519.208
 84.370    608.000    572.539     35.461    519.158    571.761    519.158    519.903    519.158
 84.470    582.000    566.687     15.313    519.107    565.913    519.107    519.853    519.107
 84.570    548.000    560.525    -12.525    519.055    559.755    519.055    519.802    519.055
 84.670    511.000    554.515    -43.515    519.001    553.747    519.001    519.750    519.001
 84.770    552.000    549.005      2.995    518.946    548.239    518.946    519.697    518.946
 84.870    575.570    544.220     31.350    518.889    543.454    518.889    519.643    518.889
 84.970    538.000    540.267     -2.267    518.831    539.502    518.831    519.588    518.831
 85.070    517.000    537.156    -20.156    518.772    536.390    518.772    519.531    518.772
 85.170    533.000    534.825     -1.825    518.711    534.057    518.711    519.474    518.711
 85.270    538.000    533.174      4.826    518.649    532.403    518.649    519.415    518.649
 85.370    547.000    532.088     14.912    518.585    531.313    518.585    519.355    518.585
 85.470    547.000    531.463     15.537    518.520    530.685    518.520    519.294    518.520
 85.570    539.000    531.221      7.779    518.454    530.438    518.454    519.232    518.454
 85.670    560.000    531.319     28.681    518.386    530.531    518.386    519.169    518.386
 85.770    552.000    531.752     20.248    518.317    530.958    518.317    519.104    518.317
 85.870    537.650    532.560      5.090    518.246    531.760    518.246    519.039    518.246
 85.970    516.000    533.827    -17.827    518.174    533.019    518.174    518.972    518.174
 86.070    512.104    535.677    -23.573    518.100    534.860    518.100    518.905    518.100
 86.170    513.192    538.271    -25.079    518.025    537.445    518.025    518.836    518.025
 86.270    523.597    541.794    -18.197    517.949    540.957    517.949    518.766    517.949
 86.370    550.000    546.435      3.565    517.871    545.585    517.871    518.695    517.871
 86.470    595.257    552.358     42.898    517.792    551.494    517.792    518.624    517.792
 86.570    535.826    559.667    -23.841    517.712    558.786    517.712    518.551    517.712
 86.670    574.255    568.365      5.890    517.630    567.466    517.630    518.477    517.630
 86.770    587.369    578.314      9.056    517.546    577.394    517.546    518.402    517.546
 86.870    569.000    589.203    -20.203    517.461    588.263    517.461    518.326    517.461
 86.970    632.532    600.535     31.997    517.375    599.573    517.375    518.249    517.375
 87.070    638.000    611.616     26.384    517.287    610.634    517.287    518.171    517.287
 87.170    612.000    621.628     -9.628    517.198    620.627    517.198    518.092    517.198
 87.270    635.000    629.663      5.337    517.108    628.646    517.108    518.013    517.108
 87.370    662.000    634.863     27.137    517.016    633.833    517.016    517.932    517.016
 87.470    646.000    636.642      9.358    516.923    635.602    516.923    517.851    516.923
 87.570    671.000    634.844     36.156    516.828    633.799    516.828    517.769    516.828
 87.670    670.938    629.799     41.140    516.732    628.751    516.732    517.686    516.732
 87.770    634.127    622.209     11.917    516.635    621.160    516.635    517.602    516.635
 87.870    676.000    612.983     63.017    516.536    611.932    516.536    517.518    516.536
 87.970    627.000    603.079     23.921    516.436    602.026    516.436    517.433    516.436
 88.070    608.000    593.403     14.597    516.334    592.347    516.334    517.347    516.334
 88.170    586.000    584.740      1.260    516.231    583.680    516.231    517.261    516.231
 88.270    555.000    577.708    -22.708    516.127    576.640    516.127    517.174    516.127
 88.370    623.000    572.733     50.267    516.021    571.656    516.021    517.087    516.021
 88.470    529.710    570.040    -40.330    515.914    568.953    515.914    517.000    515.914
 88.570    605.382    569.662     35.720    515.805    568.561    515.805    516.912    515.805
 88.670    601.000    571.446     29.554    515.695    570.332    515.695    516.824    515.695
 88.770    541.829    575.078    -33.249    515.584    573.948    515.584    516.736    515.584
 88.870    606.883    580.100     26.783    515.472    578.953    515.472    516.647    515.472
 88.970    576.838    585.937     -9.099    515.358    584.771    515.358    516.559    515.358
 89.070    641.000    591.923     49.077    515.242    590.738    515.242    516.471    515.242
 89.170    615.000    597.345     17.655    515.126    596.137    515.126    516.383    515.126
 89.270    561.000    601.497    -40.497    515.007    600.264    515.007    516.296    515.007
 89.370    636.000    603.774     32.226    514.888    602.513    514.888    516.210    514.888
 89.470    650.444    603.790     46.654    514.767    602.496    514.767    516.124    514.767
 89.570    543.000    601.462    -58.462    514.645    600.131    514.645    516.039    514.645
 89.670    560.000    597.021    -37.021    514.522    595.649    514.522    515.955    514.522
 89.770    582.000    590.932     -8.932    514.397    589.513    514.397    515.873    514.397
 89.870    601.682    583.765     17.917    514.271    582.295    514.271    515.792    514.271
 89.970    544.000    576.097    -32.097    514.144    574.572    514.144    515.714    514.144
 90.070    532.000    568.439    -36.439    514.015    566.855    514.015    515.638    514.015
 90.170    564.000    561.205      2.795    513.885    559.557    513.885    515.565    513.885
 90.270    533.000    554.692    -21.692    513.753    552.976    513.753    515.495    513.753
 90.370    509.000    549.082    -40.082    513.621    547.293    513.621    515.429    513.621
 90.470    563.459    544.451     19.008    513.487    542.583    513.487    515.369    513.487
 90.570    530.000    540.790    -10.790    513.351    538.837    513.351    515.315    513.351
 90.670    528.000    538.029    -10.029    513.215    535.982    513.215    515.269    513.215
 90.770    562.332    536.063     26.269    513.077    533.912    513.077    515.233    513.077
 90.870    509.000    534.777    -25.777    512.938    532.508    512.938    515.210    512.938
 90.970    526.000    534.063     -8.063    512.797    531.659    512.797    515.203    512.797
 91.070    530.000    533.839     -3.839    512.656    531.276    512.656    515.218    512.656
 91.170    488.434    534.054    -45.620    512.513    531.304    512.513    515.262    512.513
 91.270    504.798    534.699    -29.901    512.368    531.723    512.368    515.342    512.368
 91.370    526.908    535.803     -8.895    512.223    532.553    512.223    515.470    512.223
 91.470    531.000    537.410     -6.410    512.076    533.823    512.076    515.659    512.076
 91.570    567.340    539.712     27.628    511.928    535.710    511.928    515.925    511.928
 91.670    569.516    542.866     26.650    511.779    538.352    511.779    516.286    511.779
 91.770    532.000    547.059    -15.059    511.629    541.915    511.629    516.763    511.629
 91.870    583.985    552.522     31.463    511.477    546.610    511.477    517.377    511.477
 91.970    540.000    559.503    -19.503    511.324    552.659    511.324    518.152    511.324
 92.070    521.000    568.229    -47.229    511.170    560.271    511.170    519.108    511.170
 92.170    592.888    578.898     13.990    511.015    569.623    511.015    520.264    511.015
 92.270    636.702    591.638     45.065    510.858    580.832    510.858    521.633    510.858
 92.370    590.000    606.485    -16.485    510.701    593.928    510.701    523.220    510.701
 92.470    589.000    623.356    -34.356    510.542    608.833    510.542    525.020    510.542
 92.570    661.000    642.025     18.975    510.382    625.337    510.382    527.018    510.382
 92.670    701.285    662.111     39.174    510.221    643.092    510.221    529.180    510.221
 92.770    701.000    683.073     17.927    510.058    661.608    510.058    531.458    510.058
 92.870    749.267    704.231     45.036    509.895    680.274    509.895    533.782    509.895
 92.970    721.000    724.813     -3.813    509.730    698.411    509.730    536.059    509.730
 93.070    751.000    744.059      6.941    509.564    715.373    509.564    538.174    509.564
 93.170    709.000    761.342    -52.342    509.397    730.668    509.397    539.994    509.397
 93.270    807.078    776.295     30.784    509.229    744.073    509.229    541.374    509.229
 93.370    797.000    788.842      8.158    509.060    755.642    509.060    542.185    509.060
 93.470    775.000    799.138    -24.138    508.890    765.621    508.890    542.333    508.890
 93.570    817.000    807.497      9.503    508.719    774.354    508.719    541.789    508.719
 93.670    793.000    814.325    -21.325    508.546    782.209    508.546    540.592    508.546
 93.770    831.000    820.109     10.891    508.373    789.573    508.373    538.842    508.373
 93.870    859.000    825.431     33.569    508.198    796.891    508.198    536.674    508.198
 93.970    842.854    830.953     11.901    508.023    804.684    508.023    534.230    508.023
 94.070    859.000    837.328     21.672    507.846    813.471    507.846    531.642    507.846
 94.170    899.211    845.031     54.181    507.668    823.617    507.668    529.023    507.668
 94.270    911.459    854.187     57.272    507.490    835.158    507.490    526.462    507.490
 94.370    935.000    864.459     70.541    507.310    847.689    507.310    524.025    507.310
 94.470    908.000    875.023     32.977    507.129    860.342    507.129    521.759    507.129
 94.570    955.000    884.630     70.370    506.947    871.836    506.947    519.695    506.947
 94.670    878.920    891.741    -12.821    506.765    880.618    506.765    517.847    506.765
 94.770    900.000    894.753      5.247    506.581    885.082    506.581    516.219    506.581
 94.870    970.000    892.303     77.697    506.396    883.872    506.396    514.803    506.396
 94.970    886.000    883.587      2.413    506.211    876.196    506.211    513.586    506.211
 95.070    862.386    868.583     -6.197    506.024    862.049    506.024    512.550    506.024
 95.170    877.000    848.066     28.934    505.837    842.230    505.837    511.672    505.837
 95.270    833.543    823.444     10.100    505.648    818.166    505.648    510.931    505.648
 95.370    824.000    796.494     27.506    505.459    791.657    505.459    510.305    505.459
 95.470    783.000    769.140     13.860    505.268    764.646    505.268    509.773    505.268
 95.570    777.000    743.285     33.715    505.077    739.056    505.077    509.317    505.077
 95.670    742.715    720.717     21.999    504.885    716.687    504.885    508.924    504.885
 95.770    740.000    703.032     36.968    504.692    699.151    504.692    508.579    504.692
 95.870    690.843    691.674     -0.831    504.499    687.900    504.499    508.272    504.499
 95.970    684.000    687.843     -3.843    504.304    684.143    504.304    507.997    504.304
 96.070    650.322    692.538    -42.216    504.108    688.886    504.108    507.745    504.108
 96.170    712.000    706.561      5.439    503.912    702.935    503.912    507.514    503.912
 96.270    734.000    730.496      3.504    503.715    726.878    503.715    507.299    503.715
 96.370    783.880    764.669     19.211    503.517    761.042    503.517    507.098    503.517
 96.470    792.000    809.072    -17.072    503.319    805.424    503.319    506.910    503.319
 96.570    956.000    863.274     92.726    503.119    859.592    503.119    506.733    503.119
 96.670    978.000    926.317     51.683    502.919    922.591    502.919    506.567    502.919
 96.770   1011.000    996.639     14.361    502.718    992.859    502.718    506.411    502.718
 96.870   1101.747   1071.998     29.749    502.516   1068.154    502.516    506.264    502.516
 96.970   1178.049   1149.465     28.584    502.314   1145.552    502.314    506.128    502.314
 97.070   1247.000   1225.470     21.530    502.111   1221.479    502.111    506.003    502.111
 97.170   1305.720   1295.911      9.809    501.907   1291.835    501.907    505.888    501.907
 97.270   1347.479   1356.402     -8.923    501.702   1352.235    501.702    505.784    501.702
 97.370   1435.788   1402.690     33.098    501.497   1398.424    501.497    505.692    501.497
 97.470   1480.000   1431.249     48.751    501.291   1426.874    501.291    505.612    501.291
 97.570   1457.544   1439.921     17.623    501.085   1435.425    501.085    505.547    501.085
 97.670   1454.000   1428.356     25.644    500.878   1423.725    500.878    505.498    500.878
 97.770   1391.000   1398.030     -7.030    500.670   1393.243    500.670    505.466    500.670
 97.870   1376.000   1351.854     24.146    500.462   1346.888    500.462    505.455    500.462
 97.970   1254.000   1293.603    -39.603    500.253   1288.430    500.253    505.467    500.253
 98.070   1280.000   1227.391     52.609    500.044   1221.980    500.044    505.506    500.044
 98.170   1114.427   1157.295    -42.869    499.834   1151.605    499.834    505.580    499.834
 98.270   1082.000   1087.115     -5.115    499.623   1081.097    499.623    505.699    499.623
 98.370    999.105   1020.228    -21.123    499.412   1013.826    499.412    505.871    499.412
 98.470    919.000    959.522    -40.522    499.201    952.663    499.201    506.110    499.201
 98.570    801.000    907.370   -106.370    498.989    899.968    498.989    506.436    498.989
 98.670    887.000    865.657     21.343    498.776    857.599    498.776    506.870    498.776
 98.770    789.000    835.818    -46.818    498.563    826.966    498.563    507.442    498.563
 98.870    831.000    818.916     12.084    498.350    809.096    498.350    508.186    498.350
 98.970    785.000    815.705    -30.705    498.136    804.703    498.136    509.146    498.136
 99.070    807.000    826.700    -19.700    497.922    814.251    497.922    510.369    497.922
 99.170    831.000    852.199    -21.199    497.707    837.984    497.707    511.912    497.707
 99.270    918.483    892.287     26.195    497.492    875.927    497.492    513.836    497.492
 99.370    892.757    946.792    -54.035    497.277    927.840    497.277    516.208    497.277
 99.470    943.000   1015.201    -72.201    497.061    993.145    497.061    519.094    497.061
 99.570   1131.000   1096.619     34.381    496.845   1070.883    496.845    522.557    496.845
 99.670   1153.625   1189.618    -35.993    496.629   1159.571    496.629    526.657    496.629
 99.770   1305.000   1292.161     12.839    496.412   1257.125    496.412    531.436    496.412
 99.870   1390.000   1401.553    -11.553    496.195   1360.825    496.195    536.923    496.195
 99.970   1483.000   1514.428    -31.428    495.978   1467.302    495.978    543.118    495.978
100.070   1614.450   1626.814    -12.364    495.761   1572.614    495.761    549.995    495.761
100.170   1741.000   1734.336      6.664    495.543   1672.447    495.543    557.490    495.543
100.270   1881.000   1832.543     48.457    495.326   1762.454    495.326    565.498    495.326
100.370   1833.160   1917.312    -84.153    495.108   1838.662    495.108    573.869    495.108
100.470   2029.000   1985.189     43.811    494.889   1897.816    494.889    582.399    494.889
100.570   2085.819   2033.550     52.269    494.671   1937.549    494.671    590.835    494.671
100.670   2103.000   2060.590     42.410    494.453   1956.364    494.453    598.864    494.453
100.770   2106.000   2065.269     40.731    494.234   1953.582    494.234    606.125    494.234
100.870   2137.000   2047.410     89.590    494.016   1929.417    494.016    612.226    494.016
100.970   2063.000   2007.938     55.062    493.797   1885.183    493.797    616.778    493.797
101.070   1905.000   1949.121    -44.121    493.578   1823.482    493.578    619.446    493.578
101.170   1890.000   1874.562     15.438    493.359   1748.141    493.359    620.007    493.359
101.270   1727.000   1788.880    -61.880    493.141   1663.839    493.141    618.401    493.141
101.370   1641.000   1697.150    -56.150    492.922   1575.542    492.922    614.737    492.922
101.470   1666.000   1604.322     61.678    492.703   1487.942    492.703    609.276    492.703
101.570   1508.000   1514.758     -6.758    492.485   1405.045    492.485    602.374    492.485
101.670   1428.416   1431.937     -3.521    492.266   1329.934    492.266    594.427    492.266
101.770   1337.000   1358.305    -21.305    492.047   1264.672    492.047    585.822    492.047
101.870   1251.000   1295.236    -44.236    491.829   1210.285    491.829    576.908    491.829
101.970   1288.636   1243.073     45.563    491.611   1166.819    491.611    567.978    491.611
102.070   1214.000   1201.212     12.788    491.393   1133.434    491.393    559.274    491.393
102.170   1157.000   1168.248    -11.248    491.175   1108.535    491.175    550.981    491.175
102.270   1139.754   1142.144     -2.389    490.957   1089.952    490.957    543.238    490.957
102.370   1077.000   1120.460    -43.460    490.739   1075.150    490.739    536.135    490.739
102.470   1105.000   1100.618      4.382    490.522   1061.499    490.522    529.726    490.522
102.570   1106.000   1080.219     25.781    490.305   1046.580    490.305    524.030    490.305
102.670   1023.391   1057.344    -33.954    490.088   1028.485    490.088    519.035    490.088
102.770   1081.765   1030.786     50.979    489.872   1006.037    489.872    514.709    489.872
102.870   1045.464   1000.124     45.340    489.656    978.863    489.656    511.004    489.656
102.970    933.000    965.636    -32.636    489.440    947.302    489.440    507.860    489.440
103.070    909.000    928.107    -19.107    489.225    912.204    489.225    505.211    489.225
103.170    841.000    888.607    -47.607    489.010    874.705    489.010    502.991    489.010
103.270    834.000    848.312    -14.312    488.795    836.047    488.795    501.135    488.795
103.370    852.923    808.370     44.553    488.581    797.438    488.581    499.582    488.581
103.470    734.000    769.818    -35.818    488.367    759.968    488.367    498.278    488.367
103.570    692.000    733.523    -41.523    488.154    724.554    488.154    497.178    488.154
103.670    746.000    700.152     45.848    487.942    691.902    487.942    496.239    487.942
103.770    718.000    670.157     47.843    487.730    662.497    487.730    495.430    487.730
103.870    622.044    643.777    -21.733    487.518    636.606    487.518    494.723    487.518
103.970    590.000    621.060    -31.060    487.307    614.298    487.307    494.097    487.307
104.070    617.000    601.891     15.109    487.097    595.476    487.097    493.535    487.097
104.170    638.000    586.031     51.969    486.887    579.912    486.887    493.023    486.887
104.270    526.882    573.158    -46.275    486.678    567.297    486.678    492.553    486.678
104.370    542.447    562.909    -20.462    486.470    557.273    486.470    492.116    486.470
104.470    557.000    554.901      2.099    486.262    549.464    486.262    491.707    486.262
104.570    529.073    548.784    -19.711    486.055    543.524    486.055    491.320    486.055
104.670    542.000    544.231     -2.231    485.849    539.128    485.849    490.954    485.849
104.770    551.689    540.960     10.729    485.643    535.999    485.643    490.606    485.643
104.870    523.872    538.746    -14.875    485.439    533.912    485.439    490.273    485.439
104.970    516.979    537.419    -20.440    485.235    532.699    485.235    489.954    485.235
105.070    572.738    536.860     35.878    485.032    532.242    485.032    489.647    485.032
105.170    524.000    537.001    -13.001    484.830    532.474    484.830    489.353    484.830
105.270    557.124    537.819     19.306    484.629    533.373    484.629    489.069    484.629
105.370    581.000    539.329     41.671    484.429    534.956    484.429    488.795    484.429
105.470    515.417    541.583    -26.166    484.230    537.273    484.230    488.531    484.230
105.570    586.186    544.657     41.530    484.032    540.402    484.032    488.275    484.032
105.670    537.000    548.644    -11.644    483.835    544.437    483.835    488.028    483.835
105.770    586.000    553.645     32.355    483.639    549.478    483.639    487.789    483.639
105.870    551.000    559.749     -8.749    483.444    555.615    483.444    487.558    483.444
105.970    568.000    567.019      0.981    483.250    562.912    483.250    487.335    483.250
106.070    577.000    575.483      1.517    483.057    571.397    483.057    487.118    483.057
106.170    546.000    585.116    -39.116    482.866    581.045    482.866    486.909    482.866
106.270    629.177    595.835     33.342    482.675    591.773    482.675    486.706    482.675
106.370    589.000    607.488    -18.488    482.486    603.429    482.486    486.510    482.486
106.470    594.000    619.858    -25.858    482.298    615.798    482.298    486.320    482.298
106.570    678.704    632.659     46.045    482.112    628.593    482.112    486.137    482.112
106.670    597.332    645.549    -48.217    481.926    641.473    481.926    485.960    481.926
106.770    634.000    658.136    -24.136    481.742    654.045    481.742    485.789    481.742
106.870    668.000    669.997     -1.997    481.560    665.887    481.560    485.624    481.560
106.970    672.706    680.707     -8.001    481.379    676.574    481.379    485.466    481.379
107.070    695.000    689.873      5.127    481.199    685.713    481.199    485.314    481.199
107.170    733.975    697.185     36.790    481.020    692.995    481.020    485.168    481.020
107.270    756.000    702.469     53.531    480.844    698.244    480.844    485.029    480.844
107.370    694.000    705.721    -11.721    480.668    701.458    480.668    484.896    480.668
107.470    739.000    707.120     31.880    480.495    702.814    480.495    484.769    480.495
107.570    687.654    706.999    -19.344    480.322    702.644    480.322    484.649    480.322
107.670    690.000    705.786    -15.786    480.152    701.378    480.152    484.536    480.152
107.770    681.000    703.944    -22.944    479.983    699.478    479.983    484.430    479.983
107.870    717.164    701.910     15.255    479.816    697.381    479.816    484.330    479.816
107.970    712.000    700.047     11.953    479.650    695.449    479.650    484.238    479.650
108.070    689.000    698.620     -9.620    479.486    693.947    479.486    484.153    479.486
108.170    792.000    697.772     94.228    479.324    693.018    479.324    484.076    479.324
108.270    718.676    697.521     21.156    479.164    692.679    479.164    484.007    479.164
108.370    672.000    697.756    -25.756    479.006    692.821    479.006    483.946    479.006
108.470    658.000    698.250    -40.250    478.849    693.214    478.849    483.894    478.849
108.570    695.000    698.677     -3.677    478.694    693.533    478.694    483.851    478.694
108.670    747.884    698.642     49.242    478.542    693.383    478.542    483.817    478.542
108.770    706.256    697.729      8.527    478.391    692.347    478.391    483.792    478.391
108.870    680.000    695.556    -15.556    478.242    690.041    478.242    483.778    478.242
108.970    653.000    691.829    -38.829    478.095    686.173    478.095    483.774    478.095
109.070    712.903    686.393     26.510    477.951    680.587    477.951    483.782    477.951
109.170    668.092    679.249    -11.157    477.808    673.282    477.808    483.801    477.808
109.270    648.000    670.547    -22.547    477.668    664.407    477.668    483.833    477.668
109.370    607.000    660.545    -53.545    477.529    654.222    477.529    483.878    477.529
109.470    643.444    649.574     -6.130    477.393    643.056    477.393    483.937    477.393
109.570    659.000    637.994     21.006    477.260    631.267    477.260    484.010    477.260
109.670    653.000    626.164     26.836    477.128    619.214    477.128    484.100    477.128
109.770    600.000    614.419    -14.419    476.999    607.231    476.999    484.207    476.999
109.870    619.000    603.059     15.941    476.872    595.616    476.872    484.332    476.872
109.970    639.000    592.335     46.665    476.747    584.620    476.747    484.478    476.747
110.070    612.000    582.426     29.574    476.625    574.419    476.625    484.646    476.625
110.170    556.000    573.510    -17.510    476.506    565.189    476.506    484.838    476.506
110.270    618.000    565.695     52.305    476.388    557.039    476.388    485.053    476.388
110.370    567.000    559.016      7.984    476.274    549.994    476.274    485.303    476.274
110.470    587.000    553.470     33.530    476.162    544.047    476.162    485.589    476.162
110.570    564.000    549.022     14.978    476.052    539.162    476.052    485.915    476.052
110.670    501.858    545.613    -43.755    475.945    535.271    475.945    486.289    475.945
110.770    499.103    543.164    -44.061    475.841    532.286    475.841    486.719    475.841
110.870    571.000    541.587     29.413    475.739    530.111    475.739    487.214    475.739
110.970    542.000    540.790      1.210    475.641    528.641    475.641    487.788    475.641
111.070    563.000    540.689     22.311    475.545    527.774    475.545    488.456    475.545
111.170    571.333    541.204     30.129    475.452    527.414    475.452    489.237    475.452
111.270    526.000    542.269    -16.269    475.361    527.471    475.361    490.154    475.361
111.370    524.000    543.825    -19.825    475.274    527.867    475.274    491.226    475.274
111.470    500.189    545.853    -45.663    475.189    528.533    475.189    492.503    475.189
111.570    553.000    548.326      4.674    475.108    529.413    475.108    494.014    475.108
111.670    568.000    551.242     16.758    475.029    530.460    475.029    495.803    475.029
111.770    534.150    554.615    -20.466    474.954    531.640    474.954    497.921    474.954
111.870    550.000    558.477     -8.477    474.881    532.928    474.881    500.423    474.881
111.970    585.256    562.876     22.380    474.812    534.310    474.812    503.370    474.812
112.070    557.958    567.874     -9.916    474.746    535.783    474.746    506.829    474.746
112.170    566.983    573.549     -6.566    474.683    537.354    474.683    510.870    474.683
112.270    615.000    579.989     35.011    474.624    539.038    474.624    515.566    474.624
112.370    572.000    587.289    -15.289    474.567    540.858    474.567    520.989    474.567
112.470    614.941    595.551     19.390    474.514    542.847    474.514    527.209    474.514
112.570    574.000    604.879    -30.879    474.465    545.044    474.465    534.290    474.465
112.670    656.499    615.380     41.119    474.418    547.501    474.418    542.288    474.418
112.770    588.000    627.160    -39.160    474.376    550.282    474.376    551.244    474.376
112.870    601.530    640.327    -38.797    474.336    553.468    474.336    561.185    474.336
112.970    614.000    654.992    -40.992    474.301    557.168    474.301    572.114    474.301
113.070    642.918    671.274    -28.356    474.268    561.519    474.268    584.012    474.268
113.170    664.000    689.309    -25.309    474.240    566.706    474.240    596.830    474.240
113.270    727.000    709.256     17.744    474.215    572.970    474.215    610.487    474.215
113.370    753.254    731.314     21.940    474.194    580.625    474.194    624.867    474.194
113.470    780.000    755.737     24.263    474.176    590.081    474.176    639.815    474.176
113.570    747.000    782.856    -35.856    474.163    601.863    474.163    655.135    474.163
113.670    802.000    813.098    -11.098    474.153    616.639    474.153    670.588    474.153
113.770    797.000    847.016    -50.016    474.147    635.245    474.147    685.888    474.147
113.870    860.621    885.312    -24.691    474.145    658.714    474.145    700.706    474.145
113.970    962.414    928.868     33.546    474.147    688.298    474.147    714.671    474.147
114.070   1017.167    978.769     38.398    474.153    725.487    474.153    727.378    474.153
114.170   1037.000   1036.339      0.661    474.163    772.027    474.163    738.405    474.163
114.270   1085.000   1103.159    -18.159    474.177    829.910    474.177    747.339    474.177
114.370   1201.000   1181.085     19.915    474.195    901.365    474.195    753.807    474.195
114.470   1206.186   1272.251    -66.065    474.218    988.818    474.218    757.519    474.218
114.570   1463.000   1379.042     83.958    474.244   1094.827    474.244    758.298    474.244
114.670   1532.000   1504.028     27.972    474.275   1222.000    474.275    756.108    474.275
114.770   1653.000   1649.852      3.148    474.310   1372.873    474.310    751.056    474.310
114.870   1961.000   1819.078    141.922    474.350   1549.773    474.350    743.378    474.350
114.970   1957.783   2013.986    -56.203    474.394   1754.646    474.394    733.410    474.394
115.070   2269.120   2236.361     32.759    474.442   1988.880    474.442    721.550    474.442
115.170   2513.000   2487.259     25.741    474.495   2253.109    474.495    708.219    474.495
115.270   2802.000   2766.796     35.204    474.553   2547.036    474.553    693.834    474.553
115.370   3099.000   3073.956     25.044    474.615   2869.257    474.615    678.784    474.615
115.470   3424.000   3406.446     17.554    474.682   3217.127    474.682    663.422    474.682
115.570   3745.000   3760.590    -15.590    474.753   3586.664    474.753    648.055    474.753
115.670   4111.000   4131.285    -20.285    474.829   3972.509    474.829    632.946    474.829
115.770   4578.000   4512.025     65.975    474.910   4367.936    474.910    618.312    474.910
115.870   4830.000   4894.973    -64.973    474.996   4764.938    474.996    604.329    474.996
115.970   5145.000   5271.120   -126.120    475.087   5154.370    475.087    591.132    475.087
116.070   5594.000   5630.500    -36.500    475.183   5526.171    475.183    578.820    475.183
116.170   6067.721   5962.501    105.220    475.283   5869.666    475.283    567.458    475.283
116.270   6302.000   6256.277     45.723    475.389   6173.975    475.389    557.078    475.389
116.370   6658.175   6501.290    156.886    475.500   6428.551    475.500    547.690    475.500
116.470   6648.704   6687.978    -39.273    475.616   6623.847    475.616    539.278    475.616
116.570   6762.138   6808.524    -46.387    475.737   6752.080    475.737    531.807    475.737
116.670   6984.572   6857.610    126.962    475.863   6807.973    475.863    525.228    475.863
116.770   6872.586   6832.991     39.595    475.994   6789.340    475.994    519.482    475.994
116.870   6715.873   6735.755    -19.882    476.131   6697.331    476.131    514.501    476.131
116.970   6551.000   6570.175    -19.175    476.273   6536.283    476.273    510.213    476.273
117.070   6247.000   6343.197    -96.197    476.421   6313.213    476.421    506.546    476.421
117.170   5921.279   6063.740   -142.461    476.574   6037.108    476.574    503.429    476.574
117.270   5631.000   5741.958   -110.958    476.733   5718.188    476.733    500.792    476.733
117.370   5195.000   5388.448   -193.448    476.897   5367.114    476.897    498.573    476.897
117.470   4800.000   5013.754   -213.754    477.067   4994.487    477.067    496.711    477.067
117.570   4503.411   4627.908   -124.496    477.243   4610.394    477.243    495.155    477.243
117.670   4153.257   4240.104    -86.847    477.424   4224.077    477.424    493.857    477.424
117.770   3891.000   3858.461     32.539    477.611   3843.698    477.611    492.777    477.611
117.870   3552.000   3489.865     62.135    477.804   3476.178    477.804    491.879    477.804
117.970   3225.684   3139.883     85.801    478.003   3127.119    478.003    491.133    478.003
118.070   2921.000   2812.749    108.251    478.208   2800.779    478.208    490.515    478.208
118.170   2588.384   2511.399     76.985    478.418   2500.119    478.418    490.004    478.418
118.270   2274.184   2237.571     36.612    478.635   2226.895    478.635    489.581    478.635
118.370   1949.000   1991.932    -42.932    478.858   1981.790    478.858    489.235    478.858
118.470   1836.425   1774.233     62.192    479.087   1764.567    479.087    488.952    479.087
118.570   1507.000   1583.480    -76.480    479.323   1574.243    479.323    488.725    479.323
118.670   1389.470   1418.103    -28.633    479.564   1409.258    479.564    488.546    479.564
118.770   1338.000   1276.126     61.874    479.812   1267.640    479.812    488.408    479.812
118.870   1140.000   1155.322    -15.322    480.067   1147.167    480.067    488.308    480.067
118.970   1031.000   1053.349    -22.349    480.327   1045.500    480.327    488.241    480.327
119.070    949.712    967.864    -18.152    480.595    960.302    480.595    488.205    480.595
119.170    894.625    896.618     -1.993    480.868    889.325    480.868    488.197    480.868
119.270    828.000    837.517     -9.517    481.149    830.475    481.149    488.216    481.149
119.370    843.658    788.663     54.994    481.436    781.856    481.436    488.260    481.436
119.470    765.468    748.378     17.090    481.729    741.791    481.729    488.328    481.729
119.570    687.055    715.206    -28.151    482.030    708.825    482.030    488.419    482.030
119.670    640.195    687.909    -47.714    482.337    681.719    482.337    488.533    482.337
119.770    675.000    665.448      9.552    482.652    659.434    482.652    488.668    482.652
119.870    610.154    646.964    -36.810    482.973    641.114    482.973    488.826    482.973
119.970    634.000    631.757      2.243    483.301    626.055    483.301    489.005    483.301
120.070    607.000    619.261    -12.261    483.636    613.693    483.636    489.206    483.636
120.170    596.245    609.021    -12.776    483.978    603.573    483.978    489.428    483.978
120.270    561.000    600.677    -39.677    484.328    595.335    484.328    489.673    484.328
120.370    589.000    593.945     -4.945    484.685    588.692    484.685    489.940    484.685
120.470    558.000    588.600    -30.600    485.049    583.421    485.049    490.231    485.049
120.570    541.000    584.467    -43.467    485.420    579.347    485.420    490.544    485.420
120.670    585.000    581.409      3.591    485.799    576.331    485.799    490.881    485.799
120.770    608.807    579.318     29.489    486.185    574.265    486.185    491.243    486.185
120.870    604.070    578.110     25.960    486.579    573.065    486.579    491.630    486.579
120.970    571.000    577.717     -6.717    486.980    572.662    486.980    492.042    486.980
121.070    560.464    578.080    -17.616    487.389    572.999    487.389    492.479    487.389
121.170    576.000    579.151     -3.151    487.806    574.024    487.806    492.942    487.806
121.270    626.953    580.881     46.072    488.231    575.691    488.231    493.431    488.231
121.370    596.000    583.223     12.777    488.663    577.953    488.663    493.945    488.663
121.470    588.000    586.127      1.873    489.103    580.759    489.103    494.485    489.103
121.570    565.215    589.537    -24.322    489.551    584.055    489.551    495.049    489.551
121.670    586.000    593.392     -7.392    490.008    587.780    490.008    495.638    490.008
121.770    603.533    597.619      5.914    490.472    591.863    490.472    496.248    490.472
121.870    617.000    602.141     14.859    490.944    596.228    490.944    496.880    490.944
121.970    599.522    606.869     -7.347    491.425    600.789    491.425    497.531    491.425
122.070    629.000    611.708     17.292    491.914    605.452    491.914    498.198    491.914
122.170    632.000    616.554     15.446    492.411    610.117    492.411    498.879    492.411
122.270    630.000    621.297      8.703    492.917    614.676    492.917    499.571    492.917
122.370    590.000    625.824    -35.824    493.431    619.019    493.431    500.271    493.431
122.470    620.870    630.020     -9.150    493.953    623.038    493.953    500.974    493.953
122.570    634.000    633.776      0.224    494.484    626.625    494.484    501.676    494.484
122.670    624.557    636.991    -12.434    495.024    629.686    495.024    502.372    495.024
122.770    671.382    639.578     31.804    495.572    632.138    495.572    503.057    495.572
122.870    628.000    641.473    -13.473    496.130    633.921    496.130    503.727    496.130
122.970    632.000    642.633    -10.633    496.696    634.998    496.696    504.378    496.696
123.070    657.000    643.045     13.955    497.271    635.359    497.271    505.003    497.271
123.170    623.916    642.722    -18.806    497.855    635.021    497.855    505.602    497.855
123.270    648.000    641.700      6.300    498.448    634.023    498.448    506.171    498.448
123.370    680.077    640.035     40.042    499.050    632.421    499.050    506.709    499.050
123.470    623.000    637.799    -14.799    499.661    630.285    499.661    507.218    499.661
123.570    645.000    635.070      9.930    500.282    627.695    500.282    507.699    500.282
123.670    601.338    631.936    -30.598    500.911    624.731    500.911    508.155    500.911
123.770    671.079    628.481     42.598    501.551    621.478    501.551    508.590    501.551
123.870    642.000    624.790     17.210    502.199    618.013    502.199    509.009    502.199
123.970    597.983    620.941    -22.958    502.857    614.412    502.857    509.417    502.857
124.070    574.943    617.007    -42.064    503.525    610.740    503.525    509.819    503.525
124.170    597.000    613.049    -16.049    504.202    607.057    504.202    510.219    504.202
124.270    594.000    609.120    -15.120    504.889    603.410    504.889    510.621    504.889
124.370    612.132    605.261      6.871    505.586    599.835    505.586    511.030    505.586
124.470    612.000    601.502     10.498    506.293    596.361    506.293    511.450    506.293
124.570    584.000    597.863    -13.863    507.009    593.004    507.009    511.882    507.009
124.670    573.542    594.357    -20.815    507.736    589.773    507.736    512.331    507.736
124.770    577.000    590.986    -13.986    508.473    586.670    508.473    512.798    508.473
124.870    639.000    587.750     51.250    509.219    583.691    509.219    513.286    509.219
124.970    593.000    584.645      8.355    509.976    580.832    509.976    513.796    509.976
