neutron_powder_diffraction_0035
R_wp: 3.764
Temperature (K): 568.490
Counts: 83981.00
Wavelength (Ã…): 2.52098
COMMENTS
Test file for demonstrating the .xyy file format in Reel1.0
END OF HEADER
   tth       Y_obs     Y_calc      Y_res    Background    Phase_1_Nuc    Phase_1_Mag    Phase_2_Nuc    Phase_2_Mag
  9.970    685.460    699.652    -14.193    698.043    699.145    698.550    698.043    698.043
 10.070    719.000    698.866     20.134    697.162    698.353    697.675    697.162    697.162
 10.170    753.000    698.095     54.905    696.284    697.576    696.802    696.284    696.284
 10.270    659.278    697.342    -38.064    695.410    696.818    695.933    695.410    695.410
 10.370    727.000    696.610     30.390    694.538    696.081    695.067    694.538    694.538
 10.470    740.000    695.908     44.092    693.670    695.372    694.205    693.670    693.670
 10.570    709.000    695.232     13.768    692.805    694.690    693.346    692.805    692.805
 10.670    730.000    694.591     35.409    691.944    694.043    692.490    691.944    691.944
 10.770    689.000    693.997     -4.997    691.085    693.443    691.638    691.085    691.085
 10.870    749.000    693.456     55.544    690.230    692.895    690.789    690.230    690.230
 10.970    694.000    692.984      1.016    689.378    692.417    689.944    689.378    689.378
 11.070    675.000    692.603    -17.603    688.530    692.030    689.101    688.530    688.530
 11.170    672.226    692.344    -20.119    687.684    691.764    688.262    687.684    687.684
 11.270    745.478    692.249     53.230    686.842    691.661    687.427    686.842    686.842
 11.370    744.000    692.390     51.610    686.004    691.795    686.595    686.004    686.004
 11.470    732.000    692.907     39.093    685.168    692.305    685.766    685.168    685.168
 11.570    725.000    694.102     30.898    684.336    693.492    684.941    684.336    684.336
 11.670    729.000    696.621     32.379    683.507    696.003    684.119    683.507    683.507
 11.770    755.461    701.702     53.760    682.681    701.073    683.300    682.681    682.681
 11.870    735.000    711.242     23.758    681.859    710.599    682.485    681.859    681.859
 11.970    730.768    727.259      3.509    681.040    726.600    681.674    681.040    681.040
 12.070    808.216    750.345     57.871    680.224    749.666    680.865    680.224    680.224
 12.170    851.000    776.990     74.010    679.412    776.287    680.060    679.412    679.412
 12.270    823.000    797.102     25.898    678.602    796.380    679.259    678.602    678.602
 12.370    876.000    798.366     77.634    677.797    797.635    678.461    677.797    677.797
 12.470    767.000    779.190    -12.190    676.994    778.461    677.667    676.994    676.994
 12.570    748.000    751.048     -3.048    676.195    750.326    676.876    676.195    676.195
 12.670    722.000    725.272     -3.272    675.399    724.556    676.088    675.399    675.399
 12.770    680.000    706.401    -26.401    674.606    705.686    675.304    674.606    674.606
 12.870    710.000    694.320     15.680    673.817    693.602    674.524    673.817    673.817
 12.970    677.000    687.052    -10.052    673.031    686.328    673.747    673.031    673.031
 13.070    631.000    682.624    -51.624    672.248    681.894    672.973    672.248    672.248
 13.170    662.000    679.686    -17.686    671.469    678.947    672.203    671.469    671.469
 13.270    599.000    677.563    -78.563    670.693    676.816    671.436    670.693    670.693
 13.370    684.000    675.856      8.144    669.920    675.100    670.673    669.920    669.920
 13.470    662.000    674.335    -12.335    669.151    673.569    669.914    669.151    669.151
 13.570    643.000    672.981    -29.981    668.385    672.206    669.158    668.385    668.385
 13.670    645.000    671.753    -26.753    667.622    670.968    668.405    667.622    667.622
 13.770    647.000    670.621    -23.621    666.862    669.826    667.656    666.862    666.862
 13.870    655.594    669.562    -13.968    666.106    668.756    666.910    666.106    666.106
 13.970    642.000    668.560    -26.560    665.353    667.744    666.168    665.353    665.353
 14.070    731.000    667.605     63.395    664.604    666.778    665.430    664.604    664.604
 14.170    634.359    666.687    -32.329    663.858    665.849    664.695    663.858    663.858
 14.270    656.401    665.800     -9.399    663.115    664.951    663.963    663.115    663.115
 14.370    643.000    664.939    -21.939    662.376    664.078    663.236    662.376    662.376
 14.470    663.000    664.100     -1.100    661.639    663.227    662.511    661.639    661.639
 14.570    626.000    663.280    -37.280    660.907    662.395    661.791    660.907    660.907
 14.670    625.261    662.476    -37.215    660.177    661.579    661.074    660.177    660.177
 14.770    641.000    661.688    -20.688    659.451    660.778    660.360    659.451    659.451
 14.870    655.000    660.917     -5.917    658.728    659.994    659.651    658.728    658.728
 14.970    706.854    660.152     46.702    658.009    659.216    658.944    658.009    658.009
 15.070    682.000    659.396     22.604    657.292    658.447    658.242    657.292    657.292
 15.170    644.000    658.651    -14.651    656.580    657.687    657.543    656.580    656.580
 15.270    681.462    657.913     23.549    655.870    656.935    656.847    655.870    655.870
 15.370    645.564    657.184    -11.620    655.164    656.192    656.156    655.164    655.164
 15.470    611.000    656.462    -45.462    654.461    655.455    655.468    654.461    654.461
 15.570    621.000    655.748    -34.748    653.762    654.726    654.783    653.762    653.762
 15.670    668.793    655.045     13.748    653.065    654.007    654.103    653.065    653.065
 15.770    642.000    654.344    -12.344    652.372    653.291    653.426    652.372    652.372
 15.870    674.000    653.649     20.351    651.683    652.580    652.752    651.683    651.683
 15.970    601.422    652.964    -51.542    650.997    651.878    652.083    650.997    650.997
 16.070    662.000    652.302      9.698    650.314    651.199    651.417    650.314    650.314
 16.170    628.045    651.633    -23.588    649.634    650.513    650.754    649.634    649.634
 16.270    676.000    650.961     25.039    648.958    649.823    650.096    648.958    648.958
 16.370    674.000    650.293     23.707    648.285    649.137    649.441    648.285    648.285
 16.470    630.000    649.631    -19.631    647.616    648.456    648.790    647.616    647.616
 16.570    683.660    648.973     34.687    646.949    647.779    648.143    646.949    646.949
 16.670    633.309    648.320    -15.011    646.286    647.107    647.500    646.286    646.286
 16.770    668.000    647.672     20.328    645.627    646.439    646.860    645.627    645.627
 16.870    606.000    647.029    -41.029    644.970    645.775    646.225    644.970    644.970
 16.970    640.223    646.391     -6.168    644.318    645.115    645.593    644.318    644.318
 17.070    638.000    645.758     -7.758    643.668    644.461    644.965    643.668    643.668
 17.170    591.760    645.136    -53.376    643.022    643.817    644.341    643.022    643.022
 17.270    667.043    644.519     22.524    642.378    643.177    643.721    642.378    642.378
 17.370    608.000    643.905    -35.905    641.739    642.539    643.105    641.739    641.739
 17.470    650.000    643.341      6.659    641.102    641.949    642.494    641.102    641.102
 17.570    672.033    642.758     29.274    640.469    641.342    641.886    640.469    640.469
 17.670    677.785    642.156     35.630    639.839    640.713    641.282    639.839    639.839
 17.770    617.000    641.555    -24.555    639.213    640.086    640.681    639.213    639.213
 17.870    605.591    640.958    -35.368    638.590    639.463    640.085    638.590    638.590
 17.970    644.308    640.366      3.942    637.970    638.844    639.492    637.970    637.970
 18.070    630.000    639.779     -9.779    637.353    638.228    638.904    637.353    637.353
 18.170    675.000    639.197     35.803    636.740    637.617    638.320    636.740    636.740
 18.270    607.000    638.619    -31.619    636.130    637.009    637.740    636.130    636.130
 18.370    672.000    638.045     33.955    635.523    636.405    637.164    635.523    635.523
 18.470    607.000    637.476    -30.476    634.920    635.804    636.592    634.920    634.920
 18.570    585.000    636.913    -51.913    634.320    635.208    636.025    634.320    634.320
 18.670    586.580    636.364    -49.783    633.723    634.625    635.462    633.723    633.723
 18.770    656.108    635.813     20.296    633.130    634.039    634.903    633.130    633.130
 18.870    606.000    635.263    -29.263    632.539    633.454    634.348    632.539    632.539
 18.970    638.000    634.720      3.280    631.952    632.874    633.798    631.952    631.952
 19.070    686.700    634.183     52.517    631.369    632.299    633.252    631.369    631.369
 19.170    656.000    633.648     22.352    630.788    631.726    632.711    630.788    630.788
 19.270    658.000    633.118     24.882    630.211    631.155    632.174    630.211    630.211
 19.370    641.000    632.593      8.407    629.637    630.589    631.642    629.637    629.637
 19.470    645.043    632.073     12.970    629.066    630.026    631.114    629.066    629.066
 19.570    613.000    631.558    -18.558    628.499    629.467    630.591    628.499    628.499
 19.670    628.864    631.050     -2.186    627.935    628.912    630.073    627.935    627.935
 19.770    586.898    630.563    -43.665    627.374    628.374    629.563    627.374    627.374
 19.870    597.561    630.141    -32.579    626.816    627.887    629.070    626.816    626.816
 19.970    610.000    629.663    -19.663    626.262    627.357    628.569    626.262    626.262
 20.070    596.000    629.177    -33.177    625.711    626.818    628.070    625.711    625.711
 20.170    615.834    628.696    -12.862    625.163    626.282    627.576    625.163    625.163
 20.270    575.465    628.221    -52.756    624.619    625.751    627.088    624.619    624.619
 20.370    662.000    627.755     34.245    624.077    625.226    626.606    624.077    624.077
 20.470    619.000    627.321     -8.321    623.539    624.721    626.139    623.539    623.539
 20.570    600.000    626.921    -26.921    623.004    624.249    625.676    623.004    623.004
 20.670    601.893    626.513    -24.620    622.472    623.774    625.211    622.472    622.472
 20.770    575.000    626.078    -51.078    621.944    623.271    624.750    621.944    621.944
 20.870    622.000    625.684     -3.684    621.418    622.806    624.296    621.418    621.418
 20.970    644.309    625.304     19.005    620.896    622.353    623.848    620.896    620.896
 21.070    642.585    624.904     17.680    620.378    621.874    623.408    620.378    620.378
 21.170    608.000    624.496    -16.496    619.862    621.385    622.973    619.862    619.862
 21.270    618.000    624.090     -6.090    619.349    620.897    622.543    619.349    619.349
 21.370    573.753    623.692    -49.940    618.840    620.414    622.119    618.840    618.840
 21.470    651.587    623.303     28.284    618.334    619.936    621.701    618.334    618.334
 21.570    600.215    622.924    -22.709    617.831    619.464    621.291    617.831    617.831
 21.670    669.600    622.556     47.045    617.332    618.999    620.888    617.332    617.332
 21.770    592.950    622.200    -29.250    616.835    618.543    620.492    616.835    616.835
 21.870    604.000    621.856    -17.856    616.342    618.094    620.104    616.342    616.342
 21.970    639.000    621.515     17.485    615.852    617.644    619.723    615.852    615.852
 22.070    638.627    621.186     17.441    615.365    617.200    619.351    615.365    615.365
 22.170    629.609    620.868      8.741    614.881    616.762    618.987    614.881    614.881
 22.270    554.000    620.564    -66.564    614.400    616.332    618.632    614.400    614.400
 22.370    618.000    620.273     -2.273    613.922    615.910    618.286    613.922    613.922
 22.470    599.352    619.997    -20.645    613.448    615.496    617.949    613.448    613.448
 22.570    575.581    619.737    -44.157    612.977    615.092    617.622    612.977    612.977
 22.670    623.000    619.497      3.503    612.509    614.700    617.306    612.509    612.509
 22.770    618.000    619.274     -1.274    612.044    614.318    617.000    612.044    612.044
 22.870    598.118    619.074    -20.956    611.582    613.950    616.706    611.582    611.582
 22.970    570.553    618.896    -48.343    611.123    613.595    616.424    611.123    611.123
 23.070    567.643    618.744    -51.101    610.668    613.258    616.154    610.668    610.668
 23.170    624.000    618.625      5.375    610.215    612.942    615.899    610.215    610.215
 23.270    577.000    618.542    -41.542    609.766    612.650    615.658    609.766    609.766
 23.370    619.558    618.494      1.064    609.319    612.384    615.430    609.319    609.319
 23.470    624.000    618.492      5.508    608.876    612.151    615.218    608.876    608.876
 23.570    626.000    618.547      7.453    608.436    611.960    615.023    608.436    608.436
 23.670    615.000    618.669     -3.669    607.999    611.823    614.846    607.999    607.999
 23.770    627.000    618.877      8.123    607.565    611.755    614.689    607.565    607.565
 23.870    617.000    619.192     -2.192    607.134    611.777    614.551    607.134    607.134
 23.970    600.177    619.650    -19.473    606.707    611.924    614.435    606.707    606.707
 24.070    616.000    620.312     -4.312    606.282    612.254    614.342    606.282    606.282
 24.170    649.000    621.298     27.702    605.860    612.886    614.275    605.860    605.860
 24.270    625.000    622.858      2.142    605.442    614.069    614.235    605.442    605.442
 24.370    577.316    625.496    -48.180    605.026    616.303    614.225    605.026    605.026
 24.470    637.000    630.082      6.918    604.614    620.458    614.247    604.614    604.614
 24.570    651.000    637.802     13.198    604.204    627.717    614.304    604.204    604.204
 24.670    640.322    649.714     -9.392    603.798    639.135    614.400    603.798    603.798
 24.770    711.000    665.760     45.240    603.394    654.651    614.538    603.394    603.394
 24.870    667.806    683.221    -15.415    602.994    671.540    614.721    602.994    602.994
 24.970    669.000    695.591    -26.591    602.596    683.287    614.956    602.596    602.596
 25.070    708.000    695.942     12.058    602.202    682.953    615.247    602.202    602.202
 25.170    642.513    684.280    -41.767    601.811    670.537    615.601    601.811    601.811
 25.270    690.000    667.548     22.452    601.422    652.980    616.025    601.422    601.422
 25.370    652.131    652.266     -0.135    601.037    636.799    616.526    601.037    601.037
 25.470    682.878    641.168     41.710    600.654    624.720    617.116    600.654    600.654
 25.570    650.000    634.325     15.675    600.275    616.804    617.805    600.275    600.275
 25.670    642.000    630.700     11.300    599.898    611.998    618.606    599.898    599.898
 25.770    588.580    629.125    -40.545    599.525    609.117    619.536    599.525    599.525
 25.870    605.545    628.752    -23.207    599.154    607.297    620.611    599.154    599.154
 25.970    670.000    629.105     40.895    598.787    606.037    621.856    598.787    598.787
 26.070    626.000    629.963     -3.963    598.422    605.090    623.295    598.422    598.422
 26.170    589.522    631.244    -41.722    598.060    604.342    624.962    598.060    598.060
 26.270    656.000    632.930     23.070    597.701    603.734    626.896    597.701    597.701
 26.370    685.710    635.038     50.672    597.345    603.238    629.145    597.345    597.345
 26.470    616.000    637.612    -21.612    596.992    602.834    631.769    596.992    596.992
 26.570    644.000    640.717      3.283    596.642    602.514    634.844    596.642    596.642
 26.670    617.000    644.447    -27.447    596.295    602.272    638.467    596.295    596.295
 26.770    659.000    648.923     10.077    595.951    602.110    642.761    595.951    595.951
 26.870    627.000    654.307    -27.307    595.609    602.030    647.883    595.609    595.609
 26.970    685.000    660.828     24.172    595.271    602.047    654.047    595.271    595.271
 27.070    642.835    668.775    -25.940    594.935    602.166    661.539    594.935    594.935
 27.170    698.189    678.568     19.621    594.602    602.415    670.749    594.602    594.602
 27.270    716.130    690.790     25.340    594.272    602.827    682.227    594.272    594.272
 27.370    660.192    706.282    -46.089    593.945    603.452    696.765    593.945    593.945
 27.470    729.000    726.321      2.679    593.621    604.366    715.562    593.621    593.621
 27.570    716.000    753.125    -37.125    593.300    605.701    740.707    593.300    593.300
 27.670    774.810    791.777    -16.967    592.981    607.758    776.977    592.981    592.981
 27.770    881.047    857.267     23.780    592.665    611.420    838.472    592.665    592.665
 27.870   1046.149    994.313     51.836    592.352    619.320    967.263    592.352    592.352
 27.970   1271.784   1312.368    -40.584    592.042    637.891   1266.338    592.042    592.042
 28.070   1952.000   2001.423    -49.423    591.735    678.300   1914.496    591.735    591.735
 28.170   3311.511   3239.196     72.314    591.430    751.005   3079.025    591.430    591.430
 28.270   4799.836   4937.859   -138.023    591.129    850.899   4677.328    591.129    591.129
 28.370   6312.000   6494.574   -182.574    590.830    942.693   6142.028    590.830    590.830
 28.470   6972.852   6982.607     -9.755    590.533    972.230   6600.544    590.533    590.533
 28.570   6123.000   6065.902     57.098    590.240    920.403   5735.659    590.240    590.240
 28.670   4822.000   4535.452    286.548    589.949    834.934   4290.491    589.949    589.949
 28.770   3287.000   3368.408    -81.408    589.661    775.048   3183.013    589.661    589.661
 28.870   2995.000   2993.990      1.010    589.376    767.291   2816.006    589.376    589.376
 28.970   3301.000   3286.384     14.616    589.094    802.917   3072.493    589.094    589.094
 29.070   3843.025   3778.011     65.015    588.814    848.346   3518.521    588.814    588.814
 29.170   3977.000   3912.899     64.101    588.537    861.444   3640.194    588.537    588.537
 29.270   3457.000   3442.102     14.898    588.262    823.439   3207.205    588.262    588.262
 29.370   2593.000   2636.442    -43.442    587.991    757.360   2467.322    587.991    587.991
 29.470   1865.000   1874.413     -9.413    587.722    694.705   1767.600    587.722    587.722
 29.570   1331.000   1336.796     -5.796    587.455    650.499   1273.849    587.455    587.455
 29.670   1051.660   1026.521     25.139    587.192    625.028    988.733    587.192    587.192
 29.770    927.000    869.057     57.943    586.931    612.157    843.854    586.931    586.931
 29.870    814.000    790.909     23.091    586.673    605.833    771.761    586.673    586.673
 29.970    760.132    747.959     12.173    586.417    602.428    731.955    586.417    586.417
 30.070    734.000    720.408     13.592    586.164    600.326    706.249    586.164    586.164
 30.170    746.151    700.691     45.460    585.914    598.929    687.677    585.914    585.914
 30.270    632.453    685.910    -53.457    585.666    598.041    673.536    585.666    585.666
 30.370    693.000    674.823     18.177    585.421    597.648    662.594    585.421    585.421
 30.470    616.457    667.045    -50.589    585.178    597.934    654.286    585.178    585.178
 30.570    668.000    663.070      4.930    584.938    599.417    648.585    584.938    584.938
 30.670    665.000    664.460      0.540    584.701    603.098    646.051    584.701    584.701
 30.770    700.000    673.580     26.420    584.466    610.352    647.673    584.466    584.466
 30.870    739.446    692.163     47.283    584.234    622.185    654.175    584.234    584.234
 30.970    726.000    718.617      7.383    584.004    637.841    664.726    584.004    584.004
 31.070    738.000    744.915     -6.915    583.777    653.166    675.456    583.777    583.777
 31.170    743.267    756.315    -13.047    583.553    660.477    679.316    583.553    583.553
 31.270    710.317    742.804    -32.488    583.331    654.558    671.514    583.331    583.331
 31.370    727.000    712.078     14.922    583.111    639.470    655.674    583.111    583.111
 31.470    672.891    678.814     -5.922    582.894    622.933    638.747    582.894    582.894
 31.570    708.000    652.068     55.932    582.680    609.716    625.016    582.680    582.680
 31.670    671.789    634.152     37.637    582.468    601.047    615.563    582.468    582.468
 31.770    645.000    623.484     21.516    582.259    596.112    609.625    582.259    582.259
 31.870    639.828    617.401     22.428    582.052    593.524    605.924    582.052    582.052
 31.970    680.000    613.772     66.228    581.847    592.177    603.439    581.847    581.847
 32.070    631.000    611.380     19.620    581.645    591.442    601.580    581.645    581.645
 32.170    604.000    609.660     -5.660    581.446    591.031    600.072    581.446    581.446
 32.270    620.000    608.377     11.623    581.249    590.830    598.793    581.249    581.249
 32.370    643.000    607.435     35.565    581.054    590.795    597.691    581.054    581.054
 32.470    652.000    606.791     45.209    580.862    590.914    596.736    580.862    580.862
 32.570    584.000    606.428    -22.428    580.672    591.187    595.911    580.672    580.672
 32.670    637.000    606.351     30.649    580.484    591.626    595.207    580.484    580.484
 32.770    648.000    606.577     41.423    580.299    592.256    594.618    580.299    580.299
 32.870    671.000    607.145     63.855    580.117    593.111    594.148    580.117    580.117
 32.970    612.000    608.114      3.886    579.937    594.244    593.804    579.937    579.937
 33.070    626.494    609.577     16.917    579.759    595.731    593.602    579.759    579.759
 33.170    661.000    611.674     49.326    579.583    597.688    593.567    579.583    579.583
 33.270    595.000    614.646    -19.646    579.410    600.304    593.749    579.410    579.410
 33.370    659.000    618.955     40.045    579.239    603.947    594.244    579.239    579.239
 33.470    629.000    625.612      3.388    579.071    609.409    595.269    579.071    579.071
 33.570    613.000    636.842    -23.842    578.905    618.440    597.299    578.905    578.905
 33.670    642.000    657.095    -15.095    578.741    634.532    601.293    578.741    578.741
 33.770    744.000    693.791     50.209    578.579    663.509    608.845    578.579    578.579
 33.870    720.000    756.338    -36.338    578.420    712.751    621.980    578.420    578.420
 33.970    853.000    851.786      1.214    578.263    787.793    642.215    578.263    578.263
 34.070    991.776    976.814     14.962    578.108    886.032    668.836    578.108    578.108
 34.170   1141.376   1107.633     33.742    577.956    988.809    696.719    577.956    577.956
 34.270   1196.000   1195.891      0.109    577.806   1058.191    715.452    577.806    577.806
 34.370   1251.540   1194.249     57.291    577.658   1057.034    714.841    577.658    577.658
 34.470   1166.102   1103.558     62.544    577.512    985.994    695.064    577.512    577.512
 34.570    963.000    971.741     -8.741    577.369    882.669    666.441    577.369    577.369
 34.670    839.404    846.583     -7.179    577.228    784.555    639.260    577.228    577.228
 34.770    715.691    751.254    -35.563    577.089    709.833    618.513    577.089    577.089
 34.870    679.831    688.710     -8.879    576.952    660.828    604.837    576.952    576.952
 34.970    655.696    651.769      3.927    576.817    631.903    596.683    576.817    576.817
 35.070    672.908    631.040     41.868    576.685    615.693    592.032    576.685    576.685
 35.170    626.000    619.178      6.822    576.555    606.432    589.300    576.555    576.555
 35.270    627.352    611.794     15.558    576.427    600.678    587.542    576.427    576.427
 35.370    640.000    606.700     33.300    576.301    596.712    586.287    576.301    576.301
 35.470    555.245    602.898    -47.653    576.177    593.753    585.321    576.177    576.177
 35.570    635.000    599.930     35.070    576.055    591.439    584.545    576.055    576.055
 35.670    609.000    597.552     11.448    575.936    589.580    583.907    575.936    575.936
 35.770    588.000    595.618     -7.618    575.818    588.059    583.376    575.818    575.818
 35.870    619.000    594.027     24.973    575.703    586.798    582.932    575.703    575.703
 35.970    628.533    592.710     35.824    575.590    585.739    582.559    575.590    575.590
 36.070    596.000    591.614      4.386    575.478    584.843    582.249    575.478    575.478
 36.170    624.000    590.704     33.296    575.369    584.077    581.995    575.369    575.369
 36.270    623.000    589.951     33.049    575.262    583.419    581.794    575.262    575.262
 36.370    576.752    589.338    -12.586    575.157    582.852    581.643    575.157    575.157
 36.470    577.318    588.851    -11.534    575.054    582.361    581.544    575.054    575.054
 36.570    610.000    588.484     21.516    574.953    581.938    581.499    574.953    574.953
 36.670    568.446    588.235    -19.789    574.854    581.575    581.514    574.854    574.854
 36.770    590.000    588.108      1.892    574.758    581.269    581.597    574.758    574.758
 36.870    545.695    588.115    -42.420    574.663    581.018    581.759    574.663    574.663
 36.970    581.000    588.277     -7.277    574.570    580.828    582.018    574.570    574.570
 37.070    550.029    588.632    -38.604    574.479    580.711    582.400    574.479    574.479
 37.170    635.667    589.252     46.415    574.390    580.699    582.943    574.390    574.390
 37.270    586.000    590.267     -4.267    574.303    580.853    583.716    574.303    574.303
 37.370    620.825    591.917     28.909    574.218    581.276    584.858    574.218    574.218
 37.470    561.113    594.631    -33.518    574.134    582.110    586.655    574.134    574.134
 37.570    646.000    599.140     46.860    574.053    583.507    589.685    574.053    574.053
 37.670    583.060    606.567    -23.507    573.974    585.558    594.981    573.974    573.974
 37.770    627.000    618.369      8.631    573.896    588.178    604.085    573.896    573.896
 37.870    641.821    635.898      5.924    573.821    590.962    618.752    573.821    573.821
 37.970    717.000    659.480     57.520    573.747    593.109    640.112    573.747    573.747
 38.070    634.410    687.357    -52.946    573.675    593.729    667.296    573.675    573.675
 38.170    728.000    714.759     13.241    573.605    592.569    695.787    573.605    573.605
 38.270    682.000    733.307    -51.307    573.537    590.215    716.625    573.537    573.537
 38.370    731.311    733.983     -2.673    573.471    587.434    720.019    573.471    573.471
 38.470    739.754    715.235     24.519    573.407    584.758    703.885    573.407    573.407
 38.570    652.207    685.537    -33.330    573.344    582.511    676.373    573.344    573.344
 38.670    658.000    655.219      2.781    573.283    580.820    647.685    573.283    573.283
 38.770    621.839    630.299     -8.460    573.224    579.647    623.878    573.224    573.224
 38.870    609.000    612.522     -3.522    573.167    578.872    606.819    573.167    573.167
 38.970    581.000    601.100    -20.100    573.112    578.368    595.844    573.112    573.112
 39.070    599.000    594.241      4.759    573.058    578.034    589.265    573.058    573.058
 39.170    596.000    590.198      5.802    573.006    577.802    585.402    573.006    573.006
 39.270    568.000    587.718    -19.718    572.956    577.631    583.043    572.956    572.956
 39.370    611.000    586.068     24.932    572.907    577.499    581.477    572.907    572.907
 39.470    626.527    584.875     41.652    572.860    577.394    580.341    572.860    572.860
 39.570    615.987    583.960     32.028    572.815    577.311    579.464    572.815    572.815
 39.670    517.000    583.232    -66.232    572.772    577.246    578.758    572.772    572.772
 39.770    592.000    582.643      9.357    572.730    577.196    578.177    572.730    572.730
 39.870    569.000    582.161    -13.161    572.690    577.161    577.691    572.690    572.690
 39.970    567.000    581.765    -14.765    572.652    577.138    577.279    572.652    572.652
 40.070    533.937    581.439    -47.501    572.615    577.128    576.926    572.615    572.615
 40.170    531.286    581.170    -49.884    572.580    577.130    576.621    572.580    572.580
 40.270    544.428    580.952    -36.524    572.547    577.144    576.355    572.547    572.547
 40.370    560.000    580.777    -20.777    572.515    577.171    576.121    572.515    572.515
 40.470    606.836    580.638     26.198    572.485    577.209    575.914    572.485    572.485
 40.570    589.000    580.533      8.467    572.456    577.259    575.731    572.456    572.456
 40.670    622.000    580.466     41.534    572.429    577.329    575.567    572.429    572.429
 40.770    563.744    580.431    -16.687    572.404    577.415    575.420    572.404    572.404
 40.870    554.000    580.429    -26.429    572.380    577.521    575.289    572.380    572.380
 40.970    630.436    580.461     49.975    572.358    577.648    575.171    572.358    572.358
 41.070    551.498    580.528    -29.030    572.337    577.801    575.065    572.337    572.337
 41.170    610.575    580.634     29.942    572.318    577.982    574.970    572.318    572.318
 41.270    580.000    580.783     -0.783    572.300    578.199    574.885    572.300    572.300
 41.370    564.030    580.982    -16.952    572.284    578.457    574.810    572.284    572.284
 41.470    575.000    581.241     -6.241    572.269    578.766    574.745    572.269    572.269
 41.570    609.000    581.571     27.429    572.256    579.140    574.688    572.256    572.256
 41.670    577.000    581.990     -4.990    572.244    579.595    574.641    572.244    572.244
 41.770    614.000    582.525     31.475    572.234    580.157    574.603    572.234    572.234
 41.870    607.645    583.222     24.423    572.225    580.872    574.577    572.225    572.225
 41.970    578.551    584.167     -5.616    572.218    581.823    574.565    572.218    572.218
 42.070    606.000    585.532     20.468    572.212    583.174    574.573    572.212    572.212
 42.170    560.000    587.647    -27.647    572.207    585.244    574.615    572.207    572.207
 42.270    541.000    591.100    -50.100    572.204    588.598    574.711    572.204    572.204
 42.370    560.000    596.794    -36.794    572.202    594.107    574.897    572.202    572.202
 42.470    635.000    605.873     29.127    572.202    602.870    575.216    572.202    572.202
 42.570    609.000    619.384    -10.384    572.203    615.896    575.708    572.203    572.203
 42.670    638.661    637.655      1.006    572.205    633.499    576.386    572.205    572.205
 42.770    624.385    659.445    -35.061    572.209    654.489    577.202    572.209    572.209
 42.870    620.000    681.037    -61.037    572.214    675.285    578.013    572.214    572.214
 42.970    633.000    696.067    -63.067    572.221    689.769    578.576    572.221    572.221
 43.070    749.934    698.221     51.713    572.228    691.862    578.648    572.228    572.228
 43.170    651.000    686.400    -35.400    572.237    680.505    578.188    572.237    572.237
 43.270    663.000    665.935     -2.935    572.248    660.830    577.399    572.248    572.248
 43.370    651.000    643.730      7.270    572.259    639.477    576.547    572.259    572.259
 43.470    592.502    624.328    -31.826    572.272    620.821    575.804    572.272    572.272
 43.570    592.682    609.563    -16.881    572.286    606.624    575.242    572.286    572.286
 43.670    607.000    599.441      7.559    572.302    596.894    574.860    572.302    572.302
 43.770    600.000    593.033      6.967    572.318    590.737    574.622    572.318    572.318
 43.870    621.000    589.169     31.831    572.336    587.026    574.484    572.336    572.336
 43.970    597.384    586.858     10.526    572.355    584.809    574.409    572.355    572.355
 44.070    566.000    585.427    -19.427    572.376    583.436    574.369    572.376    572.376
 44.170    626.000    584.483     41.517    572.397    582.532    574.351    572.397    572.397
 44.270    591.000    583.822      7.178    572.420    581.899    574.345    572.420    572.420
 44.370    573.000    583.341    -10.341    572.443    581.436    574.349    572.443    572.443
 44.470    553.940    582.985    -29.045    572.468    581.094    574.360    572.468    572.468
 44.570    566.997    582.724    -15.727    572.495    580.842    574.378    572.495    572.495
 44.670    616.000    582.538     33.462    572.522    580.660    574.400    572.522    572.522
 44.770    601.000    582.413     18.587    572.550    580.537    574.428    572.550    572.550
 44.870    612.220    582.340     29.880    572.580    580.461    574.460    572.580    572.580
 44.970    590.000    582.311      7.689    572.610    580.425    574.496    572.610    572.610
 45.070    594.561    582.319     12.242    572.642    580.425    574.536    572.642    572.642
 45.170    595.000    582.362     12.638    572.675    580.456    574.581    572.675    572.675
 45.270    602.183    582.435     19.748    572.708    580.515    574.629    572.708    572.708
 45.370    606.000    582.538     23.462    572.743    580.600    574.681    572.743    572.743
 45.470    556.929    582.667    -25.738    572.779    580.709    574.738    572.779    572.779
 45.570    596.000    582.823     13.177    572.816    580.841    574.798    572.816    572.816
 45.670    605.000    583.005     21.995    572.854    580.996    574.863    572.854    572.854
 45.770    580.000    583.214     -3.214    572.893    581.174    574.932    572.893    572.893
 45.870    623.613    583.449     40.164    572.933    581.375    575.006    572.933    572.933
 45.970    589.000    583.713      5.287    572.974    581.601    575.085    572.974    572.974
 46.070    563.000    584.007    -21.007    573.016    581.852    575.170    573.016    573.016
 46.170    559.790    584.333    -24.543    573.059    582.131    575.260    573.059    573.059
 46.270    535.000    584.694    -49.694    573.103    582.440    575.356    573.103    573.103
 46.370    579.000    585.096     -6.096    573.148    582.783    575.459    573.148    573.148
 46.470    556.000    585.541    -29.541    573.193    583.164    575.570    573.193    573.193
 46.570    613.000    586.038     26.962    573.240    583.588    575.689    573.240    573.240
 46.670    613.929    586.593     27.335    573.287    584.062    575.818    573.287    573.287
 46.770    543.000    587.219    -44.219    573.336    584.596    575.957    573.336    573.336
 46.870    603.095    587.930     15.165    573.385    585.204    576.109    573.385    573.385
 46.970    580.899    588.749     -7.850    573.435    585.905    576.277    573.435    573.435
 47.070    587.000    589.716     -2.716    573.486    586.735    576.465    573.486    573.486
 47.170    602.000    590.903     11.097    573.538    587.757    576.681    573.538    573.538
 47.270    631.237    592.443     38.795    573.591    589.092    576.938    573.591    573.591
 47.370    623.050    594.575     28.475    573.645    590.952    577.262    573.645    573.645
 47.470    590.000    597.690     -7.690    573.699    593.688    577.694    573.699    573.699
 47.570    628.000    602.342     25.658    573.754    597.796    578.290    573.754    573.754
 47.670    621.000    609.188     11.812    573.810    603.865    579.119    573.810    573.810
 47.770    624.000    618.797      5.203    573.867    612.404    580.239    573.867    573.867
 47.870    638.062    631.344      6.718    573.925    623.569    581.670    573.925    573.925
 47.970    665.000    646.227     18.773    573.983    636.818    583.353    573.983    573.983
 48.070    619.000    661.643    -42.643    574.042    650.530    585.105    574.042    574.042
 48.170    685.000    674.303     10.697    574.102    661.753    586.596    574.102    574.102
 48.270    693.000    680.196     12.804    574.162    666.880    587.419    574.162    574.162
 48.370    618.000    677.308    -59.308    574.223    664.103    587.375    574.223    574.223
 48.470    680.000    667.621     12.379    574.285    655.192    586.669    574.285    574.285
 48.570    643.000    655.184    -12.184    574.348    643.778    585.718    574.348    574.348
 48.670    620.000    643.378    -23.378    574.411    632.888    584.875    574.411    574.411
 48.770    623.459    634.115    -10.656    574.475    624.230    584.341    574.475    574.475
 48.870    612.000    628.111    -16.111    574.540    618.434    584.204    574.540    574.540
 48.970    624.833    625.314     -0.481    574.605    615.438    584.471    574.605    574.605
 49.070    636.000    625.300     10.700    574.671    614.841    585.122    574.671    574.671
 49.170    621.000    627.604     -6.604    574.737    616.196    586.138    574.737    574.737
 49.270    621.000    631.973    -10.973    574.804    619.228    587.542    574.804    574.804
 49.370    646.679    638.589      8.091    574.872    624.009    589.444    574.872    574.872
 49.470    609.000    648.475    -39.475    574.940    631.253    592.153    574.940    574.940
 49.570    623.000    664.400    -41.400    575.009    642.981    596.415    575.009    575.009
 49.670    656.000    692.614    -36.614    575.079    663.816    603.855    575.079    575.079
 49.770    703.373    745.503    -42.129    575.149    702.898    617.713    575.149    575.149
 49.870    777.000    844.109    -67.109    575.219    775.566    643.692    575.219    575.219
 49.970   1077.865   1016.487     61.378    575.290    902.559    689.104    575.290    575.290
 50.070   1311.258   1290.071     21.187    575.362   1104.098    761.168    575.362    575.362
 50.170   1662.000   1675.077    -13.077    575.434   1387.720    862.580    575.434    575.434
 50.270   2074.806   2144.188    -69.382    575.506   1733.325    986.142    575.506    575.506
 50.370   2570.000   2618.581    -48.581    575.579   2082.889   1111.081    575.579    575.579
 50.470   2852.000   2973.159   -121.159    575.653   2344.303   1204.416    575.653    575.653
 50.570   3090.037   3080.134      9.903    575.727   2423.459   1232.439    575.727    575.727
 50.670   2856.830   2893.325    -36.495    575.801   2286.347   1182.922    575.801    575.801
 50.770   2441.000   2490.659    -49.659    575.876   1990.396   1076.330    575.876    575.876
 50.870   2018.000   2008.867      9.133    575.952   1636.386    948.621    575.952    575.952
 50.970   1640.000   1563.068     76.932    576.027   1309.194    830.056    576.027    576.027
 51.070   1249.842   1216.617     33.225    576.103   1055.551    737.283    576.103    576.103
 51.170   1005.000    983.669     21.331    576.180    885.878    674.047    576.180    576.180
 51.270    836.000    846.166    -10.166    576.257    786.756    635.720    576.257    576.257
 51.370    794.000    773.862     20.138    576.334    735.607    614.629    576.334    576.334
 51.470    727.000    738.577    -11.577    576.412    711.168    603.854    576.412    576.412
 51.570    750.000    720.246     29.754    576.490    698.030    598.736    576.490    576.490
 51.670    685.000    707.615    -22.615    576.568    687.460    596.750    576.568    576.568
 51.770    711.680    696.434     15.247    576.647    676.352    596.750    576.647    576.647
 51.870    712.000    686.360     25.640    576.726    664.883    598.219    576.726    576.726
 51.970    697.000    678.118     18.882    576.805    654.185    600.746    576.805    576.805
 52.070    677.000    672.028      4.972    576.885    645.180    603.735    576.885    576.885
 52.170    713.000    667.649     45.351    576.965    638.323    606.289    576.965    576.965
 52.270    671.000    664.004      6.996    577.045    633.680    607.364    577.045    577.045
 52.370    693.673    660.253     33.420    577.125    631.080    606.292    577.125    577.125
 52.470    672.666    656.339     16.327    577.206    630.268    603.271    577.206    577.206
 52.570    627.000    652.932    -25.932    577.287    631.046    599.169    577.287    577.287
 52.670    605.365    650.965    -45.600    577.368    633.397    594.934    577.368    577.368
 52.770    664.000    651.404     12.596    577.449    637.615    591.237    577.449    577.449
 52.870    651.042    655.352     -4.309    577.531    644.469    588.412    577.531    577.531
 52.970    726.000    664.325     61.675    577.613    655.411    586.525    577.613    577.613
 53.070    698.632    680.568     18.064    577.695    672.776    585.484    577.695    577.695
 53.170    759.000    707.182     51.818    577.777    699.820    585.133    577.777    577.777
 53.270    732.000    747.888    -15.888    577.859    740.407    585.333    577.859    577.859
 53.370    843.000    806.379     36.621    577.941    798.148    586.162    577.941    577.941
 53.470    867.407    884.425    -17.018    578.024    874.934    587.503    578.024    578.024
 53.570   1014.348    980.304     34.043    578.107    969.133    589.266    578.107    578.107
 53.670   1122.000   1086.721     35.279    578.189   1073.620    591.280    578.189    578.189
 53.770   1201.000   1188.899     12.101    578.272   1173.927    593.239    578.272    578.272
 53.870   1250.000   1264.499    -14.499    578.355   1248.170    594.688    578.355    578.355
 53.970   1283.000   1290.231     -7.231    578.439   1273.525    595.158    578.439    578.439
 54.070   1192.000   1256.558    -64.558    578.522   1240.646    594.455    578.522    578.522
 54.170   1109.000   1175.905    -66.905    578.605   1161.709    592.825    578.605    578.605
 54.270   1032.000   1072.435    -40.435    578.688   1060.397    590.749    578.688    578.688
 54.370    934.646    967.660    -33.014    578.772    957.794    588.657    578.772    578.772
 54.470    837.000    875.097    -38.097    578.855    867.150    586.818    578.855    578.855
 54.570    728.000    800.985    -72.985    578.939    794.580    585.356    578.939    578.939
 54.670    714.000    746.281    -32.281    579.022    741.023    584.288    579.022    579.022
 54.770    689.000    708.651    -19.651    579.106    704.194    583.568    579.106    579.106
 54.870    657.000    684.287    -27.287    579.189    680.362    583.118    579.189    579.189
 54.970    678.000    669.296      8.704    579.272    665.709    582.861    579.272    579.272
 55.070    650.000    660.481    -10.481    579.356    657.106    582.732    579.356    579.356
 55.170    619.562    655.596    -36.034    579.439    652.351    582.686    579.439    579.439
 55.270    647.000    653.242     -6.242    579.523    650.072    582.694    579.523    579.523
 55.370    658.000    652.638      5.362    579.606    649.504    582.740    579.606    579.606
 55.470    613.855    653.397    -39.541    579.689    650.269    582.817    579.689    579.689
 55.570    613.653    655.371    -41.718    579.772    652.222    582.921    579.772    579.772
 55.670    638.000    658.568    -20.568    579.855    655.370    583.052    579.855    579.855
 55.770    677.000    663.129     13.871    579.938    659.853    583.213    579.938    579.938
 55.870    670.473    669.382      1.092    580.021    665.992    583.409    580.021    580.021
 55.970    706.000    677.989     28.011    580.103    674.438    583.653    580.103    580.103
 56.070    717.000    690.246     26.754    580.186    686.460    583.970    580.186    580.186
 56.170    676.000    708.577    -32.577    580.268    704.438    584.403    580.268    580.268
 56.270    754.072    737.249     16.823    580.351    732.556    585.035    580.351    580.351
 56.370    783.156    783.107      0.049    580.433    777.534    585.992    580.433    580.433
 56.470    844.000    855.953    -11.953    580.515    848.987    587.458    580.515    580.515
 56.570    999.136    967.876     31.260    580.596    958.778    589.659    580.596    580.596
 56.670   1058.000   1130.890    -72.890    580.678   1118.696    592.822    580.678    580.678
 56.770   1376.000   1352.666     23.334    580.759   1336.271    597.089    580.759    580.759
 56.870   1577.207   1630.973    -53.766    580.840   1609.319    602.420    580.840    580.840
 56.970   1944.000   1948.039     -4.039    580.921   1920.403    608.484    580.921    580.921
 57.070   2353.000   2266.080     86.920    581.002   2232.453    614.575    581.002    581.002
 57.170   2580.000   2526.821     53.179    581.082   2488.286    619.606    581.082    581.082
 57.270   2722.371   2663.793     58.578    581.162   2622.674    622.335    581.162    581.162
 57.370   2711.000   2634.427     76.573    581.242   2593.824    621.968    581.242    581.242
 57.470   2577.000   2449.271    127.729    581.322   2412.060    618.706    581.322    581.322
 57.570   2245.000   2163.589     81.411    581.401   2131.596    613.586    581.401    581.401
 57.670   1921.000   1843.088     77.912    581.480   1816.907    607.846    581.480    581.480
 57.770   1476.000   1539.217    -63.217    581.559   1518.471    602.463    581.559    581.559
 57.870   1305.305   1282.582     22.723    581.637   1266.302    598.042    581.637    581.637
 57.970   1088.000   1085.288      2.712    581.716   1072.220    594.874    581.716    581.716
 58.070    962.000    946.087     15.913    581.793    934.871    593.070    581.793    581.793
 58.170    824.000    856.303    -32.303    581.871    845.513    592.697    581.871    581.871
 58.270    736.000    805.264    -69.264    581.948    793.306    593.923    581.948    581.948
 58.370    731.000    784.027    -53.027    582.024    768.965    597.089    582.024    582.024
 58.470    755.054    786.955    -31.901    582.101    766.385    602.661    582.101    582.101
 58.570    826.000    811.445     14.555    582.177    782.545    611.055    582.177    582.177
 58.670    885.140    856.451     28.689    582.252    816.330    622.338    582.252    582.252
 58.770    906.000    920.549    -14.549    582.327    866.918    635.913    582.327    582.327
 58.870    936.181   1000.124    -63.944    582.402    932.179    650.296    582.402    582.402
 58.970   1024.000   1088.168    -64.168    582.476   1007.470    663.124    582.476    582.476
 59.070   1126.448   1174.521    -48.073    582.550   1085.428    671.602    582.550    582.550
 59.170   1196.000   1248.585    -52.585    582.624   1157.597    673.587    582.624    582.624
 59.270   1244.000   1302.933    -58.933    582.697   1216.833    668.793    582.697    582.697
 59.370   1310.534   1333.782    -23.248    582.769   1257.675    658.894    582.769    582.769
 59.470   1360.000   1338.945     21.055    582.841   1275.414    646.408    582.841    582.841
 59.570   1363.000   1318.894     44.106    582.913   1268.235    633.617    582.913    582.913
 59.670   1257.000   1280.606    -23.606    582.984   1241.494    622.139    582.984    582.984
 59.770   1234.000   1237.447     -3.447    583.055   1207.677    612.849    583.055    583.055
 59.870   1266.000   1203.887     62.113    583.125   1181.057    605.948    583.125    583.125
 59.970   1194.000   1190.741      3.259    583.194   1172.747    601.141    583.194    583.194
 60.070   1264.000   1204.052     59.948    583.263   1189.312    597.909    583.263    583.263
 60.170   1228.113   1246.145    -18.032    583.332   1233.586    595.745    583.332    583.332
 60.270   1379.000   1315.670     63.330    583.400   1304.593    594.280    583.400    583.400
 60.370   1433.000   1405.269     27.731    583.467   1395.206    593.288    583.467    583.467
 60.470   1542.000   1499.197     42.803    583.534   1489.819    592.639    583.534    583.534
 60.570   1583.000   1573.806      9.194    583.601   1564.871    592.253    583.601    583.601
 60.670   1557.280   1603.277    -45.997    583.666   1594.598    592.080    583.666    583.666
 60.770   1543.313   1571.378    -28.065    583.731   1562.792    592.093    583.731    583.731
 60.870   1487.000   1481.263      5.737    583.796   1472.612    592.275    583.796    583.796
 60.970   1370.000   1352.671     17.329    583.860   1343.784    592.625    583.860    583.860
 61.070   1267.458   1210.378     57.079    583.923   1201.063    593.157    583.923    583.923
 61.170   1041.000   1075.200    -34.200    583.986   1065.223    593.911    583.986    583.986
 61.270    930.000    960.798    -30.798    584.048    949.835    594.977    584.048    584.048
 61.370    895.000    873.883     21.117    584.109    861.441    596.525    584.109    584.109
 61.470    757.219    815.948    -58.728    584.170    801.228    598.865    584.170    584.170
 61.570    831.000    785.700     45.300    584.230    767.402    602.497    584.230    584.230
 61.670    724.379    781.472    -57.094    584.290    757.549    608.171    584.290    584.290
 61.770    799.018    802.855     -3.837    584.349    770.268    616.876    584.349    584.349
 61.870    835.000    851.107    -16.107    584.407    805.686    629.745    584.407    584.407
 61.970    889.000    928.242    -39.242    584.464    864.784    647.809    584.464    584.464
 62.070   1022.000   1035.076    -13.076    584.521    947.828    671.621    584.521    584.521
 62.170   1230.230   1168.799     61.430    584.577   1052.382    700.809    584.577    584.577
 62.270   1317.000   1320.712     -3.712    584.632   1171.469    733.655    584.632    584.632
 62.370   1434.414   1474.710    -40.296    584.686   1292.326    766.827    584.686    584.686
 62.470   1568.000   1607.291    -39.291    584.740   1396.383    795.399    584.740    584.740
 62.570   1643.000   1691.123    -48.123    584.793   1462.061    813.623    584.793    584.793
 62.670   1735.443   1704.565     30.878    584.846   1472.270    816.945    584.846    584.846
 62.770   1613.214   1643.435    -30.221    584.897   1423.692    804.490    584.897    584.897
 62.870   1502.989   1523.855    -20.867    584.948   1329.030    779.668    584.948    584.948
 62.970   1404.000   1372.580     31.420    584.998   1209.375    748.133    584.998    584.998
 63.070   1107.000   1215.260   -108.260    585.047   1084.957    715.307    585.047    585.047
 63.170   1110.190   1070.667     39.523    585.096    970.577    685.160    585.096    585.096
 63.270    909.000    949.684    -40.684    585.143    874.817    659.995    585.143    585.143
 63.370    856.876    856.258      0.619    585.190    800.786    640.650    585.190    585.190
 63.470    773.000    789.186    -16.186    585.236    747.534    626.878    585.236    585.236
 63.570    695.000    744.307    -49.307    585.281    711.774    617.804    585.281    585.281
 63.670    676.920    716.483    -39.564    585.326    689.450    612.346    585.326    585.326
 63.770    682.000    701.048    -19.048    585.369    676.877    609.527    585.369    585.369
 63.870    695.817    694.659      1.158    585.412    671.399    608.656    585.412    585.412
 63.970    732.000    695.572     36.428    585.454    671.593    609.412    585.454    585.454
 64.070    654.695    703.596    -48.901    585.495    677.197    611.868    585.495    585.495
 64.170    750.000    719.890     30.110    585.535    688.896    616.496    585.535    585.535
 64.270    736.879    746.645     -9.766    585.574    708.014    624.162    585.574    585.574
 64.370    809.641    786.618     23.023    585.612    736.098    636.073    585.612    585.612
 64.470    809.000    842.448    -33.448    585.650    774.390    653.627    585.650    585.650
 64.570    960.000    915.748     44.252    585.686    823.200    678.130    585.686    585.686
 64.670    996.000   1006.017    -10.017    585.722    881.245    710.359    585.722    585.722
 64.770   1141.095   1109.516     31.579    585.756    945.045    750.065    585.756    585.756
 64.870   1273.000   1218.341     54.659    585.790   1008.475    795.468    585.790    585.790
 64.970   1356.061   1320.213     35.848    585.823   1062.937    842.894    585.823    585.823
 65.070   1506.000   1400.054    105.946    585.855   1099.046    886.654    585.855    585.855
 65.170   1526.000   1443.872     82.128    585.886   1110.040    919.522    585.886    585.886
 65.270   1461.000   1443.500     17.500    585.916   1094.774    934.473    585.916    585.916
 65.370   1384.928   1399.749    -14.821    585.945   1057.821    927.740    585.945    585.945
 65.470   1331.131   1322.287      8.844    585.973   1007.165    901.001    585.973    585.973
 65.570   1283.583   1225.766     57.816    586.000    951.348    860.360    586.000    586.000
 65.670   1056.021   1124.592    -68.571    586.026    897.302    813.288    586.026    586.026
 65.770   1012.365   1029.502    -17.137    586.051    849.330    766.217    586.051    586.051
 65.870    932.000    946.654    -14.654    586.076    809.110    723.628    586.076    586.076
 65.970    844.000    878.273    -34.273    586.099    776.379    688.010    586.099    586.099
 66.070    839.717    823.999     15.717    586.121    749.988    660.151    586.121    586.121
 66.170    787.000    782.221      4.779    586.142    728.778    639.603    586.142    586.142
 66.270    731.000    750.896    -19.896    586.162    711.885    625.188    586.162    586.162
 66.370    651.000    727.937    -76.937    586.181    698.666    615.464    586.181    586.181
 66.470    688.000    711.458    -23.458    586.199    688.600    609.064    586.199    586.199
 66.570    652.000    699.940    -47.940    586.216    681.283    604.877    586.216    586.216
 66.670    737.958    692.292     45.667    586.232    676.432    602.093    586.232    586.232
 66.770    683.000    687.807     -4.807    586.247    673.876    600.177    586.247    586.247
 66.870    725.953    686.096     39.857    586.261    673.556    598.800    586.261    586.261
 66.970    669.424    687.056    -17.633    586.273    675.554    597.774    586.273    586.273
 67.070    690.000    690.911     -0.911    586.285    680.194    597.000    586.285    586.285
 67.170    651.000    698.348    -47.348    586.296    688.206    596.435    586.296    586.296
 67.270    702.000    710.734     -8.734    586.305    700.962    596.074    586.305    586.305
 67.370    786.529    730.382     56.147    586.314    720.746    595.945    586.314    586.314
 67.470    711.704    760.812    -49.108    586.321    751.018    596.107    586.321    586.321
 67.570    798.000    806.878     -8.878    586.327    796.541    596.652    586.327    586.327
 67.670    885.000    874.607     10.393    586.332    863.224    597.698    586.332    586.332
 67.770    975.000    970.559      4.441    586.336    957.500    599.373    586.336    586.336
 67.870   1061.000   1100.608    -39.608    586.339   1085.124    601.797    586.339    586.339
 67.970   1278.754   1268.183     10.572    586.341   1249.461    605.034    586.341    586.341
 68.070   1426.000   1472.218    -46.218    586.341   1449.476    609.061    586.341    586.341
 68.170   1669.000   1705.178    -36.178    586.341   1677.795    613.714    586.341    586.341
 68.270   1902.874   1951.477    -48.603    586.339   1919.165    618.667    586.339    586.339
 68.370   2203.000   2186.684     16.316    586.336   2149.669    623.405    586.336    586.336
 68.470   2317.189   2378.626    -61.438    586.332   2337.808    627.256    586.332    586.332
 68.570   2459.000   2493.041    -34.041    586.327   2450.033    629.500    586.327    586.327
 68.670   2540.000   2505.269     34.731    586.321   2462.189    629.621    586.321    586.321
 68.770   2405.000   2412.356     -7.356    586.313   2371.373    627.555    586.313    586.313
 68.870   2273.000   2234.806     38.194    586.305   2197.652    623.730    586.305    586.305
 68.970   1938.578   2006.019    -67.441    586.295   1973.733    618.843    586.295    586.295
 69.070   1839.000   1759.471     79.529    586.284   1732.400    613.592    586.284    586.284
 69.170   1540.000   1521.580     18.420    586.271   1499.524    608.529    586.271    586.271
 69.270   1368.694   1309.884     58.810    586.258   1292.286    604.020    586.258    586.258
 69.370   1110.000   1133.598    -23.598    586.243   1119.712    600.256    586.243    586.243
 69.470    980.265    995.064    -14.799    586.227    984.098    597.287    586.227    586.227
 69.570    903.000    891.657     11.343    586.210    882.878    595.056    586.210    586.210
 69.670    817.750    817.852     -0.102    586.192    810.641    593.450    586.192    586.192
 69.770    795.000    767.075     27.925    586.172    760.951    592.328    586.172    586.172
 69.870    750.056    733.046     17.011    586.152    727.658    591.561    586.152    586.152
 69.970    776.000    710.543     65.457    586.130    705.650    591.036    586.130    586.130
 70.070    658.537    695.652    -37.114    586.106    691.094    590.673    586.106    586.106
 70.170    690.465    685.682      4.783    586.082    681.350    590.420    586.082    586.082
 70.270    697.901    678.899     19.002    586.056    674.721    590.238    586.056    586.056
 70.370    667.472    674.261     -6.788    586.029    670.186    590.105    586.029    586.029
 70.470    721.539    671.174     50.365    586.001    667.166    590.009    586.001    586.001
 70.570    713.000    669.330     43.670    585.971    665.357    589.942    585.971    585.971
 70.670    690.000    668.603     21.397    585.941    664.635    589.905    585.941    585.941
 70.770    703.685    669.007     34.678    585.909    665.014    589.897    585.909    585.909
 70.870    710.000    670.702     39.298    585.875    666.646    589.925    585.875    585.875
 70.970    658.000    674.035    -16.035    585.841    669.870    589.997    585.841    585.841
 71.070    685.000    679.630      5.370    585.805    675.291    590.133    585.805    585.805
 71.170    691.660    688.510      3.150    585.767    683.902    590.361    585.767    585.767
 71.270    650.000    702.233    -52.233    585.729    697.216    590.725    585.729    585.729
 71.370    701.060    723.024    -21.964    585.689    717.396    591.288    585.689    585.689
 71.470    787.000    753.829     33.171    585.648    747.302    592.134    585.648    585.648
 71.570    846.744    798.213     48.531    585.606    790.399    593.364    585.606    585.606
 71.670    867.000    860.040      6.960    585.562    850.441    595.085    585.562    585.562
 71.770    973.782    942.862     30.920    585.517    930.878    597.399    585.517    585.517
 71.870   1039.000   1049.057    -10.057    585.471   1034.021    600.374    585.471    585.471
 71.970   1216.000   1178.795     37.205    585.423   1160.036    604.015    585.423    585.423
 72.070   1368.000   1329.016     38.984    585.374   1305.948    608.238    585.374    585.374
 72.170   1500.000   1492.546      7.454    585.324   1464.787    612.844    585.324    585.324
 72.270   1733.392   1657.483     75.908    585.272   1624.989    617.500    585.272    585.272
 72.370   1753.000   1807.130    -54.130    585.219   1770.327    621.739    585.219    585.219
 72.470   1975.110   1921.340     53.769    585.165   1881.225    624.998    585.165    585.165
 72.570   1940.000   1980.743    -40.743    585.109   1938.854    626.734    585.109    585.109
 72.670   1983.496   1973.641      9.855    585.052   1931.842    626.622    585.052    585.052
 72.770   1897.415   1901.476     -4.062    584.994   1861.582    624.702    584.994    584.994
 72.870   1769.000   1778.064     -9.064    584.934   1741.495    621.360    584.934    584.934
 72.970   1592.000   1623.360    -31.360    584.873   1590.974    617.155    584.873    584.873
 73.070   1413.853   1456.984    -43.131    584.811   1429.092    612.631    584.811    584.811
 73.170   1349.005   1294.684     54.322    584.747   1271.163    608.219    584.747    584.747
 73.270   1158.817   1147.357     11.460    584.682   1127.797    604.211    584.682    584.682
 73.370    973.000   1021.272    -48.272    584.615   1005.099    600.769    584.615    584.615
 73.470    907.000    918.749    -11.749    584.547    905.337    597.946    584.547    584.547
 73.570    824.000    839.093    -15.093    584.478    827.838    595.724    584.478    584.478
 73.670    775.148    779.647     -4.499    584.407    770.006    594.040    584.407    584.407
 73.770    745.000    736.792      8.208    584.335    728.303    592.818    584.335    584.335
 73.870    712.806    706.757      6.049    584.262    699.032    591.981    584.262    584.262
 73.970    653.000    686.158    -33.158    584.187    678.876    591.464    584.187    584.187
 74.070    637.292    672.275    -34.982    584.111    665.159    591.223    584.111    584.111
 74.170    663.711    663.105      0.607    584.034    655.902    591.234    584.034    584.034
 74.270    711.944    657.280     54.663    583.955    649.746    591.489    583.955    583.955
 74.370    628.000    653.923    -25.923    583.874    645.812    591.988    583.874    583.874
 74.470    635.000    652.478    -17.478    583.793    643.546    592.732    583.793    583.793
 74.570    643.000    652.577     -9.577    583.710    642.585    593.714    583.710    583.710
 74.670    671.000    653.921     17.079    583.625    642.655    594.907    583.625    583.625
 74.770    672.000    656.201     15.799    583.539    643.499    596.264    583.539    583.539
 74.870    662.646    659.049      3.598    583.452    644.824    597.705    583.452    583.452
 74.970    668.000    662.003      5.997    583.363    646.279    599.120    583.363    583.363
 75.070    680.000    664.520     15.480    583.273    647.456    600.375    583.273    583.273
 75.170    667.000    666.036      0.964    583.182    647.932    601.327    583.182    583.182
 75.270    671.000    666.127      4.873    583.089    647.385    601.874    583.089    583.089
 75.370    669.825    664.697      5.129    582.994    645.726    602.007    582.994    582.994
 75.470    697.000    662.054     34.946    582.899    643.155    601.837    582.899    582.899
 75.570    700.000    658.833     41.167    582.802    640.096    601.572    582.802    582.802
 75.670    642.999    655.821    -12.822    582.703    637.072    601.479    582.703    582.703
 75.770    702.362    653.856     48.506    582.603    634.620    601.859    582.603    582.603
 75.870    686.000    653.785     32.215    582.502    633.261    603.037    582.502    582.502
 75.970    643.120    656.467    -13.347    582.399    633.501    605.368    582.399    582.399
 76.070    663.000    662.765      0.235    582.295    635.827    609.227    582.295    582.295
 76.170    684.537    673.509     11.028    582.189    640.690    614.992    582.189    582.189
 76.270    645.444    689.409    -43.964    582.082    648.464    623.000    582.082    582.082
 76.370    726.000    710.941     15.059    581.974    659.390    633.486    581.974    581.974
 76.470    749.000    738.193     10.807    581.864    673.494    646.511    581.864    581.864
 76.570    768.176    770.701     -2.524    581.753    690.507    661.880    581.753    581.753
 76.670    857.810    807.300     50.511    581.640    709.784    679.076    581.640    581.640
 76.770    858.691    846.005     12.686    581.526    730.242    697.196    581.526    581.526
 76.870    915.427    883.938     31.488    581.410    750.321    714.923    581.410    581.410
 76.970    933.000    917.381     15.619    581.293    768.014    730.548    581.293    581.293
 77.070    967.000    942.122     24.878    581.175    781.051    742.131    581.175    581.175
 77.170    954.000    954.334     -0.334    581.055    787.368    747.908    581.055    581.055
 77.270    992.000    951.832     40.168    580.934    785.788    746.873    580.934    580.934
 77.370    983.729    934.987     48.742    580.811    776.507    739.198    580.811    580.811
 77.470    875.000    906.542    -31.542    580.687    760.997    726.152    580.687    580.687
 77.570    918.000    870.512     47.488    580.562    741.415    709.593    580.562    580.562
 77.670    853.297    830.990     22.307    580.435    719.962    691.411    580.435    580.435
 77.770    735.132    791.425    -56.293    580.306    698.489    673.201    580.306    580.306
 77.870    754.966    754.378      0.588    580.176    678.374    656.149    580.176    580.176
 77.970    702.000    721.517    -19.517    580.045    660.513    641.026    580.045    580.045
 78.070    648.000    693.704    -45.704    579.913    645.367    628.232    579.913    579.913
 78.170    695.000    671.131     23.869    579.779    633.040    617.856    579.779    579.779
 78.270    626.000    653.495    -27.495    579.643    623.368    609.760    579.643    579.643
 78.370    613.000    640.176    -27.176    579.506    616.018    603.657    579.506    579.506
 78.470    613.536    630.409    -16.873    579.368    610.576    599.194    579.368    579.368
 78.570    632.000    623.416      8.584    579.228    606.625    596.014    579.228    579.228
 78.670    578.909    618.497    -39.587    579.087    603.786    593.793    579.087    579.087
 78.770    643.000    615.076     27.924    578.945    601.750    592.266    578.945    578.945
 78.870    573.662    612.715    -39.053    578.801    600.279    591.232    578.801    578.801
 78.970    588.000    611.100    -23.100    578.655    599.205    590.546    578.655    578.655
 79.070    646.803    610.021     36.783    578.509    598.413    590.112    578.509    578.509
 79.170    557.149    609.346    -52.198    578.360    597.831    589.872    578.360    578.360
 79.270    666.000    609.007     56.993    578.211    597.421    589.792    578.211    578.211
 79.370    586.828    608.973    -22.144    578.060    597.164    589.864    578.060    578.060
 79.470    606.241    609.251     -3.010    577.907    597.059    590.095    577.907    577.907
 79.570    572.000    609.876    -37.876    577.753    597.116    590.509    577.753    577.753
 79.670    642.000    610.918     31.082    577.598    597.356    591.156    577.598    577.598
 79.770    568.299    612.489    -44.191    577.442    597.809    592.117    577.442    577.442
 79.870    569.038    614.761    -45.723    577.284    598.517    593.521    577.284    577.284
 79.970    587.712    617.990    -30.278    577.124    599.537    595.570    577.124    577.124
 80.070    659.000    622.550     36.450    576.963    600.944    598.561    576.963    576.963
 80.170    568.000    628.970    -60.970    576.801    602.842    602.918    576.801    576.801
 80.270    608.000    637.960    -29.960    576.638    605.366    609.217    576.638    576.638
 80.370    646.000    650.431     -4.431    576.473    608.692    618.193    576.473    576.473
 80.470    615.625    667.473    -51.848    576.306    613.038    630.718    576.306    576.306
 80.570    726.229    690.285     35.943    576.138    618.652    647.743    576.138    576.138
 80.670    708.000    720.057    -12.057    575.969    625.809    670.182    575.969    575.969
 80.770    699.760    757.790    -58.030    575.799    634.785    698.761    575.799    575.799
 80.870    770.440    804.086    -33.646    575.627    645.838    733.824    575.627    575.627
 80.970    856.000    858.899     -2.899    575.454    659.163    775.131    575.454    575.454
 81.070    944.000    921.287     22.713    575.279    674.829    821.673    575.279    575.279
 81.170   1008.000    989.201     18.799    575.103    692.696    871.540    575.103    575.103
 81.270   1045.056   1059.359    -14.303    574.926    712.345    921.871    574.926    574.926
 81.370   1173.332   1127.332     45.999    574.747    733.044    968.970    574.747    574.747
 81.470   1217.000   1188.049     28.951    574.567    753.877   1008.683    574.567    574.567
 81.570   1311.000   1236.324     74.676    574.385    773.665   1037.002    574.385    574.385
 81.670   1390.000   1268.056    121.944    574.202    791.271   1050.962    574.202    574.202
 81.770   1397.000   1280.992    116.008    574.018    805.732   1049.272    574.018    574.018
 81.870   1304.000   1274.913     29.087    573.833    816.339   1032.420    573.833    573.833
 81.970   1306.000   1251.394     54.606    573.646    822.688   1002.384    573.646    573.646
 82.070   1245.000   1213.433     31.567    573.458    824.700    962.239    573.458    573.458
 82.170   1161.000   1164.948     -3.948    573.268    822.557    915.720    573.268    573.268
 82.270   1181.000   1110.094     70.906    573.077    816.578    866.664    573.077    573.077
 82.370   1038.000   1052.636    -14.636    572.885    807.127    818.470    572.885    572.885
 82.470    953.000    995.641    -42.641    572.692    794.666    773.744    572.692    572.692
 82.570    921.000    941.437    -20.437    572.497    779.837    734.173    572.497    572.497
 82.670    867.000    891.634    -24.634    572.301    763.430    700.579    572.301    572.301
 82.770    885.397    847.120     38.276    572.103    746.227    673.066    572.103    572.103
 82.870    787.344    808.105    -20.760    571.905    728.859    651.214    571.905    571.905
 82.970    710.000    774.308    -64.308    571.705    711.782    634.288    571.705    571.705
 83.070    746.870    745.235      1.634    571.503    695.361    621.429    571.503    571.503
 83.170    698.000    720.411    -22.411    571.301    679.954    611.802    571.301    571.301
 83.270    705.826    699.484      6.342    571.097    665.938    604.680    571.097    571.097
 83.370    654.000    682.219    -28.219    570.892    653.658    599.482    570.892    570.892
 83.470    651.000    668.453    -17.453    570.685    643.390    595.769    570.685    570.685
 83.570    626.000    658.055    -32.055    570.477    635.316    593.229    570.477    570.477
 83.670    618.000    650.890    -32.890    570.268    629.515    591.648    570.268    570.268
 83.770    593.000    646.788    -53.788    570.058    625.965    590.877    570.058    570.058
 83.870    575.000    645.511    -70.511    569.847    624.542    590.802    569.847    569.847
 83.970    626.859    646.726    -19.867    569.634    625.022    591.317    569.634    569.634
 84.070    640.000    649.989     -9.989    569.420    627.077    592.302    569.420    569.420
 84.170    687.923    654.735     33.188    569.204    630.286    593.616    569.204    569.204
 84.270    653.000    660.284     -7.284    568.988    634.141    595.087    568.988    568.988
 84.370    704.408    665.861     38.547    568.770    638.067    596.514    568.770    568.770
 84.470    678.071    670.630      7.441    568.551    641.449    597.678    568.551    568.551
 84.570    621.000    673.780    -52.780    568.331    643.693    598.362    568.331    568.331
 84.670    638.000    674.663    -36.663    568.110    644.324    598.392    568.110    568.110
 84.770    630.000    672.939    -42.939    567.887    643.091    597.681    567.887    567.887
 84.870    665.000    668.673     -3.673    567.663    640.033    596.254    567.663    567.663
 84.970    611.000    662.285    -51.285    567.438    635.443    594.236    567.438    567.438
 85.070    644.000    654.408    -10.408    567.212    629.766    591.815    567.212    567.212
 85.170    617.000    645.733    -28.733    566.985    623.487    589.197    566.985    566.985
 85.270    629.957    636.904     -6.947    566.756    617.053    586.579    566.756    566.756
 85.370    627.000    628.464     -1.464    566.526    610.833    584.133    566.526    566.526
 85.470    585.530    620.835    -35.305    566.296    605.107    582.004    566.296    566.296
 85.570    562.000    614.316    -52.316    566.064    600.058    580.305    566.064    566.064
 85.670    571.000    609.093    -38.093    565.830    595.781    579.127    565.830    565.830
 85.770    593.925    605.252    -11.328    565.596    592.298    578.536    565.596    565.596
 85.870    614.000    602.806     11.194    565.361    589.575    578.578    565.361    565.361
 85.970    578.000    601.720    -23.720    565.124    587.549    579.281    565.124    565.124
 86.070    579.661    601.916    -22.255    564.886    586.133    580.654    564.886    564.886
 86.170    649.000    603.299     45.701    564.648    585.249    582.679    564.648    564.648
 86.270    612.452    605.756      6.696    564.408    584.832    585.312    564.408    564.408
 86.370    609.121    609.165     -0.043    564.167    584.842    588.466    564.167    564.167
 86.470    583.000    613.387    -30.387    563.924    585.271    592.013    563.924    563.924
 86.570    651.000    618.267     32.733    563.681    586.143    595.774    563.681    563.681
 86.670    616.867    623.632     -6.764    563.437    587.514    599.519    563.437    563.437
 86.770    677.000    629.290     47.710    563.192    589.470    602.972    563.192    563.192
 86.870    597.975    635.043    -37.068    562.945    592.119    605.824    562.945    562.945
 86.970    630.000    640.707    -10.707    562.698    595.584    607.771    562.698    562.698
 87.070    643.000    646.162     -3.162    562.449    599.987    608.567    562.449    562.449
 87.170    630.731    651.394    -20.663    562.200    605.438    608.092    562.200    562.200
 87.270    716.000    656.516     59.484    561.949    612.009    606.386    561.949    561.949
 87.370    673.000    661.720     11.280    561.698    619.713    603.627    561.698    561.698
 87.470    700.000    667.200     32.800    561.445    628.480    600.078    561.445    561.445
 87.570    682.000    673.066      8.934    561.192    638.138    596.023    561.192    561.192
 87.670    655.820    679.291    -23.471    560.937    648.392    591.730    560.937    560.937
 87.770    673.604    685.673    -12.069    560.682    658.815    587.424    560.682    560.682
 87.870    739.000    691.838     47.162    560.425    668.850    583.288    560.425    560.425
 87.970    685.000    697.248    -12.248    560.168    677.827    579.458    560.168    560.168
 88.070    749.457    701.270     48.186    559.909    685.025    576.020    559.909    559.909
 88.170    741.000    703.287     37.713    559.650    689.783    573.019    559.650    559.650
 88.270    664.043    702.866    -38.823    559.389    691.664    570.460    559.389    559.389
 88.370    690.756    699.897     -9.141    559.128    690.580    568.321    559.128    559.128
 88.470    687.000    694.632     -7.632    558.866    686.825    566.560    558.866    558.866
 88.570    671.000    687.614    -16.614    558.603    680.989    565.128    558.603    558.603
 88.670    702.000    679.534     22.466    558.339    673.814    563.974    558.339    558.339
 88.770    700.580    671.118     29.462    558.074    666.072    563.049    558.074    558.074
 88.870    709.000    663.047     45.953    557.808    658.488    562.311    557.808    557.808
 88.970    632.000    655.920    -23.920    557.542    651.693    561.727    557.542    557.542
 89.070    657.000    650.217      6.783    557.274    646.195    561.268    557.274    557.274
 89.170    660.000    646.274     13.726    557.006    642.352    560.912    557.006    557.006
 89.270    611.000    644.266    -33.266    556.737    640.358    560.640    556.737    556.737
 89.370    629.624    644.195    -14.570    556.467    640.231    560.437    556.467    556.467
 89.470    667.000    645.899     21.101    556.196    641.826    560.286    556.196    556.196
 89.570    678.000    649.062     28.938    555.925    644.841    560.172    555.925    555.925
 89.670    705.859    653.230     52.629    555.652    648.840    560.078    555.652    555.652
 89.770    609.735    657.835    -48.099    555.379    653.273    559.984    555.379    555.379
 89.870    648.000    662.225    -14.225    555.105    657.512    559.870    555.105    555.105
 89.970    676.000    665.719     10.281    554.830    660.893    559.714    554.830    554.830
 90.070    704.000    667.685     36.315    554.555    662.804    559.498    554.555    554.555
 90.170    693.112    667.651     25.461    554.279    662.788    559.207    554.279    554.279
 90.270    671.320    665.410      5.910    554.002    660.642    558.837    554.002    554.002
 90.370    643.000    661.056    -18.056    553.724    656.455    558.391    553.724    553.724
 90.470    705.728    654.935     50.793    553.446    650.560    557.883    553.446    553.446
 90.570    691.000    647.537     43.463    553.167    643.432    557.330    553.167    553.167
 90.670    673.000    639.392     33.608    552.887    635.580    556.752    552.887    552.887
 90.770    675.000    630.993     44.007    552.607    627.480    556.165    552.607    552.607
 90.870    640.000    622.759     17.241    552.326    619.540    555.584    552.326    552.326
 90.970    596.065    615.021    -18.956    552.044    612.077    555.020    552.044    552.044
 91.070    603.000    608.019     -5.019    551.762    605.324    554.483    551.762    551.762
 91.170    628.000    601.902     26.098    551.479    599.426    553.976    551.479    551.479
 91.270    593.397    596.743     -3.345    551.195    594.451    553.502    551.195    551.195
 91.370    574.397    592.546    -18.149    550.911    590.405    553.063    550.911    550.911
 91.470    590.000    589.270      0.730    550.626    587.249    552.655    550.626    550.626
 91.570    545.000    586.844    -41.844    550.341    584.913    552.277    550.341    550.341
 91.670    631.000    585.188     45.812    550.055    583.318    551.927    550.055    550.055
 91.770    609.000    584.224     24.776    549.769    582.392    551.600    549.769    549.769
 91.870    556.000    583.895    -27.895    549.482    582.078    551.297    549.482    549.482
 91.970    619.000    584.171     34.829    549.194    582.347    551.015    549.194    549.194
 92.070    612.663    585.056     27.608    548.906    583.203    550.754    548.906    548.906
 92.170    576.000    586.594    -10.594    548.618    584.688    550.518    548.618    548.618
 92.270    590.675    588.864      1.810    548.329    586.878    550.307    548.329    548.329
 92.370    631.287    591.980     39.307    548.039    589.883    550.125    548.039    548.039
 92.470    576.913    596.083    -19.170    547.749    593.841    549.978    547.749    547.749
 92.570    591.000    601.335    -10.335    547.459    598.907    549.871    547.459    547.459
 92.670    622.000    607.905     14.095    547.168    605.245    549.807    547.168    547.168
 92.770    622.000    615.951      6.049    546.877    613.011    549.792    546.877    546.877
 92.870    631.000    625.611      5.389    546.586    622.338    549.827    546.586    546.586
 92.970    603.634    636.977    -33.342    546.294    633.319    549.914    546.294    546.294
 93.070    661.000    650.082     10.918    546.002    645.988    550.051    546.002    546.002
 93.170    623.907    664.887    -40.980    545.709    660.309    550.235    545.709    545.709
 93.270    707.000    681.262     25.738    545.416    676.160    550.459    545.416    545.416
 93.370    694.000    698.982     -4.982    545.123    693.325    550.714    545.123    545.123
 93.470    664.000    717.721    -53.721    544.829    711.486    550.991    544.829    544.829
 93.570    746.000    737.055      8.945    544.535    730.230    551.280    544.535    544.535
 93.670    768.000    756.490     11.510    544.241    749.069    551.576    544.241    544.241
 93.770    779.000    775.516      3.484    543.947    767.495    551.877    543.947    543.947
 93.870    802.000    793.705      8.295    543.652    785.071    552.193    543.652    543.652
 93.970    829.101    810.816     18.285    543.357    801.527    552.550    543.357    543.357
 94.070    761.000    826.864    -65.864    543.062    816.838    552.991    543.062    543.062
 94.170    848.679    842.110      6.569    542.766    831.201    553.578    542.766    542.766
 94.270    854.000    856.958     -2.958    542.471    844.951    554.382    542.471    542.471
 94.370    930.430    871.820     58.610    542.175    858.423    555.476    542.175    542.175
 94.470    923.000    886.990     36.010    541.879    871.846    556.928    541.879    541.879
 94.570    943.018    902.594     40.424    541.583    885.294    558.789    541.583    541.583
 94.670    937.466    918.599     18.867    541.287    898.710    561.083    541.287    541.287
 94.770    993.743    934.876     58.867    540.991    911.972    563.803    540.991    540.991
 94.870    918.000    951.248    -33.248    540.695    924.949    566.903    540.695    540.695
 94.970    953.391    967.481    -14.089    540.398    937.495    570.296    540.398    540.398
 95.070    925.220    983.205    -57.985    540.102    949.370    573.850    540.102    540.102
 95.170   1037.878    997.817     40.060    539.806    960.143    577.397    539.806    539.806
 95.270    977.000   1010.492    -33.492    539.509    969.191    580.732    539.509    539.509
 95.370    967.000   1020.068    -53.068    539.213    975.581    583.627    539.213    539.213
 95.470    988.846   1025.256    -36.410    538.916    978.257    585.849    538.916    538.916
 95.570    998.000   1024.843    -26.843    538.620    976.216    587.191    538.620    538.620
 95.670   1034.000   1017.974     16.026    538.323    968.747    587.503    538.323    538.323
 95.770   1055.000   1004.412     50.588    538.027    955.672    586.730    538.027    538.027
 95.870   1002.000    984.670     17.330    537.731    937.453    584.920    537.731    537.731
 95.970   1002.000    959.936     42.064    537.434    915.136    582.217    537.434    537.434
 96.070    919.389    931.864    -12.475    537.138    890.168    578.823    537.138    537.138
 96.170    854.000    902.327    -48.327    536.843    864.194    574.970    536.843    536.843
 96.270    852.358    873.236    -20.879    536.547    838.894    570.887    536.547    536.547
 96.370    845.000    846.415     -1.415    536.251    815.882    566.782    536.251    536.251
 96.470    904.000    823.538     80.462    535.956    796.657    562.834    535.956    535.956
 96.570    826.000    806.092     19.908    535.661    782.563    559.183    535.661    535.661
 96.670    839.849    795.358     44.491    535.366    774.782    555.930    535.366    535.366
 96.770    817.000    792.398     24.602    535.071    774.314    553.137    535.071    535.071
 96.870    841.719    798.052     43.667    534.776    781.970    550.832    534.776    534.776
 96.970    861.000    812.930     48.070    534.482    798.363    549.013    534.482    534.482
 97.070    854.000    837.401     16.599    534.188    823.883    547.658    534.188    534.188
 97.170    918.000    871.536     46.464    533.895    858.642    546.729    533.895    533.895
 97.270    855.897    915.222    -59.325    533.602    902.569    546.183    533.602    533.602
 97.370    993.000    967.962     25.038    533.309    955.215    545.971    533.309    533.309
 97.470   1018.491   1028.851    -10.361    533.016   1015.729    546.042    533.016    533.016
 97.570   1081.653   1096.566    -14.913    532.724   1082.842    546.340    532.724    532.724
 97.670   1207.225   1169.313     37.912    532.433   1154.816    546.811    532.433    532.433
 97.770   1285.551   1244.793     40.758    532.141   1229.416    547.393    532.141    532.141
 97.870   1304.000   1320.193    -16.193    531.851   1303.890    548.022    531.851    531.851
 97.970   1324.046   1392.211    -68.165    531.560   1375.011    548.628    531.560    531.560
 98.070   1500.000   1457.169     42.831    531.271   1439.173    549.138    531.271    531.271
 98.170   1483.014   1511.240    -28.226    530.981   1492.623    549.477    530.981    530.981
 98.270   1614.000   1550.853     63.147    530.693   1531.858    549.579    530.693    530.693
 98.370   1621.102   1573.227     47.875    530.404   1554.147    549.392    530.404    530.404
 98.470   1611.000   1576.892     34.108    530.117   1558.046    548.890    530.117    530.117
 98.570   1519.407   1561.988    -42.581    529.830   1543.691    548.075    529.830    529.830
 98.670   1501.000   1530.209    -29.209    529.543   1512.742    546.979    529.543    529.543
 98.770   1458.000   1484.431    -26.431    529.258   1468.021    545.655    529.258    529.258
 98.870   1461.000   1428.217     32.783    528.973   1413.026    544.166    528.973    528.973
 98.970   1364.395   1365.362     -0.967    528.688   1351.486    542.578    528.688    528.688
 99.070   1323.753   1299.576     24.177    528.405   1287.049    540.953    528.405    528.405
 99.170   1293.000   1234.279     58.721    528.122   1223.080    539.347    528.122    528.122
 99.270   1179.046   1172.497      6.549    527.839   1162.557    537.807    527.839    527.839
 99.370   1068.000   1116.818    -48.818    527.558   1108.033    536.370    527.558    527.558
 99.470   1089.000   1069.393     19.607    527.277   1061.627    535.066    527.277    527.277
 99.570    998.000   1031.950    -33.950    526.998   1025.051    533.913    526.998    526.998
 99.670    994.000   1005.836    -11.836    526.719    999.640    532.924    526.719    526.719
 99.770    966.443    992.036    -25.593    526.441    986.375    532.104    526.441    526.441
 99.870   1021.861    991.204     30.657    526.163    985.913    531.449    526.163    526.163
 99.970   1034.000   1003.672     30.328    525.887    998.594    530.952    525.887    525.887
100.070   1036.000   1029.465      6.535    525.612   1024.454    530.603    525.612    525.612
100.170   1033.000   1068.299    -35.299    525.337   1063.227    530.385    525.337    525.337
100.270   1154.535   1119.586     34.949    525.064   1114.340    530.281    525.064    525.064
100.370   1218.000   1182.409     35.591    524.791   1176.898    530.271    524.791    524.791
100.470   1284.000   1255.500     28.500    524.520   1249.655    530.334    524.520    524.520
100.570   1391.934   1337.262     54.672    524.249   1331.036    530.447    524.249    524.249
100.670   1475.000   1425.677     49.323    523.980   1419.049    530.585    523.980    523.980
100.770   1529.000   1518.319     10.681    523.712   1511.291    530.725    523.712    523.712
100.870   1582.779   1612.396    -29.618    523.445   1604.997    530.842    523.445    523.445
100.970   1750.308   1704.858     45.450    523.179   1697.138    530.912    523.179    523.179
101.070   1850.000   1792.585     57.415    522.914   1784.615    530.915    522.914    522.914
101.170   1834.000   1872.671    -38.671    522.650   1864.534    530.837    522.650    522.650
101.270   2022.000   1942.682     79.318    522.388   1934.469    530.672    522.388    522.388
101.370   1928.156   2000.816    -72.660    522.126   1992.612    530.422    522.126    522.126
101.470   1963.977   2045.856    -81.879    521.866   2037.733    530.100    521.866    521.866
101.570   2132.239   2076.989     55.249    521.608   2069.002    529.725    521.608    521.608
101.670   2047.000   2093.597    -46.597    521.350   2085.776    529.316    521.350    521.350
101.770   2082.000   2095.169    -13.169    521.094   2087.524    528.898    521.094    521.094
101.870   2062.000   2081.427    -19.427    520.840   2073.946    528.490    520.840    520.840
101.970   2135.000   2052.610     82.390    520.586   2045.262    528.110    520.586    520.586
102.070   2053.000   2009.784     43.216    520.334   2002.526    527.773    520.334    520.334
102.170   1939.000   1954.996    -15.996    520.084   1947.775    527.487    520.084    520.084
102.270   1933.886   1891.156     42.730    519.835   1883.914    527.257    519.835    519.835
102.370   1821.000   1821.683     -0.683    519.588   1814.362    527.084    519.588    519.588
102.470   1735.676   1750.055    -14.379    519.342   1742.604    526.960    519.342    519.342
102.570   1624.000   1679.418    -55.418    519.097   1671.796    526.877    519.097    519.097
102.670   1551.000   1612.318    -61.318    518.854   1604.499    526.820    518.854    518.854
102.770   1549.000   1550.581     -1.581    518.613   1542.557    526.773    518.613    518.613
102.870   1522.924   1495.285     27.639    518.373   1487.065    526.719    518.373    518.373
102.970   1417.000   1446.787    -29.787    518.135   1438.395    526.643    518.135    518.135
103.070   1383.809   1404.783    -20.974    517.899   1396.257    526.532    517.899    517.899
103.170   1311.184   1368.383    -57.198    517.664   1359.774    526.374    517.664    517.664
103.270   1275.000   1336.225    -61.225    517.431   1327.593    526.158    517.431    517.431
103.370   1261.000   1306.623    -45.623    517.200   1298.038    525.876    517.200    517.200
103.470   1226.000   1277.774    -51.774    516.970   1269.313    525.521    516.970    516.970
103.570   1207.000   1248.009    -41.009    516.743   1239.753    525.088    516.743    516.743
103.670   1154.811   1216.027    -61.216    516.517   1208.057    524.575    516.517    516.517
103.770   1219.517   1181.073     38.444    516.293   1173.464    523.990    516.293    516.293
103.870   1214.106   1142.979     71.127    516.071   1135.797    523.341    516.071    516.071
103.970   1064.222   1102.091    -37.869    515.851   1095.385    522.642    515.851    515.851
104.070   1118.000   1059.111     58.889    515.633   1052.916    521.911    515.633    515.633
104.170    947.000   1014.931    -67.931    515.416   1009.263    521.163    515.416    515.416
104.270    975.000    970.494      4.506    515.202    965.355    520.415    515.202    515.202
104.370    989.983    926.705     63.278    514.990    922.085    519.680    514.990    514.990
104.470    892.000    884.377      7.623    514.780    880.252    518.968    514.780    514.780
104.570    795.561    844.201    -48.639    514.572    840.541    518.289    514.572    514.572
104.670    795.292    806.728    -11.436    514.366    803.497    517.648    514.366    514.366
104.770    796.000    772.355     23.645    514.162    769.514    517.048    514.162    514.162
104.870    768.000    741.345     26.655    513.960    738.854    516.490    513.960    513.960
104.970    756.769    713.851     42.918    513.761    711.662    515.983    513.761    513.761
105.070    734.000    689.849     44.151    513.564    687.921    515.520    513.564    513.564
105.170    728.000    669.227     58.773    513.369    667.520    515.099    513.369    513.369
105.270    693.000    651.791     41.209    513.176    650.269    514.717    513.176    513.176
105.370    647.346    637.287     10.059    512.986    635.916    514.371    512.986    512.986
105.470    669.000    625.444     43.556    512.798    624.196    514.058    512.798    512.798
105.570    627.000    615.966     11.034    512.612    614.813    513.773    512.612    512.612
105.670    638.409    608.569     29.840    512.429    607.490    513.513    512.429    512.429
105.770    669.000    602.996     66.004    512.248    601.971    513.276    512.248    512.248
105.870    623.000    599.025     23.975    512.070    598.036    513.059    512.070    512.070
105.970    641.904    596.471     45.433    511.894    595.503    512.860    511.894    511.894
106.070    601.000    595.195      5.805    511.721    594.234    512.678    511.721    511.721
106.170    670.000    595.098     74.902    511.550    594.131    512.511    511.550    511.550
106.270    583.919    596.118    -12.199    511.382    595.132    512.359    511.382    511.382
106.370    610.000    598.225     11.775    511.216    597.209    512.222    511.216    511.216
106.470    611.000    601.415      9.585    511.054    600.354    512.101    511.054    511.054
106.570    639.296    605.698     33.598    510.893    604.582    511.994    510.893    510.893
106.670    631.000    611.097     19.903    510.736    609.911    511.903    510.736    510.736
106.770    634.377    617.633     16.744    510.581    616.364    511.828    510.581    510.581
106.870    651.646    625.317     26.328    510.429    623.952    511.769    510.429    510.429
106.970    655.000    634.143     20.857    510.280    632.667    511.726    510.280    510.280
107.070    660.000    644.074     15.926    510.134    642.476    511.699    510.134    510.134
107.170    649.000    655.037     -6.037    509.991    653.305    511.686    509.991    509.991
107.270    684.000    666.915     17.085    509.850    665.039    511.686    509.850    509.850
107.370    701.624    679.540     22.083    509.713    677.512    511.697    509.713    509.713
107.470    712.000    692.694     19.306    509.578    690.509    511.715    509.578    509.578
107.570    763.000    706.107     56.893    509.447    703.765    511.737    509.447    509.447
107.670    784.000    719.460     64.540    509.318    716.965    511.759    509.318    509.318
107.770    713.000    732.395    -19.395    509.193    729.755    511.777    509.193    509.193
107.870    744.000    744.524     -0.524    509.070    741.754    511.783    509.070    509.070
107.970    707.000    755.453    -48.453    508.951    752.572    511.774    508.951    508.951
108.070    770.000    764.814      5.186    508.835    761.848    511.744    508.835    508.835
108.170    831.409    772.309     59.100    508.722    769.287    511.689    508.722    508.722
108.270    722.396    777.756    -55.360    508.613    774.711    511.605    508.613    508.613
108.370    763.000    781.126    -18.126    508.506    778.090    511.493    508.506    508.506
108.470    746.000    782.553    -36.553    508.403    779.559    511.352    508.403    508.403
108.570    737.000    782.322    -45.322    508.304    779.399    511.186    508.304    508.304
108.670    756.018    780.822    -24.804    508.208    777.993    511.000    508.208    508.208
108.770    819.489    778.492     40.997    508.115    775.776    510.798    508.115    508.115
108.870    745.129    775.773    -30.644    508.025    773.184    510.587    508.025    508.025
108.970    800.000    773.063     26.937    507.940    770.609    510.372    507.940    507.940
109.070    757.000    770.693    -13.693    507.857    768.374    510.157    507.857    507.857
109.170    725.000    768.901    -43.901    507.778    766.718    509.947    507.778    507.778
109.270    731.000    767.832    -36.832    507.703    765.779    509.746    507.703    507.703
109.370    721.000    767.527    -46.527    507.631    765.596    509.555    507.631    507.631
109.470    722.000    767.920    -45.920    507.563    766.103    509.378    507.563    507.563
109.570    773.000    768.848      4.152    507.499    767.134    509.214    507.499    507.499
109.670    791.000    770.055     20.945    507.439    768.434    509.063    507.439    507.439
109.770    758.580    771.207    -12.627    507.382    769.669    508.927    507.382    507.382
109.870    713.000    771.919    -58.919    507.329    770.455    508.802    507.329    507.329
109.970    778.199    771.787      6.412    507.280    770.390    508.688    507.280    507.280
110.070    759.812    770.437    -10.625    507.235    769.103    508.583    507.235    507.235
110.170    755.000    767.563    -12.563    507.193    766.295    508.478    507.193    507.193
110.270    749.000    763.003    -14.003    507.156    761.792    508.384    507.156    507.156
110.370    699.132    756.713    -57.581    507.123    755.556    508.299    507.123    507.123
110.470    789.000    748.785     40.215    507.093    747.680    508.219    507.093    507.093
110.570    796.000    739.428     56.572    507.068    738.373    508.144    507.068    507.068
110.670    722.000    728.924     -6.924    507.047    727.918    508.073    507.047    507.047
110.770    709.259    717.595     -8.336    507.030    716.637    508.008    507.030    507.030
110.870    646.000    705.770    -59.770    507.017    704.857    507.948    507.017    507.017
110.970    720.000    693.761     26.239    507.008    692.893    507.895    507.008    507.008
111.070    683.000    681.855      1.145    507.004    681.027    507.848    507.004    507.004
111.170    686.000    670.301     15.699    507.004    669.511    507.808    507.004    507.004
111.270    655.000    659.311     -4.311    507.008    658.556    507.776    507.008    507.008
111.370    651.000    649.056      1.944    507.016    648.331    507.752    507.016    507.016
111.470    592.818    639.665    -46.847    507.029    638.968    507.735    507.029    507.029
111.570    607.786    631.223    -23.437    507.047    630.549    507.727    507.047    507.047
111.670    637.000    623.799     13.201    507.069    623.145    507.728    507.069    507.069
111.770    631.000    617.412     13.588    507.095    616.773    507.737    507.095    507.095
111.870    590.000    612.049    -22.049    507.126    611.422    507.754    507.126    507.126
111.970    564.450    607.677    -43.226    507.162    607.058    507.779    507.162    507.162
112.070    659.000    604.242     54.758    507.202    603.629    507.813    507.202    507.202
112.170    603.000    601.678      1.322    507.247    601.068    507.854    507.247    507.247
112.270    576.000    599.908    -23.908    507.297    599.298    507.902    507.297    507.297
112.370    611.000    598.851     12.149    507.351    598.239    507.957    507.351    507.351
112.470    614.000    598.425     15.575    507.410    597.809    508.019    507.410    507.410
112.570    558.777    598.550    -39.773    507.474    597.929    508.087    507.474    507.474
112.670    629.000    599.154     29.846    507.543    598.527    508.161    507.543    507.543
112.770    564.000    600.172    -36.172    507.617    599.538    508.240    507.617    507.617
112.870    588.000    601.547    -13.547    507.696    600.907    508.325    507.696    507.696
112.970    613.000    603.238      9.762    507.780    602.591    508.415    507.780    507.780
113.070    588.547    605.215    -16.668    507.868    604.561    508.510    507.868    507.868
113.170    580.000    607.461    -27.461    507.962    606.800    508.611    507.962    507.962
113.270    577.950    609.977    -32.027    508.061    609.308    508.717    508.061    508.061
113.370    552.000    612.776    -60.776    508.166    612.099    508.829    508.166    508.166
113.470    627.000    615.889     11.111    508.275    615.203    508.948    508.275    508.275
113.570    586.000    619.365    -33.365    508.390    618.668    509.073    508.390    508.390
113.670    590.636    623.268    -32.632    508.510    622.557    509.206    508.510    508.510
113.770    645.000    627.688     17.312    508.635    626.961    509.347    508.635    508.635
113.870    629.000    632.742     -3.742    508.766    631.995    509.497    508.766    508.766
113.970    624.000    638.580    -14.580    508.902    637.808    509.657    508.902    508.902
114.070    636.664    645.399     -8.735    509.044    644.595    509.829    509.044    509.044
114.170    688.993    653.444     35.548    509.191    652.603    510.012    509.191    509.191
114.270    644.000    663.034    -19.034    509.343    662.144    510.210    509.343    509.343
114.370    644.000    674.563    -30.563    509.502    673.617    510.422    509.502    509.502
114.470    712.107    688.529     23.578    509.666    687.513    510.652    509.666    509.666
114.570    716.000    705.544     10.456    509.835    704.446    510.899    509.835    509.835
114.670    691.000    726.356    -35.356    510.010    725.159    511.166    510.010    510.010
114.770    718.041    751.866    -33.825    510.192    750.552    511.455    510.192    510.192
114.870    816.836    783.146     33.690    510.378    781.697    511.767    510.378    510.378
114.970    809.000    821.451    -12.451    510.571    819.845    512.105    510.571    510.571
115.070    857.000    868.230    -11.230    510.770    866.443    512.470    510.770    510.770
115.170    863.000    925.121    -62.121    510.974    923.127    512.863    510.974    510.974
115.270    969.000    993.945    -24.945    511.185    991.716    513.287    511.185    511.185
115.370   1034.000   1076.682    -42.682    511.402   1074.190    513.742    511.402    511.402
115.470   1176.000   1175.433      0.567    511.624   1172.648    514.230    511.624    511.624
115.570   1228.411   1292.368    -63.957    511.853   1289.257    514.751    511.853    511.853
115.670   1467.897   1429.649     38.248    512.088   1426.181    515.306    512.088    512.088
115.770   1626.364   1589.347     37.018    512.329   1585.490    515.895    512.329    512.329
115.870   1782.868   1773.331      9.537    512.577   1769.056    516.516    512.577    512.577
115.970   1920.000   1983.151    -63.151    512.831   1978.429    517.170    512.831    512.831
116.070   2223.000   2219.908      3.092    513.091   2214.714    517.852    513.091    513.091
116.170   2496.000   2484.126     11.874    513.358   2478.438    518.562    513.358    513.358
116.270   2876.000   2775.614    100.386    513.631   2769.414    519.294    513.631    513.631
116.370   3088.000   3093.349     -5.349    513.910   3086.627    520.045    513.910    513.910
116.470   3439.000   3435.379      3.621    514.196   3428.131    520.809    514.196    514.196
116.570   3704.000   3798.739    -94.739    514.489   3790.968    521.580    514.489    514.489
116.670   4225.000   4179.388     45.612    514.788   4171.105    522.354    514.788    514.788
116.770   4553.649   4572.253    -18.604    515.094   4563.476    523.123    515.094    515.094
116.870   4939.000   4971.250    -32.250    515.407   4962.003    523.885    515.407    515.407
116.970   5429.056   5369.230     59.826    515.726   5359.544    524.635    515.726    515.726
117.070   5647.791   5758.194   -110.403    516.052   5748.105    525.367    516.052    516.052
117.170   6198.403   6129.416     68.987    516.386   6118.967    526.079    516.386    516.386
117.270   6417.000   6473.657    -56.657    516.726   6462.893    526.766    516.726    516.726
117.370   6703.104   6781.465    -78.361    517.073   6770.439    527.425    517.073    517.073
117.470   7137.000   7043.581     93.419    517.427   7032.348    528.051    517.427    517.427
117.570   7277.000   7251.459     25.541    517.788   7240.077    528.640    517.788    517.788
117.670   7611.000   7397.866    213.134    518.156   7386.395    529.188    518.156    518.156
117.770   7453.000   7477.503    -24.503    518.532   7466.004    529.691    518.532    518.532
117.870   7377.373   7487.528   -110.154    518.914   7476.058    530.148    518.914    518.914
117.970   7358.000   7427.851    -69.851    519.304   7416.468    530.556    519.304    519.304
118.070   7399.000   7301.150     97.850    519.701   7289.905    530.916    519.701    519.701
118.170   7088.000   7112.564    -24.564    520.106   7101.505    531.229    520.106    520.106
118.270   6849.000   6869.187    -20.187    520.518   6858.355    531.497    520.518    520.518
118.370   6443.836   6579.440   -135.603    520.937   6568.873    531.722    520.937    520.937
118.470   6133.000   6252.467   -119.467    521.364   6242.200    531.908    521.364    521.364
118.570   5945.159   5897.611     47.548    521.799   5887.673    532.056    521.799    521.799
118.670   5643.198   5524.000    119.199    522.241   5514.418    532.173    522.241    522.241
118.770   5065.204   5140.245    -75.040    522.691   5131.042    532.262    522.691    522.691
118.870   4822.397   4754.220     68.177    523.148   4745.415    532.328    523.148    523.148
118.970   4410.000   4372.912     37.088    523.613   4364.519    532.377    523.613    523.613
119.070   4209.000   4002.318    206.682    524.086   3994.345    532.417    524.086    524.086
119.170   3725.000   3647.388     77.612    524.567   3639.837    532.455    524.567    524.567
119.270   3331.869   3312.013     19.856    525.056   3304.883    532.497    525.056    525.056
119.370   3084.644   2999.049     85.594    525.553   2992.333    532.551    525.553    525.553
119.470   2778.000   2710.378     67.622    526.058   2704.061    532.624    526.058    526.058
119.570   2433.000   2446.994    -13.994    526.571   2441.059    532.721    526.571    526.571
119.670   2257.725   2209.118     48.607    527.092   2203.545    532.848    527.092    527.092
119.770   1966.422   1996.322    -29.900    527.621   1991.085    533.010    527.621    527.621
119.870   1880.000   1807.651     72.349    528.158   1802.721    533.210    528.158    528.158
119.970   1634.000   1641.750     -7.750    528.704   1637.097    533.452    528.704    528.704
120.070   1576.000   1496.980     79.020    529.258   1492.571    533.739    529.258    529.258
120.170   1416.000   1371.521     44.479    529.821   1367.320    534.072    529.821    529.821
120.270   1300.000   1263.464     36.536    530.392   1259.435    534.454    530.392    530.392
120.370   1219.000   1170.890     48.110    530.971   1166.993    534.886    530.971    530.971
120.470   1152.000   1091.932     60.068    531.559   1088.129    535.369    531.559    531.559
120.570   1039.000   1024.828     14.172    532.155   1021.077    535.904    532.155    532.155
120.670    981.000    967.949     13.051    532.761    964.210    536.492    532.761    532.761
120.770    915.000    919.827     -4.827    533.374    916.056    537.133    533.374    533.374
120.870    824.349    879.163    -54.814    533.997    875.316    537.829    533.997    533.997
120.970    874.000    844.824     29.176    534.629    840.857    538.579    534.629    534.629
121.070    834.000    815.842     18.158    535.269    811.708    539.386    535.269    535.269
121.170    797.202    791.396      5.805    535.918    787.048    540.250    535.918    535.918
121.270    786.936    770.803     16.133    536.576    766.191    541.173    536.576    536.576
121.370    781.804    753.496     28.307    537.244    748.570    542.157    537.244    537.244
121.470    771.324    739.011     32.313    537.920    733.716    543.203    537.920    537.920
121.570    717.647    726.967     -9.320    538.606    721.249    544.313    538.606    538.606
121.670    727.408    717.056     10.352    539.300    710.858    545.490    539.300    539.300
121.770    653.517    709.026    -55.509    540.004    702.289    546.735    540.004    540.004
121.870    672.000    702.673    -30.673    540.718    695.333    548.052    540.718    540.718
121.970    667.919    697.825    -29.906    541.440    689.820    549.441    541.440    541.440
122.070    715.367    694.341     21.026    542.172    685.605    550.906    542.172    542.172
122.170    682.530    692.100     -9.570    542.914    682.565    552.448    542.914    542.914
122.270    683.651    690.996     -7.346    543.665    680.594    554.068    543.665    543.665
122.370    680.000    690.936    -10.936    544.426    679.596    555.768    544.426    544.426
122.470    653.767    691.830    -38.063    545.196    679.483    557.547    545.196    545.196
122.570    687.000    693.594     -6.594    545.976    680.172    559.405    545.976    545.976
122.670    627.000    696.145    -69.145    546.766    681.580    561.340    546.766    546.766
122.770    676.000    699.396    -23.396    547.566    683.626    563.347    547.566    547.566
122.870    641.000    703.259    -62.259    548.375    686.227    565.421    548.375    548.375
122.970    737.970    707.640     30.330    549.195    689.297    567.553    549.195    549.195
123.070    696.000    712.438    -16.438    550.024    692.746    569.733    550.024    550.024
123.170    729.000    717.547     11.453    550.864    696.481    571.949    550.864    550.864
123.270    699.000    722.852    -23.852    551.714    700.402    574.186    551.714    551.714
123.370    725.000    728.233     -3.233    552.574    704.407    576.425    552.574    552.574
123.470    729.809    733.563     -3.754    553.444    708.387    578.647    553.444    553.444
123.570    706.000    738.709    -32.709    554.324    712.233    580.830    554.324    554.324
123.670    730.000    743.537    -13.537    555.215    715.833    582.953    555.215    555.215
123.770    740.597    747.913     -7.316    556.116    719.075    584.990    556.116    556.116
123.870    750.000    751.708     -1.708    557.028    721.855    586.919    557.028    557.028
123.970    759.000    754.803      4.197    557.950    724.076    588.718    557.950    557.950
124.070    709.000    757.096    -48.096    558.882    725.656    590.366    558.882    558.882
124.170    773.000    758.509     14.491    559.826    726.532    591.848    559.826    559.826
124.270    806.000    758.987     47.013    560.780    726.661    593.152    560.780    560.780
124.370    794.000    758.484     35.516    561.745    726.006    594.270    561.745    561.745
124.470    810.330    757.041     53.289    562.721    724.608    595.202    562.721    562.721
124.570    850.000    754.704     95.296    563.707    722.509    595.951    563.707    563.707
124.670    748.000    751.515     -3.515    564.705    719.744    596.524    564.705    564.705
124.770    832.000    747.548     84.452    565.713    716.377    596.931    565.713    565.713
124.870    756.237    742.892     13.346    566.733    712.484    597.187    566.733    566.733
124.970    793.000    737.643     55.357    567.764    708.147    597.306    567.764    567.764
