neutron_powder_diffraction_0067
R_wp: 4.482
Temperature (K): 730.130
Counts: 83645.00
Wavelength (Ã…): 2.52098
COMMENTS
Test file for demonstrating the .xyy file format in Reel1.0
END OF HEADER
   tth       Y_obs     Y_calc      Y_res    Background    Phase_1_Nuc    Phase_1_Mag    Phase_2_Nuc    Phase_2_Mag
  9.970    629.000    624.021      4.979    623.029    623.894    623.156    623.029    623.029
 10.070    657.000    624.601     32.399    623.542    624.473    623.670    623.542    623.542
 10.170    672.000    625.179     46.821    624.043    625.050    624.172    624.043    624.043
 10.270    573.411    625.757    -52.346    624.532    625.626    624.663    624.532    624.532
 10.370    682.034    626.342     55.693    625.010    626.209    625.142    625.010    625.010
 10.470    635.853    626.928      8.924    625.475    626.794    625.609    625.475    625.475
 10.570    668.000    627.521     40.479    625.930    627.385    626.064    625.930    625.930
 10.670    697.000    628.126     68.874    626.372    627.989    626.508    626.372    626.372
 10.770    662.000    628.753     33.247    626.803    628.614    626.941    626.803    626.803
 10.870    683.000    629.408     53.592    627.223    629.268    627.363    627.223    627.223
 10.970    681.000    630.105     50.895    627.632    629.963    627.773    627.632    627.632
 11.070    647.000    630.871     16.129    628.030    630.727    628.172    628.030    628.030
 11.170    684.000    631.816     52.184    628.416    631.670    628.560    628.416    628.416
 11.270    690.095    632.843     57.252    628.792    632.695    628.937    628.792    628.792
 11.370    707.000    633.985     73.015    629.156    633.835    629.304    629.156    629.156
 11.470    695.000    635.404     59.596    629.510    635.252    629.660    629.510    629.510
 11.570    654.709    637.354     17.355    629.854    637.199    630.005    629.854    629.854
 11.670    658.000    640.533     17.467    630.187    640.375    630.339    630.187    630.187
 11.770    724.000    646.772     77.228    630.509    646.609    630.663    630.509    630.509
 11.870    704.000    659.797     44.203    630.821    659.624    630.977    630.821    630.821
 11.970    729.000    684.542     44.458    631.122    684.354    631.280    631.122    631.122
 12.070    795.000    722.969     72.031    631.413    722.757    631.573    631.413    631.413
 12.170    772.000    766.798      5.202    631.695    766.559    631.856    631.695    631.695
 12.270    757.000    793.299    -36.299    631.966    793.043    632.130    631.966    631.966
 12.370    778.000    782.333     -4.333    632.227    782.081    632.393    632.227    632.227
 12.470    772.594    743.770     28.824    632.478    743.539    632.646    632.478    632.478
 12.570    645.000    702.016    -57.016    632.719    701.806    632.889    632.719    632.719
 12.670    725.641    671.625     54.015    632.951    671.431    633.123    632.951    632.951
 12.770    617.000    654.375    -37.375    633.173    654.189    633.347    633.173    633.173
 12.870    660.235    646.071     14.164    633.386    645.887    633.562    633.386    633.386
 12.970    690.242    642.304     47.938    633.589    642.120    633.767    633.589    633.589
 13.070    673.993    640.442     33.551    633.782    640.257    633.963    633.782    633.782
 13.170    636.952    639.358     -2.406    633.967    639.171    634.150    633.967    633.967
 13.270    659.125    638.650     20.475    634.142    638.462    634.328    634.142    634.142
 13.370    638.291    638.163      0.129    634.308    637.972    634.496    634.308    634.308
 13.470    635.000    637.820     -2.820    634.465    637.628    634.655    634.465    634.465
 13.570    602.000    637.579    -35.579    634.613    637.384    634.806    634.613    634.613
 13.670    631.000    637.408     -6.408    634.752    637.211    634.948    634.752    634.752
 13.770    642.000    637.289      4.711    634.882    637.090    635.080    634.882    634.882
 13.870    622.475    637.208    -14.732    635.003    637.005    635.205    635.003    635.003
 13.970    633.000    637.153     -4.153    635.116    636.948    635.320    635.116    635.116
 14.070    650.000    637.117     12.883    635.221    636.910    635.427    635.221    635.221
 14.170    551.000    637.096    -86.096    635.316    636.886    635.526    635.316    635.316
 14.270    607.000    637.084    -30.084    635.404    636.871    635.616    635.404    635.404
 14.370    639.000    637.079      1.921    635.483    636.863    635.698    635.483    635.483
 14.470    629.681    637.077     -7.396    635.554    636.858    635.772    635.554    635.554
 14.570    674.251    637.078     37.173    635.616    636.856    635.838    635.616    635.616
 14.670    670.283    637.081     33.202    635.671    636.856    635.896    635.671    635.671
 14.770    648.000    637.110     10.890    635.717    636.880    635.947    635.717    635.717
 14.870    588.000    637.156    -49.156    635.756    636.920    635.991    635.756    635.756
 14.970    647.612    637.158     10.453    635.787    636.919    636.026    635.787    635.787
 15.070    638.250    637.168      1.082    635.809    636.925    636.052    635.809    635.809
 15.170    642.000    637.229      4.771    635.825    636.983    636.071    635.825    635.825
 15.270    692.539    637.224     55.314    635.832    636.974    636.082    635.832    635.832
 15.370    607.000    637.208    -30.208    635.832    636.954    636.086    635.832    635.832
 15.470    622.000    637.202    -15.202    635.825    636.944    636.082    635.825    635.825
 15.570    635.584    637.193     -1.609    635.810    636.932    636.071    635.810    635.810
 15.670    618.000    637.161    -19.161    635.787    636.896    636.053    635.787    635.787
 15.770    618.000    637.123    -19.123    635.758    636.853    636.027    635.758    635.758
 15.870    646.000    637.078      8.922    635.721    636.805    635.994    635.721    635.721
 15.970    604.000    637.029    -33.029    635.677    636.751    635.955    635.677    635.677
 16.070    621.000    636.973    -15.973    635.626    636.691    635.908    635.626    635.626
 16.170    617.000    636.912    -19.912    635.568    636.626    635.855    635.568    635.568
 16.270    678.914    636.847     42.068    635.503    636.555    635.794    635.503    635.503
 16.370    671.798    636.777     35.021    635.432    636.481    635.727    635.432    635.432
 16.470    616.263    636.712    -20.449    635.353    636.411    635.654    635.353    635.353
 16.570    637.096    636.630      0.466    635.268    636.325    635.574    635.268    635.268
 16.670    651.997    636.541     15.456    635.177    636.230    635.487    635.177    635.177
 16.770    610.000    636.446    -26.446    635.078    636.130    635.394    635.078    635.078
 16.870    610.089    636.345    -26.256    634.973    636.024    635.294    634.973    634.973
 16.970    555.000    636.240    -81.240    634.862    635.913    635.189    634.862    634.862
 17.070    625.823    636.136    -10.313    634.745    635.804    635.077    634.745    634.745
 17.170    626.000    636.024    -10.024    634.621    635.687    634.959    634.621    634.621
 17.270    619.000    635.902    -16.902    634.491    635.558    634.834    634.491    634.491
 17.370    624.758    635.774    -11.016    634.355    635.424    634.704    634.355    634.355
 17.470    607.000    635.641    -28.641    634.213    635.285    634.568    634.213    634.213
 17.570    611.000    635.511    -24.511    634.064    635.148    634.426    634.064    634.064
 17.670    608.000    635.397    -27.397    633.910    635.028    634.279    633.910    633.910
 17.770    603.000    635.279    -32.279    633.750    634.903    634.126    633.750    633.750
 17.870    605.000    635.144    -30.144    633.584    634.761    633.967    633.584    633.584
 17.970    640.516    634.988      5.528    633.413    634.598    633.802    633.413    633.413
 18.070    614.000    634.824    -20.824    633.235    634.427    633.633    633.235    633.235
 18.170    615.000    634.661    -19.661    633.053    634.256    633.458    633.053    633.053
 18.270    660.456    634.494     25.962    632.864    634.080    633.278    632.864    632.864
 18.370    625.000    634.315     -9.315    632.670    633.894    633.092    632.670    632.670
 18.470    618.000    634.133    -16.133    632.471    633.703    632.901    632.471    632.471
 18.570    639.000    633.953      5.047    632.267    633.514    632.706    632.267    632.267
 18.670    601.000    633.782    -32.782    632.057    633.334    632.505    632.057    632.057
 18.770    671.762    633.639     38.123    631.842    633.182    632.298    631.842    631.842
 18.870    581.000    633.446    -52.446    631.621    632.979    632.087    631.621    631.621
 18.970    619.479    633.263    -13.784    631.396    632.787    631.872    631.396    631.396
 19.070    568.000    633.061    -65.061    631.166    632.575    631.651    631.166    631.166
 19.170    654.446    632.878     21.568    630.930    632.382    631.426    630.930    630.930
 19.270    605.000    632.681    -27.681    630.690    632.174    631.196    630.690    630.690
 19.370    671.855    632.462     39.394    630.445    631.944    630.962    630.445    630.445
 19.470    672.103    632.239     39.864    630.195    631.711    630.723    630.195    630.195
 19.570    613.000    632.010    -19.010    629.940    631.470    630.480    629.940    629.940
 19.670    562.000    631.785    -69.785    629.681    631.232    630.233    629.681    629.681
 19.770    635.000    631.566      3.434    629.417    631.001    629.982    629.417    629.417
 19.870    626.923    631.334     -4.411    629.149    630.757    629.726    629.149    629.149
 19.970    641.553    631.091     10.462    628.876    630.501    629.466    628.876    628.876
 20.070    649.294    630.844     18.449    628.599    630.240    629.202    628.599    628.599
 20.170    629.000    630.594     -1.594    628.317    629.976    628.935    628.317    628.317
 20.270    621.153    630.341     -9.188    628.031    629.709    628.663    628.031    628.031
 20.370    623.558    630.085     -6.527    627.741    629.438    628.388    627.741    627.741
 20.470    573.000    629.827    -56.827    627.446    629.164    628.110    627.446    627.446
 20.570    631.759    629.569      2.190    627.148    628.889    627.827    627.148    627.148
 20.670    586.000    629.305    -43.305    626.845    628.609    627.542    626.845    626.845
 20.770    685.292    629.038     56.254    626.539    628.325    627.252    626.539    626.539
 20.870    655.495    628.770     26.725    626.228    628.038    626.960    626.228    626.228
 20.970    674.827    628.500     46.328    625.914    627.749    626.664    625.914    625.914
 21.070    642.000    628.228     13.772    625.596    627.458    626.366    625.596    625.596
 21.170    591.000    627.956    -36.956    625.273    627.165    626.064    625.273    625.273
 21.270    584.071    627.682    -43.612    624.948    626.871    625.760    624.948    624.948
 21.370    628.000    627.406      0.594    624.618    626.572    625.452    624.618    624.618
 21.470    591.000    627.130    -36.130    624.285    626.273    625.142    624.285    624.285
 21.570    580.950    626.852    -45.902    623.948    625.971    624.830    623.948    623.948
 21.670    601.000    626.573    -25.573    623.608    625.667    624.514    623.608    623.608
 21.770    620.000    626.294     -6.294    623.265    625.362    624.197    623.265    623.265
 21.870    678.171    626.015     52.156    622.917    625.055    623.877    622.917    622.917
 21.970    598.000    625.736    -27.736    622.567    624.748    623.555    622.567    622.567
 22.070    583.000    625.459    -42.459    622.213    624.441    623.232    622.213    622.213
 22.170    678.333    625.184     53.150    621.856    624.134    622.906    621.856    621.856
 22.270    606.208    624.910    -18.702    621.496    623.827    622.579    621.496    621.496
 22.370    641.000    624.639     16.361    621.133    623.522    622.250    621.133    621.133
 22.470    600.000    624.371    -24.371    620.767    623.218    621.920    620.767    620.767
 22.570    592.000    624.108    -32.108    620.397    622.918    621.588    620.397    620.397
 22.670    625.000    623.852      1.148    620.025    622.622    621.256    620.025    620.025
 22.770    617.000    623.601     -6.601    619.650    622.329    620.922    619.650    619.650
 22.870    618.396    623.358     -4.962    619.271    622.042    620.588    619.271    619.271
 22.970    616.000    623.125     -7.125    618.890    621.762    620.254    618.890    618.890
 23.070    615.000    622.905     -7.905    618.507    621.493    619.919    618.507    618.507
 23.170    599.000    622.699    -23.699    618.120    621.236    619.584    618.120    618.120
 23.270    621.530    622.511     -0.981    617.731    620.993    619.249    617.731    617.731
 23.370    637.000    622.346     14.654    617.339    620.770    618.915    617.339    617.339
 23.470    659.000    622.210     36.790    616.945    620.573    618.582    616.945    616.945
 23.570    677.000    622.112     54.888    616.548    620.411    618.250    616.548    616.548
 23.670    573.119    622.063    -48.944    616.148    620.292    617.920    616.148    616.148
 23.770    590.238    622.080    -31.842    615.746    620.236    617.591    615.746    615.746
 23.870    615.000    622.178     -7.178    615.342    620.257    617.265    615.342    615.342
 23.970    665.747    622.392     43.355    614.935    620.388    616.941    614.935    614.935
 24.070    629.000    622.784      6.216    614.527    620.692    616.621    614.527    614.527
 24.170    571.917    623.488    -51.571    614.115    621.303    616.304    614.115    614.115
 24.270    583.000    624.851    -41.851    613.702    622.565    615.992    613.702    613.702
 24.370    647.000    627.730     19.270    613.287    625.337    615.686    613.287    613.287
 24.470    615.077    633.870    -18.793    612.869    631.365    615.385    612.869    612.869
 24.570    654.045    645.839      8.205    612.449    643.217    615.090    612.449    612.449
 24.670    708.000    665.583     42.417    612.028    662.841    614.804    612.028    612.028
 24.770    689.405    691.313     -1.907    611.604    688.443    614.526    611.604    611.604
 24.870    768.000    714.283     53.717    611.178    711.272    614.258    611.178    611.178
 24.970    727.000    720.839      6.161    610.751    717.662    614.001    610.751    610.751
 25.070    692.000    705.520    -13.520    610.321    702.147    613.757    610.321    610.321
 25.170    693.000    679.227     13.773    609.890    675.633    613.529    609.890    609.890
 25.270    705.000    655.010     49.990    609.458    651.177    613.317    609.458    609.458
 25.370    699.000    638.418     60.582    609.023    634.331    613.124    609.023    609.023
 25.470    637.048    629.118      7.931    608.587    624.758    612.954    608.587    608.587
 25.570    622.000    624.537     -2.537    608.149    619.882    612.809    608.149    608.149
 25.670    642.000    622.353     19.647    607.709    617.372    612.694    607.709    607.709
 25.770    626.000    621.244      4.756    607.268    615.902    612.612    607.268    607.268
 25.870    664.446    620.642     43.804    606.826    614.899    612.570    606.826    606.826
 25.970    671.000    620.338     50.662    606.382    614.147    612.573    606.382    606.382
 26.070    612.204    620.256     -8.052    605.937    613.563    612.631    605.937    605.937
 26.170    570.184    620.369    -50.185    605.490    613.107    612.752    605.490    605.490
 26.270    657.000    620.665     36.335    605.042    612.759    612.948    605.042    605.042
 26.370    677.000    621.150     55.850    604.593    612.509    613.233    604.593    604.593
 26.470    680.130    621.838     58.292    604.142    612.354    613.627    604.142    604.142
 26.570    616.221    622.756     -6.535    603.691    612.295    614.151    603.691    603.691
 26.670    675.000    623.940     51.060    603.238    612.343    614.834    603.238    603.238
 26.770    664.904    625.444     39.461    602.784    612.510    615.716    602.784    602.784
 26.870    674.000    627.337     46.663    602.328    612.819    616.845    602.328    602.328
 26.970    622.595    629.716     -7.121    601.872    613.300    618.286    601.872    601.872
 27.070    711.000    632.713     78.287    601.415    613.995    620.131    601.415    601.415
 27.170    584.546    636.513    -51.966    600.957    614.965    622.502    600.957    600.957
 27.270    591.646    641.379    -49.733    600.498    616.297    625.576    600.498    600.498
 27.370    758.000    647.717    110.283    600.038    618.124    629.626    600.038    600.038
 27.470    724.000    656.233     67.767    599.577    620.678    635.127    599.577    599.577
 27.570    688.000    668.391     19.609    599.115    624.439    643.060    599.115    599.115
 27.670    723.000    687.530     35.470    598.653    630.499    655.673    598.653    598.653
 27.770    746.631    720.929     25.702    598.190    641.232    677.870    598.190    598.190
 27.870    717.313    781.984    -64.671    597.726    661.008    718.673    597.726    597.726
 27.970    912.993    889.278     23.714    597.261    695.887    790.604    597.261    597.261
 28.070   1052.000   1058.068     -6.068    596.796    750.858    903.929    596.796    596.796
 28.170   1198.000   1282.422    -84.422    596.331    824.033   1054.611    596.331    596.331
 28.270   1461.000   1510.744    -49.744    595.864    898.711   1207.771    595.864    595.864
 28.370   1713.883   1637.460     76.424    595.397    940.726   1292.021    595.397    595.397
 28.470   1554.000   1587.174    -33.174    594.930    925.919   1256.124    594.930    594.930
 28.570   1427.000   1421.099      5.901    594.462    874.838   1140.705    594.462    594.462
 28.670   1196.000   1258.426    -62.426    593.994    827.075   1025.344    593.994    593.994
 28.770   1030.000   1172.967   -142.967    593.525    807.230    959.261    593.525    593.525
 28.870   1196.000   1176.342     19.658    593.056    818.667    950.724    593.056    593.056
 28.970   1240.017   1228.576     11.441    592.587    845.898    975.257    592.587    592.587
 29.070   1225.382   1254.184    -28.802    592.118    859.471    986.836    592.118    592.118
 29.170   1232.000   1196.202     35.798    591.648    837.232    950.645    591.648    591.648
 29.270   1160.000   1072.475     87.525    591.178    787.254    876.436    591.178    591.178
 29.370    898.196    936.773    -38.577    590.707    732.004    795.511    590.707    590.707
 29.470    938.000    824.755    113.245    590.237    686.305    728.713    590.237    590.237
 29.570    870.000    746.641    123.359    589.767    654.436    681.988    589.767    589.767
 29.670    833.000    697.913    135.087    589.296    634.581    652.637    589.296    589.296
 29.770    638.245    669.188    -30.944    588.825    622.912    635.106    588.825    588.825
 29.870    630.151    652.094    -21.943    588.355    616.009    624.441    588.355    588.355
 29.970    744.000    641.233    102.767    587.884    611.674    617.443    587.884    587.884
 30.070    774.000    633.778    140.222    587.413    608.769    612.422    587.413    587.413
 30.170    723.000    628.433     94.567    586.943    606.798    608.577    586.943    586.943
 30.270    625.942    624.691      1.251    586.472    605.620    605.541    586.472    586.472
 30.370    618.083    622.511     -4.427    586.002    605.353    603.156    586.002    586.002
 30.470    661.160    622.271     38.889    585.532    606.405    601.391    585.532    585.532
 30.570    673.470    624.778     48.692    585.062    609.508    600.322    585.062    585.062
 30.670    717.000    631.085     85.915    584.592    615.579    600.082    584.592    584.592
 30.770    586.081    641.928    -55.847    584.123    625.262    600.765    584.123    584.123
 30.870    751.000    656.697     94.303    583.653    638.078    602.237    583.653    583.653
 30.970    754.000    671.979     82.021    583.184    651.232    603.887    583.184    583.184
 31.070    684.000    680.941      3.059    582.716    659.091    604.518    582.716    582.716
 31.170    689.888    677.570     12.318    582.248    656.699    603.074    582.248    582.248
 31.270    707.000    663.285     43.715    581.780    645.239    599.790    581.780    581.780
 31.370    660.000    644.983     15.017    581.312    630.417    595.853    581.312    581.312
 31.470    679.199    628.428     50.771    580.845    617.004    592.253    580.845    580.845
 31.570    645.000    615.982     29.018    580.379    606.957    589.393    580.379    580.379
 31.670    646.000    607.663     38.337    579.913    600.298    587.271    579.913    579.913
 31.770    568.078    602.475    -34.397    579.447    596.207    585.710    579.447    579.447
 31.870    627.972    599.288     28.684    578.983    593.756    584.511    578.983    578.983
 31.970    628.000    597.257     30.743    578.518    592.249    583.523    578.518    578.518
 32.070    620.000    595.883     24.117    578.054    591.278    582.656    578.054    578.054
 32.170    555.917    594.916    -38.999    577.591    590.641    581.864    577.591    577.591
 32.270    543.191    594.245    -51.055    577.129    590.248    581.124    577.129    577.129
 32.370    643.973    593.823     50.150    576.667    590.065    580.423    576.667    576.667
 32.470    584.914    593.636     -8.722    576.206    590.087    579.753    576.206    576.206
 32.570    629.000    593.688     35.312    575.746    590.321    579.111    575.746    575.746
 32.670    561.000    594.001    -33.001    575.286    590.793    578.492    575.286    575.286
 32.770    575.000    594.612    -19.612    574.828    591.542    577.895    574.828    574.828
 32.870    568.533    595.582    -27.049    574.370    592.630    577.318    574.370    574.370
 32.970    605.000    596.997      8.003    573.912    594.146    576.762    573.912    573.912
 33.070    643.000    598.996     44.004    573.456    596.224    576.225    573.456    573.456
 33.170    620.000    601.805     18.195    573.001    599.091    575.712    573.001    573.001
 33.270    591.021    605.856    -14.835    572.546    603.171    575.227    572.546    572.546
 33.370    597.778    612.018    -14.240    572.093    609.323    574.783    572.093    572.093
 33.470    650.000    622.046     27.954    571.640    619.273    574.406    571.640    571.640
 33.570    665.000    639.148     25.852    571.189    636.180    574.145    571.189    571.189
 33.670    644.000    668.298    -24.298    570.738    664.942    574.077    570.738    570.738
 33.770    662.811    715.509    -52.698    570.288    711.478    574.294    570.288    570.288
 33.870    811.190    785.275     25.915    569.840    780.214    574.864    569.840    569.840
 33.970    920.000    875.888     44.112    569.392    869.471    575.761    569.392    569.392
 34.070   1028.303    972.870     55.434    568.946    964.999    576.761    568.946    568.946
 34.170   1061.000   1044.555     16.445    568.501   1035.627    577.376    568.501    568.501
 34.270   1147.000   1054.995     92.005    568.057   1045.962    577.052    568.057    568.057
 34.370   1063.000    997.169     65.831    567.614    989.081    575.679    567.614    567.614
 34.470    921.000    902.033     18.967    567.172    895.458    573.735    567.172    567.172
 34.570    725.000    805.931    -80.931    566.731    800.875    571.781    566.731    566.731
 34.670    722.000    728.344     -6.344    566.292    724.517    570.116    566.292    566.292
 34.770    630.000    673.847    -43.847    565.853    670.887    568.811    565.853    565.853
 34.870    647.000    639.094      7.906    565.416    636.694    567.814    565.416    565.416
 34.970    602.000    618.102    -16.102    564.981    616.047    567.034    564.981    564.981
 35.070    614.552    605.414      9.138    564.546    603.574    566.385    564.546    564.546
 35.170    622.000    597.311     24.689    564.113    595.612    565.810    564.113    564.113
 35.270    570.447    591.678    -21.231    563.681    590.080    565.278    563.681    563.681
 35.370    605.000    587.448     17.552    563.251    585.927    564.771    563.251    563.251
 35.470    586.284    584.099      2.185    562.822    582.638    564.282    562.822    562.822
 35.570    572.574    581.360     -8.785    562.394    579.947    563.806    562.394    562.394
 35.670    534.000    579.068    -45.068    561.968    577.694    563.341    561.968    561.968
 35.770    593.941    577.120     16.821    561.543    575.775    562.887    561.543    561.543
 35.870    524.499    575.439    -50.941    561.120    574.117    562.441    561.120    561.120
 35.970    574.000    573.973      0.027    560.698    572.666    562.003    560.698    560.698
 36.070    520.679    572.680    -52.000    560.277    571.382    561.574    560.277    560.277
 36.170    537.000    571.529    -34.529    559.858    570.234    561.153    559.858    559.858
 36.270    578.000    570.500      7.500    559.441    569.198    560.741    559.441    559.441
 36.370    615.275    569.573     45.702    559.025    568.258    560.339    559.025    559.025
 36.470    496.000    568.737    -72.737    558.610    567.400    559.947    558.610    558.610
 36.570    524.825    567.983    -43.158    558.197    566.614    559.567    558.197    558.197
 36.670    604.796    567.307     37.490    557.786    565.893    559.200    557.786    557.786
 36.770    502.000    566.707    -64.707    557.376    565.233    558.850    557.376    557.376
 36.870    528.000    566.186    -38.186    556.968    564.634    558.520    556.968    556.968
 36.970    495.000    565.759    -70.759    556.562    564.105    558.216    556.562    556.562
 37.070    591.000    565.459     25.541    556.157    563.671    557.945    556.157    556.157
 37.170    536.000    565.365    -29.365    555.754    563.396    557.723    555.754    555.754
 37.270    550.334    565.640    -15.306    555.352    563.415    557.578    555.352    555.352
 37.370    569.000    566.568      2.432    554.952    563.956    557.565    554.952    554.952
 37.470    598.000    568.546     29.454    554.554    565.310    557.792    554.554    554.554
 37.570    622.201    571.969     50.232    554.158    567.692    558.436    554.158    554.158
 37.670    582.000    576.990      5.010    553.763    571.003    559.752    553.763    553.763
 37.770    561.469    583.201    -21.732    553.370    574.562    562.012    553.370    553.370
 37.870    568.000    589.433    -21.433    552.979    577.036    565.380    552.979    552.979
 37.970    578.000    594.195    -16.195    552.589    577.096    569.694    552.589    552.589
 38.070    560.000    596.592    -36.592    552.202    574.599    574.202    552.202    552.202
 38.170    558.000    596.259    -38.259    551.816    570.673    577.409    551.816    551.816
 38.270    560.000    592.795    -32.795    551.432    566.570    577.665    551.432    551.432
 38.370    540.000    586.553    -46.553    551.049    563.020    574.591    551.049    551.049
 38.470    599.987    579.154     20.833    550.669    560.295    569.534    550.669    550.669
 38.570    505.000    572.277    -67.277    550.290    558.356    564.216    550.290    550.290
 38.670    555.000    566.754    -11.754    549.914    557.003    559.669    549.914    549.914
 38.770    554.000    562.718     -8.718    549.539    556.030    556.229    549.539    549.539
 38.870    540.000    559.940    -19.940    549.166    555.289    553.818    549.166    549.166
 38.970    537.000    558.071    -21.071    548.795    554.686    552.181    548.795    548.795
 39.070    537.000    556.786    -19.786    548.425    554.167    551.045    548.425    548.425
 39.170    550.483    555.844     -5.362    548.058    553.701    550.202    548.058    548.058
 39.270    607.804    555.098     52.706    547.693    553.270    549.521    547.693    547.693
 39.370    554.839    554.467      0.372    547.329    552.865    548.931    547.329    547.329
 39.470    509.045    553.910    -44.864    546.968    552.481    548.397    546.968    546.968
 39.570    595.658    553.406     42.253    546.608    552.113    547.901    546.608    546.608
 39.670    556.515    552.942      3.573    546.251    551.761    547.432    546.251    546.251
 39.770    556.000    552.512      3.488    545.895    551.423    546.985    545.895    545.895
 39.870    547.000    552.110     -5.110    545.541    551.098    546.554    545.541    545.541
 39.970    549.000    551.734     -2.734    545.190    550.786    546.138    545.190    545.190
 40.070    496.000    551.380    -55.380    544.840    550.488    545.733    544.840    544.840
 40.170    573.621    551.047     22.573    544.492    550.203    545.337    544.492    544.492
 40.270    579.000    550.735     28.265    544.147    549.931    544.951    544.147    544.147
 40.370    494.000    550.443    -56.443    543.803    549.675    544.571    543.803    543.803
 40.470    517.004    550.171    -33.167    543.462    549.434    544.199    543.462    543.462
 40.570    543.000    549.920     -6.920    543.122    549.211    543.832    543.122    543.122
 40.670    587.109    549.692     37.417    542.785    549.007    543.471    542.785    542.785
 40.770    521.000    549.489    -28.489    542.449    548.824    543.114    542.449    542.449
 40.870    509.000    549.312    -40.312    542.116    548.666    542.763    542.116    542.116
 40.970    488.000    549.167    -61.167    541.785    548.537    542.416    541.785    541.785
 41.070    526.000    549.057    -23.057    541.456    548.441    542.073    541.456    541.456
 41.170    552.487    548.989      3.498    541.129    548.384    541.735    541.129    541.129
 41.270    539.000    548.971     -9.971    540.804    548.375    541.401    540.804    540.804
 41.370    494.592    549.014    -54.421    540.481    548.425    541.072    540.481    540.481
 41.470    499.272    549.131    -49.859    540.161    548.547    540.746    540.161    540.161
 41.570    602.927    549.344     53.584    539.842    548.762    540.426    539.842    539.842
 41.670    551.000    549.684      1.316    539.526    549.101    540.111    539.526    539.526
 41.770    571.000    550.205     20.795    539.211    549.617    539.801    539.211    539.211
 41.870    572.594    551.009     21.585    538.899    550.411    539.500    538.899    538.899
 41.970    538.000    552.294    -14.294    538.589    551.676    539.210    538.589    538.589
 42.070    539.305    554.427    -15.122    538.281    553.775    538.938    538.281    538.281
 42.170    521.000    558.032    -37.032    537.976    557.319    538.695    537.976    537.976
 42.270    528.000    564.016    -36.016    537.672    563.200    538.497    537.672    537.672
 42.370    550.346    573.455    -23.109    537.371    572.476    538.363    537.371    537.371
 42.470    539.000    587.235    -48.235    537.072    586.017    538.309    537.072    537.072
 42.570    624.037    605.444     18.593    536.775    603.910    538.337    536.775    536.775
 42.670    613.607    626.565    -12.958    536.480    624.664    538.420    536.480    536.480
 42.770    592.000    646.605    -54.605    536.188    644.357    538.485    536.188    536.188
 42.870    639.000    659.195    -20.195    535.897    656.730    538.420    535.897    535.897
 42.970    611.000    658.805    -47.805    535.609    656.349    538.126    535.609    535.609
 43.070    682.155    645.528     36.627    535.323    643.302    537.605    535.323    535.323
 43.170    616.000    624.973     -8.973    535.040    623.103    536.955    535.040    535.040
 43.270    569.000    603.466    -34.466    534.758    601.967    536.292    534.758    534.758
 43.370    545.000    584.930    -39.930    534.479    583.751    535.683    534.479    534.479
 43.470    544.000    570.836    -26.836    534.202    569.898    535.157    534.202    534.202
 43.570    613.575    561.069     52.506    533.927    560.297    534.710    533.927    533.927
 43.670    494.000    554.732    -60.732    533.655    554.067    534.327    533.655    533.655
 43.770    524.000    550.751    -26.751    533.384    550.152    533.989    533.384    533.384
 43.870    520.430    548.226    -27.796    533.116    547.668    533.679    533.116    533.116
 43.970    566.000    546.541     19.459    532.850    546.009    533.386    532.850    532.850
 44.070    527.385    545.333    -17.949    532.587    544.818    533.104    532.587    532.587
 44.170    560.000    544.409     15.591    532.325    543.906    532.830    532.325    532.325
 44.270    520.736    543.667    -22.931    532.066    543.173    532.562    532.066    532.066
 44.370    538.000    543.056     -5.056    531.809    542.568    532.299    531.809    531.809
 44.470    548.000    542.544      5.456    531.555    542.060    532.039    531.555    531.555
 44.570    526.000    542.111    -16.111    531.302    541.630    531.784    531.302    531.302
 44.670    554.000    541.743     12.257    531.052    541.264    531.532    531.052    531.052
 44.770    527.001    541.430    -14.429    530.805    540.951    531.284    530.805    530.805
 44.870    524.000    541.165    -17.165    530.559    540.685    531.040    530.559    530.559
 44.970    503.000    540.942    -37.942    530.316    540.460    530.798    530.316    530.316
 45.070    589.843    540.757     49.086    530.075    540.272    530.560    530.075    530.075
 45.170    569.000    540.607     28.393    529.836    540.118    530.325    529.836    529.836
 45.270    568.000    540.490     27.510    529.599    539.996    530.094    529.599    529.599
 45.370    534.000    540.404     -6.404    529.365    539.904    529.865    529.365    529.365
 45.470    492.112    540.349    -48.238    529.133    539.842    529.640    529.133    529.133
 45.570    562.008    540.325     21.683    528.904    539.810    529.418    528.904    528.904
 45.670    562.000    540.332     21.668    528.676    539.809    529.200    528.676    528.676
 45.770    542.000    540.372      1.628    528.451    539.838    528.985    528.451    528.451
 45.870    536.000    540.445     -4.445    528.228    539.900    528.773    528.228    528.228
 45.970    589.202    540.555     48.647    528.008    539.997    528.565    528.008    528.008
 46.070    538.459    540.703     -2.244    527.789    540.131    528.361    527.789    527.789
 46.170    525.000    540.894    -15.894    527.573    540.306    528.160    527.573    527.573
 46.270    539.000    541.132     -2.132    527.360    540.526    527.964    527.360    527.360
 46.370    575.000    541.422     33.578    527.148    540.797    527.772    527.148    527.148
 46.470    517.352    541.773    -24.421    526.939    541.126    527.584    526.939    526.939
 46.570    534.000    542.194     -8.194    526.732    541.522    527.402    526.732    526.732
 46.670    538.000    542.696     -4.696    526.527    541.997    527.225    526.527    526.527
 46.770    581.000    543.299     37.701    526.325    542.569    527.053    526.325    526.325
 46.870    553.000    544.031      8.969    526.125    543.265    526.889    526.125    526.125
 46.970    530.000    544.941    -14.941    525.927    544.132    526.734    525.927    525.927
 47.070    559.254    546.119     13.135    525.731    545.257    526.590    525.731    525.731
 47.170    570.000    547.725     22.275    525.538    546.796    526.463    525.538    525.538
 47.270    591.000    550.035     40.965    525.347    549.015    526.361    525.347    525.347
 47.370    568.000    553.467     14.533    525.158    552.317    526.300    525.158    525.158
 47.470    553.000    558.572     -5.572    524.971    557.236    526.295    524.971    524.971
 47.570    565.000    565.933     -0.933    524.787    564.337    526.366    524.787    524.787
 47.670    573.841    575.958     -2.117    524.605    574.012    526.527    524.605    524.605
 47.770    623.000    588.571     34.429    524.425    586.188    526.775    524.425    524.425
 47.870    571.549    602.841    -31.292    524.247    599.966    527.080    524.247    524.247
 47.970    622.000    616.633      5.367    524.072    613.278    527.376    524.072    524.072
 48.070    674.000    626.649     47.351    523.899    622.937    527.556    523.899    523.899
 48.170    685.539    629.748     55.790    523.728    625.900    527.521    523.728    523.728
 48.270    644.000    625.285     18.715    523.559    621.544    527.250    523.559    523.559
 48.370    608.000    615.783     -7.783    523.393    612.309    526.826    523.393    523.393
 48.470    637.000    604.858     32.142    523.229    601.690    526.365    523.229    523.229
 48.570    620.000    595.236     24.764    523.067    592.323    525.957    523.067    523.067
 48.670    600.000    588.353     11.647    522.907    585.595    525.648    522.907    522.907
 48.770    595.603    584.670     10.933    522.750    581.952    525.455    522.750    522.750
 48.870    573.000    584.068    -11.068    522.595    581.274    525.379    522.595    522.595
 48.970    616.171    586.199     29.972    522.441    583.220    525.413    522.441    522.441
 49.070    588.401    590.772     -2.371    522.291    587.504    525.552    522.291    522.291
 49.170    603.880    597.792      6.088    522.142    594.120    525.808    522.142    522.142
 49.270    568.723    607.815    -39.092    521.995    603.586    526.217    521.995    521.995
 49.370    657.000    622.355     34.645    521.851    617.332    526.865    521.851    521.851
 49.470    669.043    644.657     24.385    521.709    638.424    527.929    521.709    521.709
 49.570    623.000    680.796    -57.796    521.569    672.606    529.737    521.569    521.569
 49.670    699.000    740.769    -41.769    521.431    729.336    532.830    521.431    521.431
 49.770    871.967    838.597     33.370    521.296    821.876    537.963    521.296    521.296
 49.870    915.000    990.028    -75.028    521.163    965.127    545.985    521.163    521.163
 49.970   1198.452   1206.834     -8.381    521.031   1170.228    557.530    521.031    521.031
 50.070   1445.036   1488.069    -43.033    520.902   1436.294    572.548    520.902    520.902
 50.170   1817.000   1810.050      6.950    520.775   1740.932    589.762    520.775    520.775
 50.270   2036.335   2117.900    -81.565    520.651   2032.236    606.213    520.651    520.651
 50.370   2433.000   2328.106    104.894    520.528   2231.208    617.395    520.528    520.528
 50.470   2412.000   2362.415     49.585    520.408   2263.798    619.082    520.408    520.408
 50.570   2273.000   2205.945     67.055    520.289   2115.904    610.456    520.289    520.289
 50.670   1934.000   1922.177     11.823    520.173   1847.583    594.920    520.173    520.173
 50.770   1597.000   1600.490     -3.490    520.059   1543.430    577.267    520.059    520.059
 50.870   1333.778   1307.524     26.253    519.947   1266.533    561.063    519.947    519.947
 50.970    947.000   1076.726   -129.726    519.837   1048.564    548.096    519.837    519.837
 51.070    872.000    915.117    -43.117    519.730    896.164    538.757    519.730    519.730
 51.170    774.000    812.997    -38.997    519.624    800.102    532.576    519.624    519.624
 51.270    741.000    753.154    -12.154    519.520    743.988    528.736    519.520    519.520
 51.370    626.000    717.935    -91.935    519.419    710.962    526.436    519.419    519.419
 51.470    749.003    693.675     55.328    519.319    687.954    525.080    519.319    519.319
 51.570    683.411    672.771     10.640    519.222    667.734    524.293    519.222    519.222
 51.670    681.000    653.044     27.956    519.127    648.326    523.873    519.127    519.127
 51.770    593.000    635.083    -42.083    519.034    630.432    523.706    519.034    519.034
 51.870    563.000    619.943    -56.943    518.942    615.190    523.712    518.942    518.942
 51.970    598.000    608.204    -10.204    518.853    603.271    523.797    518.853    518.853
 52.070    656.000    599.808     56.192    518.766    594.743    523.839    518.766    518.766
 52.170    593.000    594.247     -1.247    518.681    589.232    523.701    518.681    518.681
 52.270    574.784    590.907    -16.123    518.598    586.194    523.315    518.598    518.598
 52.370    549.413    589.358    -39.945    518.517    585.145    522.732    518.517    518.517
 52.470    609.245    589.466     19.780    518.438    585.831    522.075    518.438    518.438
 52.570    619.474    591.414     28.060    518.361    588.329    521.448    518.361    518.361
 52.670    566.896    595.797    -28.901    518.286    593.165    520.919    518.286    518.286
 52.770    633.000    603.792     29.208    518.213    601.485    520.521    518.213    518.213
 52.870    649.000    617.386     31.614    518.142    615.262    520.266    518.142    518.142
 52.970    688.000    639.516     48.484    518.073    637.429    520.159    518.073    518.073
 53.070    658.483    673.945    -15.462    518.006    671.739    520.208    518.006    518.006
 53.170    747.000    724.627     22.373    517.940    722.140    520.422    517.940    517.940
 53.270    851.000    794.477     56.523    517.877    791.536    520.811    517.877    517.877
 53.370    842.655    883.615    -40.959    517.816    880.056    521.366    517.816    517.816
 53.470   1039.735    987.358     52.377    517.756    983.062    522.044    517.756    517.756
 53.570   1136.899   1094.187     42.712    517.699   1089.125    522.755    517.699    517.699
 53.670   1269.000   1184.608     84.392    517.643   1178.903    523.347    517.643    517.643
 53.770   1233.536   1234.640     -1.104    517.589   1228.600    523.637    517.589    517.589
 53.870   1177.102   1227.649    -50.548    517.537   1221.708    523.497    517.537    517.537
 53.970   1145.298   1166.420    -21.121    517.488   1160.986    522.946    517.488    517.488
 54.070   1063.000   1070.755     -7.755    517.439   1066.085    522.136    517.439    517.439
 54.170    937.000    964.110    -27.110    517.393    960.283    521.245    517.393    517.393
 54.270    833.000    864.019    -31.019    517.349    860.981    520.408    517.349    517.349
 54.370    814.894    780.183     34.712    517.306    777.808    519.698    517.306    517.306
 54.470    710.000    715.945     -5.945    517.265    714.082    519.141    517.265    517.265
 54.570    709.000    670.338     38.662    517.227    668.846    518.728    517.227    517.227
 54.670    653.951    640.057     13.894    517.189    638.818    518.434    517.189    517.189
 54.770    660.628    621.099     39.529    517.154    620.028    518.229    517.154    517.154
 54.870    623.682    609.859     13.822    517.121    608.899    518.083    517.121    517.121
 54.970    563.406    603.619    -40.213    517.089    602.733    517.977    517.089    517.089
 55.070    600.000    600.588     -0.588    517.059    599.753    517.895    517.059    517.059
 55.170    629.000    599.718     29.282    517.031    598.920    517.830    517.031    517.031
 55.270    553.912    600.462    -46.550    517.004    599.692    517.775    517.004    517.004
 55.370    631.000    602.587     28.413    516.980    601.838    517.730    516.980    516.980
 55.470    615.000    606.053      8.947    516.957    605.319    517.691    516.957    516.957
 55.570    553.997    610.963    -56.966    516.935    610.240    517.658    516.935    516.935
 55.670    605.000    617.580    -12.580    516.916    616.866    517.629    516.916    516.916
 55.770    625.000    626.388     -1.388    516.898    625.704    517.581    516.898    516.898
 55.870    664.068    638.423     25.646    516.882    637.744    517.558    516.882    516.882
 55.970    658.000    655.439      2.561    516.867    654.756    517.546    516.867    516.867
 56.070    734.000    680.538     53.462    516.855    679.845    517.540    516.855    516.855
 56.170    668.344    718.794    -50.450    516.844    718.085    517.538    516.844    516.844
 56.270    767.236    777.731    -10.496    516.834    777.001    517.542    516.834    516.834
 56.370    861.000    867.228     -6.228    516.826    866.470    517.551    516.826    516.826
 56.470    873.000    998.265   -125.265    516.820    997.472    517.566    516.820    516.820
 56.570   1142.000   1180.168    -38.168    516.815   1179.338    517.587    516.815    516.815
 56.670   1366.048   1416.443    -50.395    516.812   1415.575    517.615    516.812    516.812
 56.770   1682.000   1699.815    -17.815    516.811   1698.914    517.650    516.811    516.811
 56.870   2028.728   2007.122     21.605    516.811   2006.200    517.693    516.811    516.811
 56.970   2403.000   2295.027    107.973    516.813   2294.099    517.744    516.813    516.813
 57.070   2600.899   2501.622     99.277    516.816   2500.702    517.806    516.816    516.816
 57.170   2622.000   2565.930     56.070    516.821   2565.013    517.878    516.821    516.821
 57.270   2498.000   2465.487     32.513    516.827   2464.542    517.963    516.827    516.827
 57.370   2241.000   2234.888      6.112    516.835   2233.867    518.063    516.835    516.835
 57.470   2003.634   1939.139     64.495    516.844   1937.995    518.185    516.844    516.844
 57.570   1585.000   1637.120    -52.120    516.855   1635.808    518.334    516.855    516.855
 57.670   1221.000   1367.158   -146.158    516.867   1365.632    518.525    516.867    516.867
 57.770   1122.000   1148.179    -26.179    516.881   1146.377    518.781    516.881    516.881
 57.870    978.000    984.644     -6.644    516.896    982.462    519.145    516.896    516.896
 57.970    863.000    871.777     -8.777    516.913    869.042    519.691    516.913    516.913
 58.070    829.528    800.497     29.031    516.931    796.927    520.527    516.931    516.931
 58.170    749.000    761.460    -12.460    516.951    756.583    521.840    516.951    516.951
 58.270    780.990    747.339     33.651    516.972    740.483    523.829    516.972    516.972
 58.370    816.684    753.616     63.067    516.994    743.910    526.692    516.994    516.994
 58.470    780.000    778.076      1.924    517.018    764.519    530.558    517.018    517.018
 58.570    759.000    819.594    -60.594    517.043    801.213    535.398    517.043    517.043
 58.670    861.000    876.667    -15.667    517.070    852.772    540.931    517.070    517.070
 58.770    996.000    945.908     50.092    517.097    916.425    546.542    517.097    517.097
 58.870    969.000   1020.950    -51.950    517.127    986.764    551.274    517.127    517.127
 58.970   1116.000   1093.129     22.871    517.157   1056.211    554.042    517.157    517.157
 59.070   1156.591   1154.812      1.780    517.189   1117.771    554.208    517.189    517.189
 59.170   1212.219   1201.704     10.515    517.222   1166.935    551.981    517.222    517.222
 59.270   1265.000   1230.596     34.404    517.257   1199.716    548.137    517.257    517.257
 59.370   1177.053   1237.767    -60.714    517.292   1211.596    543.473    517.292    517.292
 59.470   1249.000   1223.450     25.550    517.329   1202.180    538.612    517.329    517.329
 59.570   1148.609   1196.150    -47.542    517.367   1179.473    534.049    517.367    517.367
 59.670   1241.000   1169.114     71.886    517.407   1156.367    530.136    517.407    517.407
 59.770   1229.002   1153.749     75.253    517.448   1144.114    527.033    517.448    517.448
 59.870   1167.000   1157.153      9.847    517.489   1149.819    524.733    517.489    517.489
 59.970   1233.000   1183.442     49.558    517.532   1177.709    523.133    517.532    517.532
 60.070   1254.000   1234.731     19.269    517.577   1230.041    522.090    517.577    517.577
 60.170   1320.000   1309.153     10.847    517.622   1305.093    521.464    517.622    517.622
 60.270   1428.000   1397.582     30.418    517.669   1393.879    521.121    517.669    517.669
 60.370   1466.000   1481.812    -15.812    517.716   1478.315    520.948    517.716    517.716
 60.470   1543.000   1536.391      6.609    517.765   1533.056    520.843    517.765    517.765
 60.570   1627.000   1537.352     89.648    517.815   1534.210    520.731    517.815    517.815
 60.670   1545.000   1476.186     68.814    517.866   1473.294    520.575    517.866    517.866
 60.770   1335.320   1365.817    -30.497    517.918   1363.219    520.377    517.918    517.918
 60.870   1288.000   1230.876     57.124    517.972   1228.580    520.166    517.972    517.972
 60.970   1057.000   1094.504    -37.504    518.026   1092.486    519.971    518.026    518.026
 61.070   1010.000    972.642     37.358    518.081    970.857    519.814    518.081    518.081
 61.170    916.000    874.010     41.990    518.138    872.399    519.710    518.138    518.138
 61.270    862.000    801.777     60.223    518.195    800.275    519.664    518.195    518.195
 61.370    767.000    755.591     11.409    518.254    754.129    519.684    518.254    518.254
 61.470    754.000    733.626     20.374    518.313    732.126    519.778    518.313    518.313
 61.570    732.000    734.269     -2.269    518.373    732.642    519.958    518.373    518.373
 61.670    726.720    757.014    -30.294    518.435    755.151    520.243    518.435    518.435
 61.770    817.000    802.374     14.626    518.497    800.147    520.652    518.497    518.497
 61.870    885.000    870.903     14.097    518.560    868.170    521.200    518.560    518.560
 61.970   1007.886    961.633     46.252    518.624    958.252    521.887    518.624    518.624
 62.070   1059.000   1070.325    -11.325    518.689   1066.180    522.690    518.689    518.689
 62.170   1252.899   1187.834     65.065    518.755   1182.871    523.551    518.755    518.755
 62.270   1227.000   1298.857    -71.857    518.822   1293.128    524.370    518.822    518.822
 62.370   1440.376   1382.343     58.033    518.890   1376.043    525.010    518.890    518.890
 62.470   1409.000   1416.855     -7.855    518.959   1410.325    525.329    518.959    518.959
 62.570   1335.000   1391.623    -56.623    519.028   1385.268    525.259    519.028    519.028
 62.670   1238.000   1313.917    -75.917    519.098   1308.082    524.847    519.098    519.098
 62.770   1151.000   1203.705    -52.705    519.169   1198.597    524.225    519.169    519.169
 62.870    981.000   1082.487   -101.487    519.241   1078.164    523.536    519.241    519.241
 62.970    998.483    966.659     31.825    519.314    963.072    522.888    519.314    519.314
 63.070    807.000    866.228    -59.228    519.387    863.262    522.348    519.387    519.387
 63.170    767.000    785.684    -18.684    519.461    783.196    521.948    519.461    519.461
 63.270    698.000    725.373    -27.373    519.536    723.216    521.692    519.536    519.536
 63.370    682.000    683.002     -1.002    519.612    681.044    521.566    519.612    519.612
 63.470    680.000    655.087     24.913    519.688    653.216    521.553    519.688    519.688
 63.570    655.000    638.124     16.876    519.765    636.245    521.635    519.765    519.765
 63.670    676.000    629.337     46.663    519.843    627.361    521.807    519.843    519.843
 63.770    654.000    627.016     26.984    519.922    624.846    522.076    519.922    519.922
 63.870    634.000    630.565      3.435    520.001    628.075    522.471    520.001    520.001
 63.970    687.000    640.358     46.642    520.080    637.373    523.040    520.080    520.080
 64.070    650.549    657.485     -6.935    520.161    653.751    523.861    520.161    520.161
 64.170    692.000    683.388      8.612    520.242    678.554    525.031    520.242    520.242
 64.270    728.802    719.397      9.405    520.323    712.998    526.663    520.323    520.323
 64.370    744.000    766.152    -22.152    520.405    757.620    528.863    520.405    520.405
 64.470    852.000    822.977     29.023    520.488    811.676    531.696    520.488    520.488
 64.570    919.000    887.219     31.781    520.571    872.524    535.154    520.571    520.571
 64.670    991.146    953.669     37.477    520.655    935.087    539.109    520.655    520.655
 64.770   1033.948   1014.420     19.528    520.739    991.743    543.280    520.739    520.739
 64.870   1131.663   1060.004     71.659    520.824   1033.478    547.214    520.824    520.824
 64.970   1134.956   1082.322     52.634    520.909   1052.784    550.321    520.909    520.909
 65.070   1080.000   1077.915      2.085    520.995   1046.811    551.991    520.995    520.995
 65.170   1125.000   1049.156     75.844    521.081   1018.325    551.830    521.081    521.081
 65.270   1048.258   1002.910     45.348    521.168    974.147    549.873    521.168    521.168
 65.370    905.408    947.875    -42.468    521.255    922.505    546.592    521.255    521.255
 65.470    913.000    891.854     21.146    521.343    870.544    542.640    521.343    521.343
 65.570    830.000    840.055    -10.055    521.431    822.883    538.606    521.431    521.431
 65.670    801.000    794.803      6.197    521.519    781.435    534.902    521.519    521.519
 65.770    776.000    756.301     19.699    521.608    746.167    531.762    521.608    521.608
 65.870    712.000    723.831    -11.831    521.697    716.278    529.272    521.697    521.697
 65.970    673.032    696.721    -23.689    521.787    691.116    527.413    521.787    521.787
 66.070    651.000    674.558    -23.558    521.876    670.355    526.097    521.876    521.876
 66.170    602.000    656.967    -54.967    521.967    653.737    525.209    521.967    521.967
 66.270    599.000    643.556    -44.556    522.057    640.987    524.635    522.057    522.057
 66.370    613.000    633.930    -20.930    522.148    631.806    524.277    522.148    522.148
 66.470    648.196    627.715     20.480    522.239    625.896    524.060    522.239    522.239
 66.570    621.000    624.587     -3.587    522.330    622.983    523.935    522.330    522.330
 66.670    642.000    624.299     17.701    522.421    622.852    523.867    522.421    522.421
 66.770    620.000    626.745     -6.745    522.513    625.418    523.839    522.513    522.513
 66.870    644.000    632.076     11.924    522.605    630.840    523.840    522.605    522.605
 66.970    696.693    640.855     55.837    522.697    639.688    523.864    522.697    522.697
 67.070    700.363    654.268     46.095    522.790    653.146    523.910    522.790    522.790
 67.170    665.000    674.360     -9.360    522.882    673.259    523.979    522.882    522.882
 67.270    703.000    704.276     -1.276    522.975    703.168    524.078    522.975    522.975
 67.370    704.185    748.398    -44.214    523.068    747.245    524.212    523.068    523.068
 67.470    763.000    812.246    -49.246    523.160    811.000    524.393    523.160    523.160
 67.570    929.110    901.978     27.132    523.254    900.582    524.632    523.254    523.254
 67.670   1005.000   1023.387    -18.387    523.347   1021.772    524.941    523.347    523.347
 67.770   1167.000   1180.379    -13.379    523.440   1178.473    525.326    523.440    523.440
 67.870   1418.000   1373.136     44.864    523.533   1370.867    525.788    523.533    523.533
 67.970   1599.000   1596.180      2.820    523.627   1593.492    526.316    523.627    523.627
 68.070   1800.000   1836.597    -36.597    523.720   1833.463    526.881    523.720    523.720
 68.170   2030.000   2072.622    -42.622    523.813   2069.063    527.440    523.813    523.813
 68.270   2308.000   2273.591     34.409    523.907   2269.690    527.928    523.907    523.907
 68.370   2292.883   2404.114   -111.231    524.000   2400.022    528.274    524.000    524.000
 68.470   2482.920   2435.400     47.520    524.094   2431.316    528.417    524.094    524.094
 68.570   2315.000   2359.628    -44.628    524.187   2355.751    528.342    524.187    524.187
 68.670   2229.000   2194.788     34.212    524.280   2191.274    528.085    524.280    524.280
 68.770   2023.000   1974.503     48.497    524.374   1971.440    527.715    524.374    524.374
 68.870   1658.000   1733.340    -75.340    524.467   1730.753    527.304    524.467    524.467
 68.970   1480.021   1498.409    -18.388    524.560   1496.276    526.906    524.560    524.560
 69.070   1242.000   1287.531    -45.531    524.653   1285.799    526.558    524.653    524.653
 69.170   1078.000   1110.190    -32.190    524.746   1108.791    526.279    524.746    524.746
 69.270    990.000    969.175     20.825    524.839    968.038    526.076    524.839    524.839
 69.370    811.000    862.440    -51.440    524.931    861.501    525.944    524.931    524.931
 69.470    783.000    785.027     -2.027    525.024    784.230    525.873    525.024    525.024
 69.570    693.000    730.791    -37.791    525.116    730.094    525.850    525.116    525.116
 69.670    726.125    693.716     32.409    525.208    693.087    525.862    525.208    525.208
 69.770    689.924    668.684     21.240    525.300    668.102    525.900    525.300    525.300
 69.870    679.000    651.777     27.223    525.392    651.227    525.955    525.392    525.392
 69.970    689.212    640.237     48.974    525.483    639.709    526.021    525.483    525.483
 70.070    624.000    632.257     -8.257    525.574    631.742    526.095    525.574    525.574
 70.170    635.000    626.720      8.280    525.665    626.215    526.174    525.665    525.665
 70.270    616.000    622.977     -6.977    525.756    622.477    526.258    525.756    525.756
 70.370    592.199    620.677    -28.479    525.846    620.179    526.345    525.846    525.846
 70.470    633.000    619.666     13.334    525.936    619.166    526.435    525.936    525.936
 70.570    595.000    619.938    -24.938    526.026    619.433    526.529    526.026    526.026
 70.670    605.000    621.635    -16.635    526.115    621.119    526.626    526.115    526.115
 70.770    653.000    625.086     27.914    526.204    624.555    526.729    526.204    526.204
 70.870    658.000    630.889     27.111    526.293    630.334    526.838    526.293    526.293
 70.970    589.487    640.014    -50.528    526.381    639.425    526.957    526.381    526.381
 71.070    682.000    653.942     28.058    526.469    653.302    527.091    526.469    526.469
 71.170    655.923    674.770    -18.848    526.556    674.056    527.245    526.556    526.556
 71.270    702.000    705.265     -3.265    526.643    704.444    527.429    526.643    526.643
 71.370    760.587    748.768     11.819    526.730    747.797    527.653    526.730    526.730
 71.470    749.000    808.898    -59.898    526.816    807.721    527.927    526.816    526.816
 71.570    872.000    888.998    -16.998    526.902    887.550    528.262    526.902    526.902
 71.670    963.000    991.351    -28.351    526.987    989.558    528.666    526.987    526.987
 71.770   1063.036   1116.230    -53.194    527.072   1114.019    529.140    527.072    527.072
 71.870   1308.000   1260.933     47.067    527.156   1258.242    529.674    527.156    527.156
 71.970   1373.900   1418.875    -44.975    527.240   1415.664    530.250    527.240    527.240
 72.070   1552.000   1578.841    -26.841    527.323   1575.108    530.834    527.323    527.323
 72.170   1805.069   1724.663     80.406    527.406   1720.459    531.375    527.406    527.406
 72.270   1853.000   1836.361     16.639    527.488   1831.806    531.813    527.488    527.488
 72.370   1911.745   1894.394     17.351    527.569   1889.665    532.090    527.569    527.569
 72.470   1982.889   1886.890     96.000    527.650   1882.197    532.167    527.650    527.650
 72.570   1855.000   1815.418     39.582    527.731   1810.961    532.051    527.731    527.731
 72.670   1678.000   1694.117    -16.117    527.810   1690.046    531.784    527.810    527.810
 72.770   1577.000   1543.086     33.914    527.889   1539.482    531.427    527.889    527.889
 72.870   1359.000   1381.651    -22.651    527.968   1378.539    531.039    527.968    527.968
 72.970   1175.147   1224.921    -49.774    528.046   1222.279    530.664    528.046    528.046
 73.070   1138.646   1083.064     55.582    528.123   1080.842    530.332    528.123    528.123
 73.170   1022.000    961.758     60.242    528.199    959.893    530.059    528.199    528.199
 73.270    896.000    862.989     33.011    528.275    861.412    529.850    528.275    528.275
 73.370    859.000    785.981     73.019    528.350    784.627    529.703    528.350    528.350
 73.470    775.436    728.173     47.263    528.424    726.983    529.614    528.424    528.424
 73.570    700.874    686.140     14.735    528.498    685.062    529.575    528.498    528.498
 73.670    669.897    656.324     13.573    528.571    655.313    529.581    528.571    528.571
 73.770    658.955    635.531     23.424    528.643    634.546    529.627    528.643    528.643
 73.870    647.000    621.180     25.820    528.714    620.183    529.711    528.714    528.714
 73.970    696.000    611.351     84.649    528.785    610.303    529.834    528.785    528.785
 74.070    618.000    604.715     13.285    528.854    603.576    529.997    528.854    528.854
 74.170    632.000    600.397     31.603    528.923    599.124    530.203    528.923    528.923
 74.270    613.000    597.835     15.165    528.991    596.385    530.452    528.991    528.991
 74.370    639.000    596.649     42.351    529.059    594.979    530.743    529.059    529.059
 74.470    616.000    596.542     19.458    529.125    594.616    531.070    529.125    529.125
 74.570    649.000    597.232     51.768    529.191    595.025    531.422    529.191    529.191
 74.670    676.000    598.401     77.599    529.255    595.904    531.782    529.255    529.255
 74.770    590.866    599.672     -8.806    529.319    596.901    532.126    529.319    529.319
 74.870    636.281    600.618     35.663    529.382    597.617    532.423    529.382    529.382
 74.970    659.000    600.819     58.181    529.444    597.661    532.644    529.444    529.444
 75.070    590.602    599.989     -9.387    529.505    596.769    532.768    529.505    529.505
 75.170    670.000    598.101     71.899    529.565    594.911    532.796    529.565    529.565
 75.270    655.000    595.411     59.589    529.624    592.324    532.749    529.624    529.624
 75.370    679.000    592.374     86.626    529.683    589.427    532.663    529.683    529.683
 75.470    616.000    589.524     26.476    529.740    586.711    532.580    529.740    529.740
 75.570    605.000    587.397     17.603    529.796    584.672    532.542    529.796    529.796
 75.670    639.000    586.513     52.487    529.851    583.790    532.589    529.851    529.851
 75.770    559.105    587.374    -28.269    529.906    584.527    532.760    529.906    529.906
 75.870    617.000    590.465     26.535    529.959    587.333    533.091    529.959    529.959
 75.970    568.030    596.230    -28.201    530.011    592.618    533.617    530.011    530.011
 76.070    650.000    605.033     44.967    530.062    600.719    534.362    530.062    530.062
 76.170    644.236    617.088     27.147    530.112    611.833    535.345    530.112    530.112
 76.270    689.000    632.385     56.615    530.161    625.952    536.564    530.161    530.161
 76.370    593.940    650.599    -56.659    530.209    642.774    537.996    530.209    530.209
 76.470    640.011    671.013    -31.001    530.256    661.635    539.586    530.256    530.256
 76.570    715.000    692.439     22.561    530.302    681.436    541.249    530.302    530.302
 76.670    695.000    713.176    -18.176    530.346    700.601    542.858    530.346    530.346
 76.770    691.876    731.028    -39.151    530.390    717.097    544.253    530.390    530.390
 76.870    746.000    743.544      2.456    530.432    728.655    545.252    530.432    530.432
 76.970    683.893    748.604    -64.710    530.473    733.311    545.699    530.473    530.473
 77.070    710.000    745.206    -35.206    530.513    730.137    545.521    530.513    530.513
 77.170    764.000    733.921     30.079    530.552    719.659    544.759    530.552    530.552
 77.270    684.186    716.612    -32.427    530.590    703.603    543.552    530.590    530.590
 77.370    740.000    695.676     44.324    530.626    684.189    542.076    530.626    530.626
 77.470    713.158    673.381     39.778    530.662    663.514    540.498    530.662    530.662
 77.570    651.000    651.533     -0.533    530.696    643.253    538.952    530.696    530.696
 77.670    622.000    631.410     -9.410    530.729    624.590    537.532    530.729    530.729
 77.770    636.557    613.794     22.763    530.760    608.246    536.295    530.760    530.760
 77.870    595.010    599.039     -4.029    530.791    594.551    535.269    530.791    530.791
 77.970    571.978    587.162    -15.185    530.820    583.521    534.454    530.820    530.820
 78.070    571.000    577.938     -6.938    530.848    574.946    533.834    530.848    530.848
 78.170    539.000    570.994    -31.994    530.874    568.482    533.382    530.874    530.874
 78.270    585.000    565.906     19.094    530.900    563.735    533.067    530.900    530.900
 78.370    512.668    562.258    -49.590    530.923    560.320    532.859    530.923    530.923
 78.470    586.558    559.681     26.877    530.946    557.895    532.730    530.946    530.946
 78.570    562.000    557.877      4.123    530.968    556.184    532.659    530.968    530.968
 78.670    568.000    556.626     11.374    530.988    554.981    532.630    530.988    530.988
 78.770    539.000    555.769    -16.769    531.006    554.141    532.632    531.006    531.006
 78.870    581.224    555.204     26.020    531.024    553.567    532.658    531.024    531.024
 78.970    545.000    554.869     -9.869    531.040    553.202    532.704    531.040    531.040
 79.070    520.000    554.731    -34.731    531.054    553.015    532.769    531.054    531.054
 79.170    549.000    554.782     -5.782    531.067    552.995    532.853    531.067    531.067
 79.270    561.000    555.026      5.974    531.079    553.146    532.958    531.079    531.079
 79.370    529.000    555.484    -26.484    531.090    553.483    533.089    531.090    531.090
 79.470    544.000    556.186    -12.186    531.099    554.030    533.253    531.099    531.099
 79.570    558.000    557.175      0.825    531.106    554.819    533.460    531.106    531.106
 79.670    546.000    558.509    -12.509    531.113    555.891    533.728    531.113    531.113
 79.770    557.000    560.264     -3.264    531.117    557.298    534.080    531.117    531.117
 79.870    566.287    562.544      3.743    531.121    559.107    534.554    531.121    531.121
 79.970    554.000    565.485    -11.485    531.123    561.405    535.198    531.123    531.123
 80.070    606.000    569.270     36.730    531.123    564.308    536.080    531.123    531.123
 80.170    615.980    574.129     41.851    531.122    567.963    537.283    531.122    531.122
 80.270    603.248    580.340     22.908    531.120    572.549    538.905    531.120    531.120
 80.370    520.000    588.224    -68.224    531.116    578.280    541.053    531.116    531.116
 80.470    554.000    598.125    -44.125    531.110    585.399    543.829    531.110    531.110
 80.570    619.000    610.389      8.611    531.103    594.170    547.316    531.103    531.103
 80.670    568.991    625.323    -56.332    531.095    604.860    551.554    531.095    531.095
 80.770    632.576    643.127    -10.551    531.084    617.689    556.520    531.084    531.084
 80.870    667.405    663.792      3.613    531.073    632.760    562.106    531.073    531.073
 80.970    653.000    687.001    -34.001    531.060    649.974    568.092    531.060    531.060
 81.070    715.355    712.038      3.317    531.045    668.951    574.142    531.045    531.045
 81.170    703.000    737.751    -34.751    531.029    688.994    579.802    531.029    531.029
 81.270    768.000    762.629      5.371    531.011    709.118    584.546    531.011    531.011
 81.370    775.000    785.016    -10.016    530.992    728.173    587.866    530.992    530.992
 81.470    783.000    803.431    -20.431    530.971    745.040    589.401    530.971    530.971
 81.570    767.187    816.806    -49.619    530.949    758.784    589.017    530.949    530.949
 81.670    884.000    824.556     59.444    530.925    768.727    586.809    530.925    530.925
 81.770    798.000    826.564    -28.564    530.899    774.479    583.045    530.899    530.899
 81.870    774.000    823.147    -49.147    530.872    775.964    578.121    530.872    530.872
 81.970    820.052    814.945      5.107    530.843    773.354    572.504    530.843    530.843
 82.070    767.619    802.723    -35.104    530.813    766.950    566.659    530.813    530.813
 82.170    802.447    787.268     15.179    530.780    757.139    560.984    530.780    530.780
 82.270    785.000    769.425     15.575    530.747    744.476    555.770    530.747    530.747
 82.370    725.630    750.133    -24.503    530.711    729.726    551.190    530.711    530.711
 82.470    716.000    730.318    -14.318    530.674    713.746    547.316    530.674    530.674
 82.570    719.000    710.714      8.286    530.636    697.279    544.137    530.636    530.636
 82.670    653.000    691.777    -38.777    530.596    680.848    541.585    530.596    530.596
 82.770    618.245    673.754    -55.509    530.554    664.798    539.565    530.554    530.554
 82.870    604.000    656.837    -52.837    530.510    649.423    537.974    530.510    530.510
 82.970    631.863    641.270     -9.406    530.465    635.059    536.719    530.465    530.465
 83.070    596.756    627.344    -30.588    530.418    622.074    535.724    530.418    530.418
 83.170    609.000    615.336     -6.336    530.369    610.803    534.931    530.369    530.369
 83.270    614.000    605.449      8.551    530.319    601.492    534.297    530.319    530.319
 83.370    555.190    597.793    -42.603    530.267    594.283    533.790    530.267    530.267
 83.470    628.702    592.387     36.315    530.213    589.217    533.388    530.213    530.213
 83.570    544.312    589.161    -44.849    530.158    586.241    533.076    530.158    530.158
 83.670    539.990    587.963    -47.973    530.101    585.213    532.841    530.101    530.101
 83.770    605.000    588.549     16.451    530.042    585.903    532.671    530.042    530.042
 83.870    568.000    590.593    -22.593    529.981    587.995    532.555    529.981    529.981
 83.970    635.432    593.679     41.752    529.919    591.088    532.480    529.919    529.919
 84.070    605.000    597.311      7.689    529.855    594.699    532.430    529.855    529.855
 84.170    642.264    600.916     41.348    529.789    598.274    532.391    529.789    529.789
 84.270    606.642    603.880      2.761    529.722    601.214    532.344    529.722    529.722
 84.370    554.661    605.616    -50.955    529.652    602.948    532.274    529.652    529.652
 84.470    609.666    605.681      3.985    529.582    603.047    532.170    529.582    529.582
 84.570    598.000    603.905     -5.905    529.509    601.344    532.026    529.509    529.509
 84.670    556.000    600.430    -44.430    529.434    597.979    531.845    529.434    529.434
 84.770    640.780    595.642     45.139    529.358    593.325    531.639    529.358    529.358
 84.870    596.000    590.031      5.969    529.280    587.859    531.420    529.280    529.280
 84.970    570.820    584.078    -13.258    529.200    582.049    531.203    529.200    529.200
 85.070    585.000    578.192      6.808    529.119    576.287    531.001    529.119    529.119
 85.170    537.232    572.687    -35.454    529.036    570.877    530.827    529.036    529.036
 85.270    556.000    567.784    -11.784    528.950    566.025    530.694    528.950    528.950
 85.370    563.469    563.618     -0.148    528.864    561.855    530.613    528.864    528.864
 85.470    597.000    560.248     36.752    528.775    558.415    530.596    528.775    528.775
 85.570    571.000    557.677     13.323    528.685    555.696    530.656    528.685    528.685
 85.670    544.000    555.867    -11.867    528.592    553.649    530.801    528.592    528.592
 85.770    588.000    554.758     33.242    528.498    552.205    531.043    528.498    528.498
 85.870    542.000    554.283    -12.283    528.403    551.292    531.386    528.403    528.403
 85.970    552.000    554.379     -2.379    528.305    550.844    531.831    528.305    528.305
 86.070    539.000    554.980    -15.980    528.206    550.803    532.372    528.206    528.206
 86.170    552.000    556.060     -4.060    528.105    551.159    532.994    528.105    528.105
 86.270    518.000    557.675    -39.675    528.002    551.989    533.675    528.002    528.002
 86.370    545.782    559.800    -14.017    527.897    553.305    534.376    527.897    527.897
 86.470    594.377    562.458     31.920    527.790    555.180    535.050    527.790    527.790
 86.570    536.000    565.692    -29.692    527.682    557.717    535.635    527.682    527.682
 86.670    547.000    569.554    -22.554    527.572    561.033    536.067    527.572    527.572
 86.770    566.562    574.106     -7.544    527.460    565.251    536.284    527.460    527.460
 86.870    594.000    579.416     14.584    527.346    570.481    536.242    527.346    527.346
 86.970    598.000    585.554     12.446    527.230    576.806    535.933    527.230    527.230
 87.070    614.000    592.579     21.421    527.113    584.255    535.383    527.113    527.113
 87.170    633.000    600.499     32.501    526.994    592.786    534.643    526.994    526.994
 87.270    663.000    609.237     53.763    526.873    602.258    533.778    526.873    526.873
 87.370    616.000    618.598     -2.598    526.750    612.413    532.849    526.750    526.750
 87.470    655.000    628.246     26.754    526.625    622.865    531.910    526.625    526.625
 87.570    634.000    637.698     -3.698    526.499    633.089    531.001    526.499    526.499
 87.670    624.490    646.330    -21.840    526.370    642.433    530.154    526.370    526.370
 87.770    628.000    653.429    -25.429    526.240    650.164    529.386    526.240    526.240
 87.870    702.378    658.291     44.087    526.108    655.571    528.707    526.108    526.108
 87.970    652.482    660.391     -7.909    525.975    658.127    528.119    525.975    525.975
 88.070    663.000    659.538      3.462    525.839    657.646    527.617    525.839    525.839
 88.170    673.000    655.938     17.062    525.702    654.343    527.192    525.702    525.702
 88.270    618.000    650.133    -32.133    525.563    648.768    526.834    525.563    525.563
 88.370    656.000    642.848     13.152    525.422    641.656    526.533    525.422    525.422
 88.470    655.000    634.855     20.145    525.279    633.787    526.279    525.279    525.279
 88.570    604.000    626.884    -22.884    525.134    625.901    526.063    525.134    525.134
 88.670    621.447    619.577      1.870    524.988    618.645    525.879    524.988    524.988
 88.770    668.939    613.459     55.479    524.840    612.547    525.723    524.840    524.840
 88.870    643.000    608.913     34.087    524.690    607.996    525.589    524.690    524.690
 88.970    619.000    606.171     12.829    524.538    605.226    525.476    524.538    524.538
 89.070    601.000    605.302     -4.302    524.385    604.310    525.379    524.385    524.385
 89.170    586.000    606.221    -20.221    524.229    605.166    525.296    524.229    524.229
 89.270    584.000    608.693    -24.693    524.072    607.563    525.223    524.072    524.072
 89.370    628.000    612.346     15.654    523.913    611.134    525.155    523.913    523.913
 89.470    570.000    616.688    -46.688    523.753    615.393    525.085    523.753    523.753
 89.570    594.611    621.128    -26.516    523.590    619.755    525.007    523.590    523.590
 89.670    672.000    625.009     46.991    523.426    623.572    524.913    523.426    523.426
 89.770    606.505    627.683    -21.177    523.260    626.204    524.794    523.260    523.260
 89.870    579.303    628.609    -49.307    523.092    627.116    524.644    523.092    523.092
 89.970    592.000    627.479    -35.479    522.922    626.002    524.460    522.922    522.922
 90.070    595.000    624.281    -29.281    522.751    622.851    524.242    522.751    522.751
 90.170    616.000    619.283     -3.283    522.578    617.926    523.994    522.578    522.578
 90.270    626.221    612.937     13.284    522.403    611.671    523.724    522.403    522.403
 90.370    558.000    605.758    -47.758    522.226    604.595    523.440    522.226    522.226
 90.470    598.228    598.237     -0.008    522.048    597.181    523.148    522.048    522.048
 90.570    633.074    590.790     42.283    521.868    589.841    522.856    521.868    521.868
 90.670    546.000    583.749    -37.749    521.686    582.900    522.567    521.686    521.686
 90.770    524.000    577.350    -53.350    521.502    576.592    522.286    521.502    521.502
 90.870    604.000    571.745     32.255    521.317    571.068    522.015    521.317    521.317
 90.970    531.000    567.012    -36.012    521.130    566.403    521.755    521.130    521.130
 91.070    579.000    563.163     15.837    520.941    562.610    521.506    520.941    520.941
 91.170    582.606    560.166     22.440    520.750    559.657    521.268    520.750    520.750
 91.270    589.802    557.958     31.843    520.558    557.483    521.039    520.558    520.558
 91.370    516.558    556.465    -39.907    520.364    556.014    520.818    520.364    520.364
 91.470    565.357    555.613      9.744    520.168    555.177    520.605    520.168    520.168
 91.570    538.000    555.345    -17.345    519.971    554.916    520.399    519.971    519.971
 91.670    561.000    555.626      5.374    519.772    555.198    520.198    519.772    519.772
 91.770    547.920    556.455     -8.535    519.571    556.019    520.004    519.571    519.571
 91.870    533.000    557.863    -24.863    519.369    557.412    519.815    519.369    519.369
 91.970    564.000    559.915      4.085    519.165    559.441    519.632    519.165    519.165
 92.070    563.947    562.714      1.232    518.959    562.207    519.457    518.959    518.959
 92.170    594.000    566.389     27.611    518.752    565.838    519.292    518.752    518.752
 92.270    562.000    571.093     -9.093    518.543    570.484    519.137    518.543    518.543
 92.370    573.000    576.989     -3.989    518.332    576.310    518.994    518.332    518.332
 92.470    567.000    584.244    -17.244    518.120    583.476    518.864    518.120    518.120
 92.570    603.951    593.003     10.948    517.906    592.131    518.750    517.906    517.906
 92.670    598.162    603.381     -5.218    517.691    602.389    518.650    517.691    517.691
 92.770    590.001    615.441    -25.440    517.473    614.311    518.564    517.473    517.473
 92.870    584.000    629.179    -45.179    517.255    627.896    518.492    517.255    517.255
 92.970    631.576    644.503    -12.927    517.034    643.056    518.429    517.034    517.034
 93.070    620.000    661.225    -41.225    516.812    659.606    518.372    516.812    516.812
 93.170    674.000    679.045     -5.045    516.589    677.251    518.317    516.589    516.589
 93.270    677.000    697.547    -20.547    516.364    695.582    518.256    516.364    516.364
 93.370    715.000    716.216     -1.216    516.137    714.090    518.184    516.137    516.137
 93.470    702.000    734.484    -32.484    515.909    732.216    518.095    515.909    515.909
 93.570    718.826    751.828    -33.002    515.680    749.437    517.985    515.680    515.680
 93.670    720.000    767.883    -47.883    515.448    765.391    517.853    515.448    515.448
 93.770    741.000    782.543    -41.543    515.216    779.965    517.705    515.216    515.216
 93.870    800.000    795.965      4.035    514.981    793.307    517.552    514.981    514.981
 93.970    788.000    808.484    -20.484    514.746    805.735    517.408    514.746    514.746
 94.070    832.000    820.473     11.527    514.508    817.606    517.290    514.508    514.508
 94.170    809.000    832.221    -23.221    514.270    829.194    517.213    514.270    514.270
 94.270    897.746    843.893     53.853    514.030    840.648    517.192    514.030    514.030
 94.370    847.000    855.550     -8.550    513.788    852.021    517.236    513.788    513.788
 94.470    912.000    867.219     44.781    513.545    863.337    517.349    513.545    513.545
 94.570    910.000    878.937     31.063    513.300    874.633    517.529    513.300    513.300
 94.670    911.000    890.707     20.293    513.055    885.922    517.767    513.055    513.055
 94.770    916.000    902.457     13.543    512.807    897.149    518.046    512.807    512.807
 94.870    916.000    913.868      2.132    512.559    908.017    518.344    512.559    512.559
 94.970   1021.000    924.291     96.709    512.308    917.910    518.629    512.308    512.308
 95.070    944.157    932.760     11.397    512.057    925.895    518.866    512.057    512.057
 95.170    963.000    938.068     24.932    511.804    930.808    519.015    511.804    511.804
 95.270    985.000    938.967     46.033    511.550    931.437    519.039    511.550    511.550
 95.370    929.000    934.461     -5.461    511.295    926.815    518.908    511.295    511.295
 95.470    956.000    924.111     31.889    511.038    916.517    518.607    511.038    511.038
 95.570    977.142    908.214     68.928    510.780    900.836    518.142    510.780    510.780
 95.670    884.000    887.774     -3.774    510.520    880.753    517.533    510.520    510.520
 95.770    863.000    864.282     -1.282    510.259    857.725    516.813    510.259    510.259
 95.870    831.128    839.456     -8.327    509.998    833.433    516.021    509.998    509.998
 95.970    807.000    815.028     -8.028    509.734    809.568    515.196    509.734    509.734
 96.070    779.000    792.625    -13.625    509.470    787.727    514.370    509.470    509.470
 96.170    777.000    773.723      3.277    509.204    769.354    513.574    509.204    509.204
 96.270    806.814    759.626     47.188    508.937    755.731    512.830    508.937    508.937
 96.370    718.000    751.469    -33.469    508.669    747.976    512.155    508.669    508.669
 96.470    741.000    750.217     -9.217    508.400    747.043    511.561    508.400    508.400
 96.570    729.000    756.662    -27.662    508.130    753.716    511.054    508.130    508.130
 96.670    802.000    771.415     30.585    507.858    768.607    510.637    507.858    507.858
 96.770    808.000    794.894     13.106    507.585    792.133    510.308    507.585    507.585
 96.870    858.000    827.293     30.707    507.312    824.492    510.063    507.312    507.312
 96.970    903.000    868.546     34.454    507.037    865.626    509.897    507.037    507.037
 97.070    979.998    918.281     61.716    506.761    915.169    509.802    506.761    506.761
 97.170   1031.023    975.762     55.261    506.484    972.395    509.769    506.484    506.484
 97.270   1049.000   1039.831      9.169    506.205   1036.159    509.786    506.205    506.205
 97.370   1159.679   1108.861     50.818    505.926   1104.847    509.841    505.926    505.926
 97.470   1127.000   1180.708    -53.708    505.646   1176.331    509.917    505.646    505.646
 97.570   1278.171   1252.687     25.484    505.365   1247.947    509.995    505.365    505.365
 97.670   1334.000   1321.585     12.415    505.083   1316.502    510.055    505.083    505.083
 97.770   1386.000   1383.756      2.244    504.800   1378.376    510.073    504.800    504.800
 97.870   1433.000   1435.358     -2.358    504.516   1429.750    510.025    504.516    504.516
 97.970   1546.000   1472.790     73.210    504.231   1467.046    509.889    504.231    504.231
 98.070   1511.000   1493.279     17.721    503.945   1487.507    509.648    503.945    503.945
 98.170   1429.000   1495.442    -66.442    503.658   1489.756    509.295    503.658    503.658
 98.270   1476.000   1479.585     -3.585    503.371   1474.093    508.833    503.371    503.371
 98.370   1368.141   1447.579    -79.438    503.082   1442.375    508.275    503.082    503.082
 98.470   1410.000   1402.423      7.577    502.793   1397.580    507.642    502.793    502.793
 98.570   1356.000   1347.704      8.296    502.503   1343.272    506.955    502.503    502.503
 98.670   1307.594   1287.146     20.448    502.212   1283.151    506.236    502.212    502.212
 98.770   1205.000   1224.306    -19.306    501.920   1220.755    505.506    501.920    501.920
 98.870   1237.351   1162.408     74.943    501.627   1159.293    504.781    501.627    501.627
 98.970   1074.740   1104.263    -29.522    501.334   1101.561    504.074    501.334    501.334
 99.070   1020.000   1052.251    -32.251    501.040   1049.930    503.396    501.040    501.040
 99.170   1007.865   1008.323     -0.458    500.746   1006.346    502.753    500.746    500.746
 99.270    947.000    974.032    -27.032    500.450    972.357    502.149    500.450    500.450
 99.370    960.000    950.731      9.269    500.155    949.317    501.585    500.155    500.155
 99.470    907.000    939.286    -32.286    499.858    938.093    501.061    499.858    499.858
 99.570   1002.000    940.333     61.667    499.561    939.321    500.574    499.561    499.561
 99.670    945.000    954.215     -9.215    499.263    953.352    500.122    499.263    499.263
 99.770   1019.447    981.003     38.444    498.965    980.258    499.699    498.965    498.965
 99.870    974.000   1020.486    -46.486    498.666   1019.835    499.302    498.666    498.666
 99.970    998.838   1072.158    -73.320    498.367   1071.579    498.926    498.367    498.367
100.070   1088.073   1135.181    -47.107    498.067   1134.659    498.568    498.067    498.067
100.170   1225.797   1208.350     17.446    497.766   1207.873    498.224    497.766    497.766
100.270   1275.000   1290.048    -15.048    497.466   1289.606    497.892    497.466    497.466
100.370   1471.000   1378.193     92.807    497.164   1377.779    497.569    497.164    497.164
100.470   1470.000   1470.223     -0.223    496.863   1469.832    497.254    496.863    496.863
100.570   1512.234   1563.120    -50.886    496.561   1562.748    496.946    496.561    496.561
100.670   1556.742   1653.537    -96.795    496.258   1653.183    496.642    496.258    496.258
100.770   1691.568   1738.053    -46.485    495.956   1737.714    496.344    495.956    495.956
100.870   1902.000   1813.519     88.481    495.653   1813.193    496.049    495.653    495.653
100.970   1934.120   1877.385     56.734    495.350   1877.069    495.758    495.350    495.350
101.070   1879.332   1927.919    -48.587    495.046   1927.609    495.471    495.046    495.046
101.170   2017.774   1964.077     53.697    494.742   1963.767    495.187    494.742    494.742
101.270   1952.340   1985.304    -32.964    494.438   1984.990    494.906    494.438    494.438
101.370   1950.553   1991.306    -40.753    494.134   1990.981    494.627    494.134    494.134
101.470   1923.153   1981.985    -58.832    493.830   1981.646    494.350    493.830    493.830
101.570   2005.000   1957.609     47.391    493.526   1957.250    494.075    493.526    493.526
101.670   1999.000   1919.085     79.915    493.221   1918.702    493.799    493.221    493.221
101.770   1810.882   1868.188    -57.306    492.916   1867.778    493.524    492.916    492.916
101.870   1793.857   1807.556    -13.700    492.612   1807.115    493.248    492.612    492.612
101.970   1715.000   1740.438    -25.438    492.307   1739.963    492.971    492.307    492.307
102.070   1656.584   1670.285    -13.701    492.003   1669.776    492.692    492.003    492.003
102.170   1562.952   1600.340    -37.388    491.698   1599.798    492.410    491.698    491.698
102.270   1507.000   1533.336    -26.336    491.393   1532.763    492.124    491.393    491.393
102.370   1441.000   1471.333    -30.333    491.089   1470.734    491.832    491.089    491.089
102.470   1392.000   1415.660    -23.660    490.785   1415.041    491.536    490.785    490.785
102.570   1363.000   1366.932     -3.932    490.480   1366.300    491.233    490.480    490.480
102.670   1359.078   1325.089     33.989    490.176   1324.452    490.923    490.176    490.176
102.770   1227.000   1289.466    -62.466    489.873   1288.832    490.608    489.873    489.873
102.870   1241.000   1258.872    -17.872    489.569   1258.246    490.288    489.569    489.569
102.970   1213.394   1231.710    -18.317    489.266   1231.102    489.963    489.266    489.266
103.070   1160.771   1206.158    -45.386    488.963   1205.572    489.634    488.963    488.963
103.170   1194.090   1180.393     13.696    488.660   1179.835    489.301    488.660    488.660
103.270   1132.042   1152.866    -20.824    488.358   1152.340    488.965    488.358    488.358
103.370   1033.000   1122.524    -89.524    488.056   1122.034    488.627    488.056    488.056
103.470   1019.101   1088.928    -69.827    487.754   1088.476    488.288    487.754    487.754
103.570   1113.470   1052.226     61.244    487.453   1051.812    487.948    487.453    487.453
103.670   1035.732   1013.068     22.664    487.153   1012.691    487.608    487.153    487.153
103.770    962.000    972.294    -10.294    486.853    971.953    487.270    486.853    486.853
103.870    933.811    930.854      2.957    486.553    930.545    486.934    486.553    486.553
103.970    938.043    889.671     48.371    486.254    889.393    486.600    486.254    486.254
104.070    867.000    849.582     17.418    485.956    849.331    486.270    485.956    485.956
104.170    796.000    811.299    -15.299    485.658    811.071    485.943    485.658    485.658
104.270    788.000    775.394     12.606    485.361    775.187    485.620    485.361    485.361
104.370    708.779    742.296    -33.517    485.065    742.106    485.300    485.065    485.065
104.470    758.936    712.304     46.632    484.769    712.129    484.985    484.769    484.769
104.570    708.000    685.566     22.434    484.474    685.403    484.673    484.474    484.474
104.670    711.000    662.110     48.890    484.180    661.956    484.364    484.180    484.180
104.770    671.630    641.853     29.777    483.887    641.706    484.059    483.887    483.887
104.870    581.236    624.632    -43.395    483.595    624.490    483.757    483.595    483.595
104.970    635.837    610.218     25.619    483.303    610.080    483.458    483.303    483.303
105.070    615.215    598.347     16.867    483.013    598.211    483.162    483.013    483.013
105.170    602.809    588.741     14.068    482.723    588.606    482.869    482.723    482.723
105.270    596.583    581.125     15.459    482.435    580.988    482.578    482.435    482.435
105.370    615.000    575.242     39.758    482.148    575.103    482.291    482.148    482.148
105.470    608.000    570.867     37.133    481.861    570.725    482.006    481.861    481.861
105.570    591.673    567.813     23.860    481.576    567.665    481.724    481.576    481.576
105.670    584.000    565.932     18.068    481.292    565.777    481.446    481.292    481.292
105.770    546.000    565.117    -19.117    481.009    564.952    481.170    481.009    481.009
105.870    591.000    565.297     25.703    480.728    565.120    480.899    480.728    480.728
105.970    598.017    566.438     31.580    480.447    566.246    480.631    480.447    480.447
106.070    565.000    568.531     -3.531    480.168    568.320    480.368    480.168    480.168
106.170    542.000    571.590    -29.590    479.891    571.358    480.109    479.891    479.891
106.270    580.945    575.643      5.302    479.614    575.385    479.856    479.614    479.614
106.370    621.000    580.726     40.274    479.339    580.438    479.609    479.339    479.339
106.470    620.000    586.870     33.130    479.066    586.548    479.367    479.066    479.066
106.570    603.000    594.096      8.904    478.794    593.735    479.131    478.794    478.794
106.670    558.749    602.402    -43.653    478.524    601.997    478.901    478.524    478.524
106.770    649.000    611.753     37.247    478.255    611.300    478.677    478.255    478.255
106.870    670.434    622.075     48.359    477.988    621.570    478.458    477.988    477.988
106.970    654.000    633.247     20.753    477.722    632.687    478.244    477.722    477.722
107.070    620.000    645.098    -25.098    477.458    644.481    478.034    477.458    477.458
107.170    697.715    657.401     40.314    477.196    656.726    477.827    477.196    477.196
107.270    670.000    669.857      0.143    476.936    669.125    477.621    476.936    476.936
107.370    634.349    682.186    -47.838    476.677    681.400    477.415    476.677    476.677
107.470    705.000    694.004     10.996    476.421    693.168    477.206    476.421    476.421
107.570    760.000    704.912     55.088    476.166    704.033    476.993    476.166    476.166
107.670    660.467    714.519    -54.051    475.913    713.606    476.774    475.913    475.913
107.770    697.000    722.481    -25.481    475.663    721.546    476.547    475.663    475.663
107.870    676.491    728.552    -52.060    475.414    727.607    476.311    475.414    475.414
107.970    762.258    732.626     29.632    475.167    731.684    476.064    475.167    475.167
108.070    756.674    734.769     21.906    474.923    733.843    475.807    474.923    474.923
108.170    709.000    735.207    -26.207    474.680    734.309    475.541    474.680    474.680
108.270    736.000    734.295      1.705    474.440    733.434    475.267    474.440    474.440
108.370    787.984    732.453     55.531    474.202    731.639    474.987    474.202    474.202
108.470    742.000    730.117     11.883    473.966    729.355    474.703    473.966    473.966
108.570    765.375    727.685     37.690    473.733    726.979    474.418    473.733    473.733
108.670    724.000    725.487     -1.487    473.502    724.838    474.134    473.502    473.502
108.770    700.244    723.766    -23.522    473.273    723.175    473.851    473.273    473.273
108.870    729.962    722.666      7.295    473.047    722.132    473.571    473.047    473.047
108.970    719.000    722.232     -3.232    472.824    721.752    473.297    472.824    472.824
109.070    723.372    722.405      0.967    472.603    721.977    473.028    472.603    472.603
109.170    751.573    723.032     28.540    472.384    722.652    472.765    472.384    472.384
109.270    684.000    723.871    -39.871    472.169    723.534    472.508    472.169    472.169
109.370    692.638    724.608    -31.970    471.956    724.310    472.259    471.956    471.956
109.470    765.278    724.884     40.394    471.745    724.622    472.016    471.745    471.745
109.570    712.000    724.332    -12.332    471.538    724.101    471.780    471.538    471.538
109.670    697.411    722.618    -25.207    471.333    722.414    471.550    471.333    471.333
109.770    687.884    719.488    -31.604    471.131    719.307    471.327    471.131    471.131
109.870    657.108    714.805    -57.697    470.932    714.644    471.110    470.932    470.932
109.970    710.000    708.563      1.437    470.737    708.419    470.898    470.737    470.737
110.070    666.000    700.880    -34.880    470.544    700.750    470.692    470.544    470.544
110.170    723.000    691.970     31.030    470.354    691.852    470.491    470.354    470.354
110.270    686.000    682.110      3.890    470.167    682.001    470.294    470.167    470.167
110.370    648.000    671.599    -23.599    469.984    671.497    470.103    469.984    469.984
110.470    627.330    660.741    -33.411    469.804    660.646    469.915    469.804    469.804
110.570    636.000    649.819    -13.819    469.627    649.729    469.732    469.627    469.627
110.670    676.283    639.086     37.196    469.453    639.000    469.554    469.453    469.453
110.770    598.000    628.763    -30.763    469.283    628.679    469.379    469.283    469.283
110.870    624.000    619.033      4.967    469.116    618.951    469.208    469.116    469.116
110.970    643.000    610.043     32.957    468.953    609.963    469.042    468.953    468.953
111.070    653.522    601.903     51.619    468.793    601.824    468.879    468.793    468.793
111.170    603.000    594.686      8.314    468.637    594.608    468.720    468.637    468.637
111.270    580.173    588.435     -8.262    468.485    588.356    468.566    468.485    468.485
111.370    610.000    583.159     26.841    468.336    583.081    468.415    468.336    468.336
111.470    571.612    578.845     -7.233    468.191    578.766    468.269    468.191    468.191
111.570    582.000    575.455      6.545    468.050    575.376    468.126    468.050    468.050
111.670    599.000    572.938     26.062    467.912    572.858    467.988    467.912    467.912
111.770    609.000    571.228     37.772    467.779    571.148    467.854    467.779    467.779
111.870    556.866    570.256    -13.390    467.649    570.175    467.724    467.649    467.649
111.970    582.000    569.945     12.055    467.524    569.863    467.598    467.524    467.524
112.070    565.748    570.219     -4.470    467.402    570.137    467.476    467.402    467.402
112.170    564.879    571.008     -6.129    467.285    570.926    467.358    467.285    467.285
112.270    567.000    572.254     -5.254    467.172    572.171    467.244    467.172    467.172
112.370    599.000    573.894     25.106    467.063    573.810    467.136    467.063    467.063
112.470    550.987    575.881    -24.895    466.958    575.797    467.031    466.958    466.958
112.570    530.000    578.179    -48.179    466.858    578.094    466.931    466.858    466.858
112.670    567.000    580.764    -13.764    466.762    580.677    466.836    466.762    466.762
112.770    589.000    583.618      5.382    466.670    583.531    466.745    466.670    466.670
112.870    574.000    586.755    -12.755    466.584    586.667    466.659    466.584    466.584
112.970    554.000    590.197    -36.197    466.501    590.107    466.577    466.501    466.501
113.070    621.634    593.969     27.664    466.424    593.878    466.500    466.424    466.424
113.170    575.000    598.117    -23.117    466.351    598.025    466.429    466.351    466.351
113.270    587.000    602.703    -15.703    466.282    602.608    466.362    466.282    466.282
113.370    602.000    607.805     -5.805    466.219    607.708    466.300    466.219    466.219
113.470    611.000    613.525     -2.525    466.160    613.425    466.244    466.160    466.160
113.570    600.000    619.993    -19.993    466.107    619.890    466.193    466.107    466.107
113.670    645.288    627.374     17.914    466.058    627.266    466.148    466.058    466.058
113.770    642.430    635.879      6.551    466.014    635.765    466.108    466.014    466.014
113.870    620.000    645.774    -25.774    465.976    645.654    466.074    465.976    465.976
113.970    617.214    657.399    -40.184    465.943    657.271    466.046    465.943    465.943
114.070    662.189    671.177     -8.988    465.915    671.039    466.024    465.915    465.915
114.170    722.147    687.637     34.511    465.892    687.487    466.009    465.892    465.892
114.270    669.190    707.430    -38.240    465.874    707.266    466.000    465.874    465.874
114.370    727.513    731.350     -3.837    465.862    731.170    465.998    465.862    465.862
114.470    794.000    760.351     33.649    465.856    760.150    466.003    465.856    465.856
114.570    790.000    795.561     -5.561    465.855    795.338    466.015    465.855    465.855
114.670    834.000    838.301     -4.301    465.859    838.050    466.035    465.859    465.859
114.770    890.378    890.080      0.298    465.870    889.797    466.062    465.870    465.870
114.870    981.000    952.601     28.399    465.886    952.281    466.097    465.886    465.886
114.970    950.000   1027.737    -77.737    465.907   1027.376    466.139    465.907    465.907
115.070   1170.000   1117.508     52.492    465.935   1117.100    466.189    465.935    465.935
115.170   1213.000   1224.032    -11.032    465.968   1223.570    466.248    465.968    465.968
115.270   1336.000   1349.458    -13.458    466.008   1348.938    466.314    466.008    466.008
115.370   1418.769   1495.892    -77.123    466.054   1495.308    466.388    466.054    466.054
115.470   1737.000   1665.291     71.709    466.105   1664.636    466.470    466.105    466.105
115.570   1880.531   1859.347     21.184    466.163   1858.618    466.561    466.163    466.163
115.670   2229.000   2079.368    149.632    466.227   2078.560    466.659    466.227    466.227
115.770   2283.822   2326.135    -42.313    466.298   2325.245    466.765    466.298    466.298
115.870   2694.000   2599.775     94.225    466.375   2598.800    466.878    466.375    466.375
115.970   3067.000   2899.628    167.372    466.458   2898.569    466.999    466.458    466.458
116.070   3282.000   3224.139     57.861    466.548   3222.996    467.127    466.548    466.548
116.170   3459.357   3570.758   -111.401    466.644   3569.535    467.262    466.644    466.644
116.270   4030.514   3935.874     94.640    466.747   3934.576    467.404    466.747    466.747
116.370   4304.810   4314.771     -9.961    466.857   4313.404    467.552    466.857    466.857
116.470   4749.886   4701.611     48.275    466.973   4700.186    467.708    466.973    466.973
116.570   5121.000   5089.458     31.542    467.097   5087.984    467.870    467.097    467.097
116.670   5415.000   5470.325    -55.325    467.227   5468.816    468.038    467.227    467.227
116.770   5792.000   5835.288    -43.288    467.365   5833.757    468.214    467.365    467.365
116.870   6114.000   6174.666    -60.666    467.509   6173.129    468.396    467.509    467.509
116.970   6613.000   6478.330    134.670    467.661   6476.804    468.586    467.661    467.661
117.070   6807.349   6736.165     71.184    467.819   6734.667    468.782    467.819    467.819
117.170   6927.000   6938.704    -11.704    467.985   6937.250    468.984    467.985    467.985
117.270   7055.000   7077.914    -22.914    468.159   7076.518    469.192    468.159    468.159
117.370   7293.651   7148.004    145.646    468.340   7146.679    469.405    468.340    468.340
117.470   7074.000   7146.109    -72.109    468.528   7144.861    469.623    468.528    468.528
117.570   7135.000   7072.643     62.357    468.724   7071.474    469.846    468.724    468.724
117.670   6975.000   6931.242     43.758    468.927   6930.152    470.072    468.927    468.927
117.770   6598.000   6728.299   -130.299    469.139   6727.282    470.301    469.139    469.139
117.870   6417.000   6472.228    -55.228    469.358   6471.279    470.532    469.358    469.358
117.970   5956.000   6172.646   -216.646    469.585   6171.755    470.766    469.585    469.585
118.070   5685.000   5839.616   -154.616    469.819   5838.776    471.000    469.819    469.819
118.170   5208.000   5483.050   -275.050    470.062   5482.253    471.235    470.062    470.062
118.270   5029.000   5112.300    -83.300    470.313   5111.539    471.471    470.313    470.313
118.370   4801.000   4735.993     65.007    470.572   4735.263    471.708    470.572    470.572
118.470   4308.886   4361.642    -52.756    470.840   4360.939    471.946    470.840    470.840
118.570   4055.000   3995.723     59.277    471.115   3995.045    472.186    471.115    471.115
118.670   3683.000   3643.606     39.394    471.399   3642.949    472.429    471.399    471.399
118.770   3278.000   3309.545    -31.545    471.692   3308.908    472.676    471.692    471.692
118.870   2994.783   2996.718     -1.935    471.993   2996.099    472.928    471.993    471.993
118.970   2627.444   2707.291    -79.846    472.303   2706.689    473.187    472.303    472.303
119.070   2419.000   2442.507    -23.507    472.621   2441.924    473.454    472.621    472.621
119.170   2146.000   2202.804    -56.804    472.948   2202.237    473.730    472.948    472.948
119.270   1994.559   1987.927      6.631    473.284   1987.377    474.016    473.284    473.284
119.370   1831.000   1797.066     33.934    473.629   1796.533    474.313    473.629    473.629
119.470   1580.000   1628.970    -48.970    473.983   1628.454    474.622    473.983    473.983
119.570   1556.593   1482.073     74.520    474.347   1481.573    474.943    474.347    474.347
119.670   1435.833   1354.597     81.236    474.719   1354.113    475.277    474.719    474.719
119.770   1279.507   1244.652     34.854    475.100   1244.183    475.624    475.100    475.100
119.870   1100.777   1150.321    -49.544    475.491   1149.865    475.986    475.491    475.491
119.970   1130.000   1069.724     60.276    475.891   1069.280    476.361    475.891    475.891
120.070   1042.000   1001.077     40.923    476.301   1000.643    476.751    476.301    476.301
120.170    929.000    942.729    -13.729    476.721    942.302    477.155    476.721    476.721
120.270    874.000    893.186    -19.186    477.150    892.764    477.574    477.150    477.150
120.370    864.957    851.122     13.835    477.588    850.702    478.007    477.588    477.588
120.470    824.000    815.384      8.616    478.037    814.963    478.454    478.037    478.037
120.570    763.000    784.984    -21.984    478.495    784.558    478.916    478.495    478.495
120.670    787.427    759.085     28.342    478.964    758.651    479.391    478.964    478.964
120.770    767.368    736.989     30.379    479.443    736.545    479.881    479.443    479.443
120.870    703.000    718.120    -15.120    479.931    717.661    480.385    479.931    479.931
120.970    706.000    702.005      3.995    480.430    701.528    480.903    480.430    480.430
121.070    617.000    688.259    -71.259    480.940    687.761    481.434    480.940    480.940
121.170    626.000    676.570    -50.570    481.459    676.048    481.980    481.459    481.459
121.270    632.000    666.684    -34.684    481.990    666.135    482.539    481.990    481.990
121.370    627.000    658.397    -31.397    482.530    657.816    483.112    482.530    482.530
121.470    618.000    651.539    -33.539    483.082    650.924    483.700    483.082    483.082
121.570    627.000    645.972    -18.972    483.644    645.318    484.302    483.644    483.644
121.670    563.000    641.579    -78.579    484.217    640.884    484.918    484.217    484.217
121.770    667.586    638.261     29.326    484.801    637.520    485.549    484.801    484.801
121.870    642.000    635.929      6.071    485.397    635.139    486.195    485.397    485.397
121.970    688.557    634.505     54.052    486.003    633.661    486.857    486.003    486.003
122.070    683.211    633.914     49.298    486.620    633.012    487.534    486.620    486.620
122.170    612.000    634.083    -22.083    487.249    633.118    488.227    487.249    487.249
122.270    694.304    634.941     59.363    487.889    633.909    488.937    487.889    487.889
122.370    595.289    636.413    -41.124    488.541    635.309    489.663    488.541    488.541
122.470    646.000    638.422      7.578    489.204    637.241    490.405    489.204    489.204
122.570    608.000    640.885    -32.885    489.879    639.624    491.162    489.879    489.879
122.670    659.000    643.716     15.284    490.565    642.371    491.935    490.565    490.565
122.770    618.000    646.819    -28.819    491.263    645.388    492.723    491.263    491.263
122.870    646.000    650.095     -4.095    491.974    648.575    493.525    491.974    491.974
122.970    662.077    653.437      8.640    492.696    651.827    494.340    492.696    492.696
123.070    669.000    656.733     12.267    493.430    655.034    495.166    493.430    493.430
123.170    681.281    659.866     21.416    494.177    658.079    496.003    494.177    494.177
123.270    648.033    662.717    -14.684    494.936    660.847    496.849    494.936    494.936
123.370    656.000    665.173     -9.173    495.707    663.223    497.701    495.707    495.707
123.470    661.000    667.122     -6.122    496.491    665.101    498.560    496.491    496.491
123.570    698.000    668.472     29.528    497.288    666.386    499.423    497.288    497.288
123.670    697.712    669.145     28.567    498.097    667.005    500.288    498.097    498.097
123.770    676.380    669.090      7.290    498.918    666.906    501.155    498.918    498.918
123.870    667.000    668.284     -1.284    499.753    666.068    502.023    499.753    499.753
123.970    686.000    666.731     19.269    500.601    664.495    502.891    500.601    500.601
124.070    619.616    664.462    -44.846    501.462    662.218    503.759    501.462    501.462
124.170    719.000    661.529     57.471    502.336    659.290    504.627    502.336    502.336
124.270    642.000    658.001    -16.001    503.223    655.781    505.496    503.223    503.223
124.370    656.780    653.958      2.822    504.123    651.768    506.364    504.123    504.123
124.470    608.046    649.485    -41.439    505.037    647.337    507.234    505.037    505.037
124.570    633.000    644.669    -11.669    505.965    642.574    508.106    505.965    505.965
124.670    650.000    639.597     10.403    506.906    637.566    508.981    506.906    506.906
124.770    624.000    634.353    -10.353    507.861    632.395    509.861    507.861    507.861
124.870    665.000    629.018     35.982    508.829    627.141    510.746    508.829    508.829
124.970    621.000    623.667     -2.667    509.812    621.878    511.638    509.812    509.812
