neutron_powder_diffraction_0087
R_wp: 4.441
Temperature (K): 826.932
Counts: 83547.00
Wavelength (Ã…): 2.52098
COMMENTS
Test file for demonstrating the .xyy file format in Reel1.0
END OF HEADER
   tth       Y_obs     Y_calc      Y_res    Background    Phase_1_Nuc    Phase_1_Mag    Phase_2_Nuc    Phase_2_Mag
  9.970    557.403    565.426     -8.023    564.283    565.426    564.283    564.283    564.283
 10.070    593.000    566.070     26.930    564.833    566.069    564.833    564.833    564.833
 10.170    657.000    566.718     90.282    565.372    566.717    565.372    565.372    565.372
 10.270    542.204    567.368    -25.163    565.899    567.367    565.899    565.899    565.899
 10.370    644.000    568.025     75.975    566.416    568.024    566.416    566.416    566.416
 10.470    595.000    568.695     26.305    566.922    568.694    566.922    566.922    566.922
 10.570    583.000    569.382     13.618    567.416    569.381    567.416    567.416    567.416
 10.670    528.481    570.094    -41.613    567.900    570.093    567.900    567.900    567.900
 10.770    566.000    570.841     -4.841    568.373    570.840    568.373    568.373    568.373
 10.870    574.000    571.635      2.365    568.835    571.633    568.835    568.835    568.835
 10.970    625.000    572.493     52.507    569.287    572.491    569.287    569.287    569.287
 11.070    551.295    573.440    -22.145    569.728    573.438    569.728    569.728    569.728
 11.170    617.000    574.511     42.489    570.159    574.508    570.159    570.159    570.159
 11.270    593.407    575.758     17.649    570.579    575.755    570.579    570.579    570.579
 11.370    620.069    577.273     42.796    570.990    577.270    570.990    570.990    570.990
 11.470    545.937    579.239    -33.302    571.390    579.235    571.390    571.390    571.390
 11.570    632.000    582.081     49.919    571.779    582.075    571.779    571.779    571.779
 11.670    610.088    586.774     23.314    572.159    586.766    572.159    572.159    572.159
 11.770    658.000    595.235     62.765    572.529    595.222    572.529    572.529    572.529
 11.870    657.000    610.326     46.674    572.889    610.305    572.889    572.889    572.889
 11.970    659.000    634.301     24.699    573.239    634.266    573.239    573.239    573.239
 12.070    710.000    666.519     43.481    573.580    666.466    573.580    573.580    573.580
 12.170    682.075    698.816    -16.742    573.911    698.745    573.911    573.911    573.911
 12.270    673.000    713.754    -40.754    574.232    713.674    574.232    574.232    574.232
 12.370    671.000    699.601    -28.601    574.544    699.529    574.544    574.544    574.544
 12.470    602.000    667.996    -65.996    574.847    667.943    574.847    574.847    574.847
 12.570    615.000    636.392    -21.392    575.140    636.356    575.140    575.140    575.140
 12.670    563.198    613.031    -49.833    575.424    613.010    575.424    575.424    575.424
 12.770    584.478    598.669    -14.190    575.699    598.656    575.699    575.699    575.699
 12.870    585.000    590.848     -5.848    575.964    590.839    575.964    575.964    575.964
 12.970    590.000    586.783      3.217    576.221    586.778    576.221    576.221    576.221
 13.070    586.000    584.576      1.424    576.469    584.571    576.469    576.469    576.469
 13.170    534.691    583.249    -48.558    576.708    583.246    576.708    576.708    576.708
 13.270    562.479    582.377    -19.897    576.938    582.374    576.938    576.938    576.938
 13.370    579.574    581.774     -2.200    577.159    581.771    577.159    577.159    577.159
 13.470    583.000    581.350      1.650    577.372    581.348    577.372    577.372    577.372
 13.570    565.000    581.053    -16.053    577.577    581.051    577.577    577.577    577.577
 13.670    608.734    580.846     27.888    577.772    580.845    577.772    577.772    577.772
 13.770    580.000    580.707     -0.707    577.960    580.705    577.960    577.960    577.960
 13.870    548.000    580.617    -32.617    578.139    580.616    578.139    578.139    578.139
 13.970    562.000    580.566    -18.566    578.310    580.565    578.310    578.310    578.310
 14.070    581.000    580.540      0.460    578.472    580.539    578.472    578.472    578.472
 14.170    550.000    580.536    -30.536    578.627    580.535    578.627    578.627    578.627
 14.270    569.669    580.550    -10.881    578.774    580.549    578.774    578.774    578.774
 14.370    596.000    580.573     15.427    578.912    580.573    578.912    578.912    578.912
 14.470    615.121    580.603     34.517    579.043    580.602    579.043    579.043    579.043
 14.570    609.000    580.638     28.362    579.166    580.637    579.166    579.166    579.166
 14.670    579.000    580.676     -1.676    579.281    580.676    579.281    579.281    579.281
 14.770    577.000    580.716     -3.716    579.388    580.716    579.388    579.388    579.388
 14.870    624.479    580.757     43.722    579.488    580.756    579.488    579.488    579.488
 14.970    575.000    580.797     -5.797    579.580    580.796    579.580    579.580    579.580
 15.070    602.985    580.836     22.149    579.665    580.835    579.665    579.665    579.665
 15.170    565.000    580.879    -15.879    579.743    580.878    579.743    579.743    579.743
 15.270    566.005    580.921    -14.916    579.813    580.921    579.813    579.813    579.813
 15.370    575.404    581.025     -5.621    579.876    581.024    579.876    579.876    579.876
 15.470    586.612    581.059      5.554    579.932    581.058    579.932    579.932    579.932
 15.570    590.634    581.081      9.552    579.980    581.081    579.980    579.980    579.980
 15.670    621.960    581.100     40.861    580.022    581.099    580.022    580.022    580.022
 15.770    533.000    581.113    -48.113    580.056    581.113    580.056    580.056    580.056
 15.870    622.800    581.123     41.677    580.084    581.122    580.084    580.084    580.084
 15.970    568.000    581.129    -13.129    580.105    581.129    580.105    580.105    580.105
 16.070    542.000    581.141    -39.141    580.119    581.140    580.119    580.119    580.119
 16.170    560.000    581.136    -21.136    580.126    581.136    580.126    580.126    580.126
 16.270    605.125    581.125     24.000    580.127    581.125    580.127    580.127    580.127
 16.370    569.000    581.111    -12.111    580.121    581.111    580.121    580.121    580.121
 16.470    535.000    581.107    -46.107    580.108    581.107    580.108    580.108    580.108
 16.570    531.000    581.092    -50.092    580.089    581.092    580.089    580.089    580.089
 16.670    573.719    581.061     -7.342    580.064    581.061    580.064    580.064    580.064
 16.770    564.000    581.023    -17.023    580.033    581.023    580.033    580.033    580.033
 16.870    529.000    580.981    -51.981    579.995    580.981    579.995    579.995    579.995
 16.970    551.000    580.942    -29.942    579.951    580.942    579.951    579.951    579.951
 17.070    567.000    580.947    -13.947    579.900    580.947    579.900    579.900    579.900
 17.170    563.000    580.904    -17.904    579.844    580.904    579.844    579.844    579.844
 17.270    540.370    580.845    -40.476    579.782    580.845    579.782    579.782    579.782
 17.370    586.000    580.777      5.223    579.714    580.777    579.714    579.714    579.714
 17.470    560.095    580.703    -20.608    579.640    580.703    579.640    579.640    579.640
 17.570    545.000    580.624    -35.624    579.560    580.624    579.560    579.560    579.560
 17.670    583.000    580.540      2.460    579.474    580.540    579.474    579.474    579.474
 17.770    554.000    580.451    -26.451    579.383    580.450    579.383    579.383    579.383
 17.870    565.000    580.356    -15.356    579.286    580.356    579.286    579.286    579.286
 17.970    575.000    580.257     -5.257    579.184    580.257    579.184    579.184    579.184
 18.070    611.000    580.152     30.848    579.076    580.152    579.076    579.076    579.076
 18.170    565.000    580.046    -15.046    578.962    580.046    578.962    578.962    578.962
 18.270    555.763    579.959    -24.196    578.843    579.959    578.843    578.843    578.843
 18.370    548.000    579.852    -31.852    578.719    579.852    578.719    578.719    578.719
 18.470    553.000    579.754    -26.754    578.590    579.754    578.590    578.590    578.590
 18.570    605.503    579.664     25.839    578.455    579.664    578.455    578.455    578.455
 18.670    580.000    579.561      0.439    578.316    579.560    578.316    578.316    578.316
 18.770    586.000    579.470      6.530    578.171    579.470    578.171    578.171    578.171
 18.870    603.687    579.335     24.352    578.021    579.335    578.021    578.021    578.021
 18.970    563.000    579.190    -16.190    577.866    579.190    577.866    577.866    577.866
 19.070    591.567    579.044     12.522    577.706    579.044    577.706    577.706    577.706
 19.170    591.000    578.943     12.057    577.542    578.943    577.542    577.542    577.542
 19.270    543.000    578.814    -35.814    577.372    578.814    577.372    577.372    577.372
 19.370    584.000    578.658      5.342    577.198    578.658    577.198    577.198    577.198
 19.470    581.000    578.492      2.508    577.019    578.492    577.019    577.019    577.019
 19.570    563.000    578.324    -15.324    576.836    578.324    576.836    576.836    576.836
 19.670    580.411    578.154      2.257    576.648    578.154    576.648    576.648    576.648
 19.770    581.000    577.979      3.021    576.455    577.979    576.455    576.455    576.455
 19.870    552.000    577.798    -25.798    576.258    577.798    576.258    576.258    576.258
 19.970    602.550    577.618     24.932    576.057    577.618    576.057    576.057    576.057
 20.070    537.000    577.431    -40.431    575.851    577.431    575.851    575.851    575.851
 20.170    570.000    577.238     -7.238    575.641    577.238    575.641    575.641    575.641
 20.270    565.929    577.042    -11.114    575.427    577.042    575.427    575.427    575.427
 20.370    567.000    576.844     -9.844    575.208    576.844    575.208    575.208    575.208
 20.470    560.000    576.641    -16.641    574.986    576.641    574.986    574.986    574.986
 20.570    601.287    576.441     24.847    574.759    576.441    574.759    574.759    574.759
 20.670    556.000    576.234    -20.234    574.528    576.234    574.528    574.528    574.528
 20.770    563.000    576.023    -13.023    574.293    576.023    574.293    574.293    574.293
 20.870    556.000    575.810    -19.810    574.055    575.810    574.055    574.055    574.055
 20.970    553.035    575.595    -22.559    573.812    575.595    573.812    573.812    573.812
 21.070    562.114    575.377    -13.263    573.566    575.378    573.566    573.566    573.566
 21.170    566.000    575.156     -9.156    573.316    575.156    573.316    573.316    573.316
 21.270    590.000    574.933     15.067    573.062    574.933    573.062    573.062    573.062
 21.370    572.528    574.708     -2.179    572.805    574.708    572.805    572.805    572.805
 21.470    566.530    574.481     -7.950    572.544    574.481    572.544    572.544    572.544
 21.570    564.000    574.252    -10.252    572.279    574.253    572.279    572.279    572.279
 21.670    592.000    574.023     17.977    572.011    574.023    572.011    572.011    572.011
 21.770    503.000    573.793    -70.793    571.739    573.793    571.739    571.739    571.739
 21.870    581.000    573.563      7.437    571.464    573.563    571.464    571.464    571.464
 21.970    522.569    573.332    -50.764    571.186    573.333    571.186    571.186    571.186
 22.070    528.000    573.103    -45.103    570.904    573.103    570.904    570.904    570.904
 22.170    584.000    572.874     11.126    570.619    572.874    570.619    570.619    570.619
 22.270    602.541    572.646     29.895    570.331    572.647    570.331    570.331    570.331
 22.370    555.000    572.421    -17.421    570.040    572.422    570.040    570.040    570.040
 22.470    607.000    572.200     34.800    569.745    572.200    569.745    569.745    569.745
 22.570    534.000    571.982    -37.982    569.448    571.982    569.448    569.448    569.448
 22.670    615.000    571.771     43.229    569.148    571.771    569.148    569.148    569.148
 22.770    551.023    571.567    -20.544    568.844    571.567    568.844    568.844    568.844
 22.870    596.959    571.370     25.589    568.538    571.371    568.538    568.538    568.538
 22.970    580.000    571.185      8.815    568.228    571.186    568.228    568.228    568.228
 23.070    563.000    571.014     -8.014    567.916    571.014    567.916    567.916    567.916
 23.170    563.000    570.860     -7.860    567.601    570.861    567.601    567.601    567.601
 23.270    537.000    570.729    -33.729    567.284    570.730    567.284    567.284    567.284
 23.370    522.000    570.627    -48.627    566.963    570.628    566.963    566.963    566.963
 23.470    539.000    570.562    -31.562    566.640    570.563    566.640    566.640    566.640
 23.570    572.000    570.545      1.455    566.315    570.547    566.315    566.315    566.315
 23.670    562.000    570.592     -8.592    565.987    570.594    565.987    565.987    565.987
 23.770    555.000    570.725    -15.725    565.656    570.727    565.656    565.656    565.656
 23.870    587.007    570.979     16.029    565.323    570.981    565.323    565.323    565.323
 23.970    624.000    571.410     52.590    564.987    571.413    564.987    564.987    564.987
 24.070    573.523    572.137      1.386    564.650    572.141    564.650    564.650    564.650
 24.170    554.000    573.421    -19.421    564.309    573.426    564.309    564.309    564.309
 24.270    572.000    575.837     -3.837    563.967    575.843    563.967    563.967    563.967
 24.370    545.161    580.470    -35.309    563.622    580.480    563.622    563.622    563.622
 24.470    666.000    588.911     77.089    563.275    588.927    563.275    563.275    563.275
 24.570    610.000    602.634      7.366    562.926    602.660    562.926    562.926    562.926
 24.670    627.000    621.550      5.450    562.575    621.589    562.575    562.575    562.575
 24.770    682.000    641.753     40.247    562.221    641.806    562.221    562.221    562.221
 24.870    617.727    654.156    -36.429    561.866    654.218    561.866    561.866    561.866
 24.970    631.894    650.522    -18.628    561.508    650.582    561.508    561.508    561.508
 25.070    660.000    633.455     26.545    561.149    633.504    561.149    561.149    561.149
 25.170    628.000    612.576     15.424    560.788    612.609    560.788    560.788    560.788
 25.270    591.956    594.962     -3.006    560.425    594.983    560.425    560.425    560.425
 25.370    653.000    582.827     70.173    560.060    582.840    560.060    560.060    560.060
 25.470    589.000    575.482     13.518    559.693    575.490    559.693    559.693    559.693
 25.570    615.000    571.311     43.689    559.324    571.317    559.324    559.324    559.324
 25.670    602.000    568.902     33.098    558.954    568.907    558.954    558.954    558.954
 25.770    572.000    567.384      4.616    558.582    567.387    558.582    558.582    558.582
 25.870    593.000    566.322     26.678    558.209    566.324    558.209    558.209    558.209
 25.970    623.000    565.523     57.477    557.834    565.524    557.834    557.834    557.834
 26.070    554.000    564.901    -10.901    557.457    564.902    557.457    557.457    557.457
 26.170    533.022    564.414    -31.392    557.079    564.415    557.079    557.079    557.079
 26.270    522.724    564.038    -41.314    556.699    564.039    556.699    556.699    556.699
 26.370    593.000    563.761     29.239    556.318    563.761    556.318    556.318    556.318
 26.470    583.000    563.577     19.423    555.936    563.577    555.936    555.936    555.936
 26.570    532.848    563.486    -30.638    555.552    563.486    555.552    555.552    555.552
 26.670    584.000    563.495     20.505    555.167    563.495    555.167    555.167    555.167
 26.770    592.000    563.616     28.384    554.780    563.615    554.780    554.780    554.780
 26.870    608.690    563.866     44.824    554.392    563.866    554.392    554.392    554.392
 26.970    586.932    564.274     22.658    554.004    564.273    554.004    554.004    554.004
 27.070    581.000    564.879     16.121    553.613    564.877    553.613    553.613    553.613
 27.170    656.000    565.735     90.265    553.222    565.734    553.222    553.222    553.222
 27.270    604.000    566.927     37.073    552.830    566.925    552.830    552.830    552.830
 27.370    604.538    568.581     35.957    552.436    568.579    552.436    552.436    552.436
 27.470    574.975    570.933      4.042    552.042    570.930    552.042    552.042    552.042
 27.570    581.000    574.512      6.488    551.646    574.507    551.646    551.646    551.646
 27.670    607.000    580.671     26.329    551.250    580.665    551.250    551.250    551.250
 27.770    607.000    592.675     14.325    550.853    592.664    550.853    550.853    550.853
 27.870    616.946    616.927      0.019    550.454    616.907    550.454    550.454    550.454
 27.970    652.000    662.374    -10.374    550.055    662.339    550.055    550.055    550.055
 28.070    729.412    735.134     -5.722    549.655    735.078    549.655    549.655    549.655
 28.170    792.897    827.845    -34.949    549.255    827.770    549.255    549.255    549.255
 28.270    956.847    909.749     47.099    548.853    909.669    548.853    548.853    548.853
 28.370    971.000    936.029     34.971    548.451    935.962    548.451    548.451    548.451
 28.470    865.839    892.644    -26.805    548.048    892.597    548.048    548.048    548.048
 28.570    847.000    821.017     25.983    547.644    820.985    547.644    547.644    547.644
 28.670    766.000    770.181     -4.181    547.240    770.156    547.240    547.240    547.240
 28.770    749.000    761.677    -12.677    546.835    761.653    546.835    546.835    546.835
 28.870    822.000    788.673     33.327    546.430    788.650    546.430    546.430    546.430
 28.970    822.000    822.682     -0.682    546.024    822.667    546.024    546.024    546.024
 29.070    889.913    827.589     62.324    545.618    827.585    545.618    545.618    545.618
 29.170    845.000    788.708     56.292    545.211    788.712    545.211    545.211    545.211
 29.270    761.000    726.227     34.773    544.803    726.234    544.803    544.803    544.803
 29.370    662.000    666.544     -4.544    544.396    666.549    544.396    544.396    544.396
 29.470    623.000    622.287      0.713    543.988    622.290    543.988    543.988    543.988
 29.570    552.917    594.461    -41.544    543.579    594.462    543.579    543.579    543.579
 29.670    642.000    578.727     63.273    543.170    578.726    543.170    543.170    543.170
 29.770    618.000    570.104     47.896    542.761    570.103    542.761    542.761    542.761
 29.870    544.995    565.122    -20.127    542.352    565.121    542.352    542.352    542.352
 29.970    573.000    561.958     11.042    541.943    561.956    541.943    541.943    541.943
 30.070    556.675    559.819     -3.144    541.533    559.817    541.533    541.533    541.533
 30.170    647.000    558.421     88.579    541.123    558.418    541.123    541.123    541.123
 30.270    620.000    557.749     62.251    540.713    557.745    540.713    540.713    540.713
 30.370    590.225    558.040     32.185    540.303    558.034    540.303    540.303    540.303
 30.470    583.000    559.869     23.131    539.892    559.861    539.892    539.892    539.892
 30.570    616.000    564.175     51.825    539.482    564.163    539.482    539.482    539.482
 30.670    600.000    572.002     27.998    539.072    571.984    539.072    539.072    539.072
 30.770    555.798    583.795    -27.998    538.662    583.768    538.662    538.662    538.662
 30.870    652.000    598.259     53.741    538.251    598.223    538.251    538.251    538.251
 30.970    649.737    611.096     38.641    537.841    611.053    537.841    537.841    537.841
 31.070    574.790    615.504    -40.714    537.431    615.459    537.431    537.431    537.431
 31.170    684.000    607.995     76.005    537.021    607.957    537.021    537.021    537.021
 31.270    588.000    593.147     -5.147    536.611    593.118    536.611    536.611    536.611
 31.370    590.000    577.716     12.284    536.201    577.697    536.201    536.201    536.201
 31.470    623.000    565.400     57.600    535.792    565.387    535.792    535.792    535.792
 31.570    582.000    557.027     24.973    535.382    557.019    535.382    535.382    535.382
 31.670    507.834    551.926    -44.091    534.973    551.920    534.973    534.973    534.973
 31.770    604.000    548.988     55.012    534.564    548.984    534.564    534.564    534.564
 31.870    503.858    547.284    -43.427    534.156    547.281    534.156    534.156    534.156
 31.970    587.000    546.245     40.755    533.748    546.242    533.748    533.748    533.748
 32.070    569.000    545.585     23.415    533.340    545.583    533.340    533.340    533.340
 32.170    567.000    545.181     21.819    532.932    545.178    532.932    532.932    532.932
 32.270    609.000    544.983     64.017    532.525    544.981    532.525    532.525    532.525
 32.370    499.161    544.979    -45.818    532.119    544.977    532.119    532.119    532.119
 32.470    532.000    545.171    -13.171    531.712    545.170    531.712    531.712    531.712
 32.570    547.000    545.578      1.422    531.307    545.576    531.307    531.307    531.307
 32.670    567.000    546.231     20.769    530.901    546.229    530.901    530.901    530.901
 32.770    559.000    547.179     11.821    530.497    547.177    530.497    530.497    530.497
 32.870    577.073    548.495     28.578    530.092    548.492    530.092    530.092    530.092
 32.970    572.000    550.282     21.718    529.689    550.280    529.689    529.689    529.689
 33.070    602.000    552.707     49.293    529.285    552.705    529.285    529.285    529.285
 33.170    563.000    556.058      6.942    528.883    556.055    528.883    528.883    528.883
 33.270    586.000    560.905     25.095    528.481    560.902    528.481    528.481    528.481
 33.370    567.000    568.445     -1.445    528.080    568.440    528.080    528.080    528.080
 33.470    601.513    581.078     20.435    527.679    581.071    527.679    527.679    527.679
 33.570    645.000    603.033     41.967    527.279    603.023    527.279    527.279    527.279
 33.670    618.000    640.378    -22.378    526.880    640.361    526.880    526.880    526.880
 33.770    722.874    699.405     23.470    526.482    699.378    526.482    526.482    526.482
 33.870    781.000    782.754     -1.754    526.084    782.716    526.084    526.084    526.084
 33.970    819.482    883.374    -63.892    525.687    883.325    525.687    525.687    525.687
 34.070   1021.000    977.024     43.976    525.291    976.969    525.291    525.291    525.291
 34.170   1037.094   1022.448     14.645    524.896   1022.400    524.896    524.896    524.896
 34.270   1022.000    992.129     29.871    524.502    992.098    524.502    524.502    524.502
 34.370    893.000    905.305    -12.305    524.108    905.293    524.108    524.108    524.108
 34.470    732.000    803.105    -71.105    523.715    803.103    523.715    523.715    523.715
 34.570    622.000    713.984    -91.984    523.323    713.986    523.323    523.323    523.323
 34.670    629.176    648.441    -19.265    522.933    648.443    522.933    522.933    522.933
 34.770    624.817    605.592     19.225    522.543    605.593    522.543    522.543    522.543
 34.870    601.115    579.646     21.469    522.154    579.646    522.154    522.154    522.154
 34.970    556.000    564.313     -8.313    521.766    564.312    521.766    521.766    521.766
 35.070    560.000    554.913      5.087    521.379    554.912    521.379    521.379    521.379
 35.170    521.000    548.659    -27.659    520.993    548.658    520.993    520.993    520.993
 35.270    559.000    544.121     14.879    520.608    544.120    520.608    520.608    520.608
 35.370    550.127    540.608      9.520    520.224    540.607    520.224    520.224    520.224
 35.470    557.000    537.775     19.225    519.841    537.775    519.841    519.841    519.841
 35.570    518.019    535.434    -17.415    519.459    535.433    519.459    519.459    519.459
 35.670    569.000    533.460     35.540    519.078    533.460    519.078    519.078    519.078
 35.770    570.937    531.772     39.165    518.699    531.772    518.699    518.699    518.699
 35.870    528.000    530.308     -2.308    518.321    530.308    518.321    518.321    518.321
 35.970    514.000    529.024    -15.024    517.943    529.024    517.943    517.943    517.943
 36.070    495.728    527.886    -32.157    517.567    527.886    517.567    517.567    517.567
 36.170    568.499    526.868     41.630    517.192    526.868    517.192    517.192    517.192
 36.270    564.000    525.952     38.048    516.819    525.952    516.819    516.819    516.819
 36.370    525.000    525.123     -0.123    516.446    525.122    516.446    516.446    516.446
 36.470    561.067    524.369     36.698    516.075    524.369    516.075    516.075    516.075
 36.570    488.174    523.684    -35.510    515.705    523.684    515.705    515.705    515.705
 36.670    552.000    523.064     28.936    515.336    523.064    515.336    515.336    515.336
 36.770    508.000    522.508    -14.508    514.969    522.508    514.969    514.969    514.969
 36.870    501.758    522.024    -20.265    514.603    522.024    514.603    514.603    514.603
 36.970    503.814    521.632    -17.818    514.238    521.632    514.238    514.238    514.238
 37.070    511.000    521.382    -10.382    513.874    521.383    513.874    513.874    513.874
 37.170    494.630    521.374    -26.744    513.512    521.375    513.512    513.512    513.512
 37.270    507.000    521.770    -14.770    513.152    521.770    513.152    513.152    513.152
 37.370    516.000    522.780     -6.780    512.792    522.781    512.792    512.792    512.792
 37.470    553.000    524.586     28.414    512.434    524.587    512.434    512.434    512.434
 37.570    537.000    527.189      9.811    512.077    527.191    512.077    512.077    512.077
 37.670    519.000    530.212    -11.212    511.722    530.215    511.722    511.722    511.722
 37.770    567.294    532.733     34.562    511.369    532.738    511.369    511.369    511.369
 37.870    525.298    533.516     -8.219    511.016    533.523    511.016    511.016    511.016
 37.970    538.000    532.025      5.975    510.665    532.034    510.665    510.665    510.665
 38.070    518.000    529.006    -11.006    510.316    529.016    510.316    510.316    510.316
 38.170    477.000    525.536    -48.536    509.968    525.546    509.968    509.968    509.968
 38.270    474.000    522.274    -48.274    509.622    522.284    509.622    509.622    509.622
 38.370    556.509    519.551     36.958    509.277    519.559    509.277    509.277    509.277
 38.470    551.000    517.469     33.531    508.933    517.475    508.933    508.933    508.933
 38.570    512.000    515.952     -3.952    508.592    515.956    508.592    508.592    508.592
 38.670    472.341    514.853    -42.511    508.251    514.855    508.251    508.251    508.251
 38.770    481.000    514.032    -33.032    507.912    514.034    507.912    507.912    507.912
 38.870    518.000    513.387      4.613    507.575    513.388    507.575    507.575    507.575
 38.970    479.339    512.846    -33.506    507.240    512.847    507.240    507.240    507.240
 39.070    489.000    512.378    -23.378    506.906    512.379    506.906    506.906    506.906
 39.170    472.000    511.955    -39.955    506.573    511.956    506.573    506.573    506.573
 39.270    485.000    511.563    -26.563    506.243    511.564    506.243    506.243    506.243
 39.370    512.310    511.195      1.116    505.913    511.195    505.913    505.913    505.913
 39.470    477.000    510.845    -33.845    505.586    510.846    505.586    505.586    505.586
 39.570    495.000    510.513    -15.513    505.260    510.514    505.260    505.260    505.260
 39.670    485.637    510.196    -24.559    504.936    510.196    504.936    504.936    504.936
 39.770    469.260    509.893    -40.633    504.613    509.893    504.613    504.613    504.613
 39.870    458.000    509.603    -51.603    504.292    509.603    504.292    504.292    504.292
 39.970    528.038    509.327     18.712    503.973    509.327    503.973    503.973    503.973
 40.070    498.000    509.064    -11.064    503.656    509.064    503.656    503.656    503.656
 40.170    521.000    508.815     12.185    503.340    508.815    503.340    503.340    503.340
 40.270    497.311    508.580    -11.269    503.026    508.581    503.026    503.026    503.026
 40.370    443.000    508.361    -65.361    502.714    508.362    502.714    502.714    502.714
 40.470    468.115    508.159    -40.045    502.403    508.160    502.403    502.403    502.403
 40.570    468.000    507.976    -39.976    502.094    507.977    502.094    502.094    502.094
 40.670    498.000    507.814     -9.814    501.787    507.815    501.787    501.787    501.787
 40.770    459.206    507.675    -48.469    501.482    507.676    501.482    501.482    501.482
 40.870    494.000    507.564    -13.564    501.178    507.565    501.178    501.178    501.178
 40.970    495.000    507.485    -12.485    500.876    507.486    500.876    500.876    500.876
 41.070    527.000    507.444     19.556    500.576    507.446    500.576    500.576    500.576
 41.170    475.612    507.449    -31.837    500.278    507.451    500.278    500.278    500.278
 41.270    530.699    507.510     23.189    499.982    507.511    499.982    499.982    499.982
 41.370    488.000    507.640    -19.640    499.687    507.641    499.687    499.687    499.687
 41.470    470.259    507.857    -37.598    499.394    507.859    499.394    499.394    499.394
 41.570    517.499    508.190      9.309    499.103    508.192    499.103    499.103    499.103
 41.670    527.000    508.684     18.316    498.814    508.687    498.814    498.814    498.814
 41.770    489.000    509.422    -20.422    498.527    509.425    498.527    498.527    498.527
 41.870    504.000    510.563     -6.563    498.241    510.566    498.241    498.241    498.241
 41.970    520.000    512.409      7.591    497.958    512.414    497.958    497.958    497.958
 42.070    491.000    515.491    -24.491    497.676    515.497    497.676    497.676    497.676
 42.170    529.000    520.624      8.376    497.396    520.632    497.396    497.396    497.396
 42.270    494.000    528.849    -34.849    497.118    528.861    497.118    497.118    497.118
 42.370    524.000    541.167    -17.167    496.842    541.185    496.842    496.842    496.842
 42.470    546.000    558.000    -12.000    496.568    558.026    496.568    496.568    496.568
 42.570    561.000    578.440    -17.440    496.295    578.476    496.295    496.295    496.295
 42.670    563.000    599.359    -36.359    496.025    599.407    496.025    496.025    496.025
 42.770    630.556    614.955     15.601    495.756    615.013    495.756    495.756    495.756
 42.870    652.954    618.729     34.226    495.490    618.792    495.490    495.490    495.490
 42.970    598.000    608.610    -10.610    495.225    608.669    495.225    495.225    495.225
 43.070    608.015    589.249     18.767    494.962    589.299    494.962    494.962    494.962
 43.170    573.000    567.490      5.510    494.701    567.529    494.701    494.701    494.701
 43.270    550.000    548.019      1.981    494.442    548.047    494.442    494.442    494.442
 43.370    514.376    532.827    -18.451    494.185    532.846    494.185    494.185    494.185
 43.470    521.000    522.095     -1.095    493.930    522.108    493.930    493.930    493.930
 43.570    541.000    515.045     25.955    493.677    515.054    493.677    493.677    493.677
 43.670    474.000    510.600    -36.600    493.426    510.607    493.426    493.426    493.426
 43.770    499.000    507.796     -8.796    493.177    507.801    493.177    493.177    493.177
 43.870    495.000    505.949    -10.949    492.929    505.953    492.929    492.929    492.929
 43.970    502.464    504.645     -2.181    492.684    504.647    492.684    492.684    492.684
 44.070    501.263    503.657     -2.394    492.440    503.659    492.440    492.440    492.440
 44.170    499.608    502.870     -3.263    492.199    502.872    492.199    492.199    492.199
 44.270    538.000    502.224     35.776    491.960    502.225    491.960    491.960    491.960
 44.370    462.534    501.682    -39.148    491.722    501.684    491.722    491.722    491.722
 44.470    529.000    501.223     27.777    491.486    501.224    491.486    491.486    491.486
 44.570    461.000    500.832    -39.832    491.253    500.833    491.253    491.253    491.253
 44.670    459.449    500.496    -41.047    491.021    500.497    491.021    491.021    491.021
 44.770    454.000    500.209    -46.209    490.792    500.210    490.792    490.792    490.792
 44.870    537.812    499.964     37.848    490.564    499.964    490.564    490.564    490.564
 44.970    495.605    499.755     -4.150    490.338    499.756    490.338    490.338    490.338
 45.070    509.000    499.581      9.419    490.115    499.581    490.115    490.115    490.115
 45.170    465.000    499.437    -34.437    489.893    499.438    489.893    489.893    489.893
 45.270    473.273    499.324    -26.051    489.673    499.324    489.673    489.673    489.673
 45.370    461.121    499.239    -38.118    489.456    499.239    489.456    489.456    489.456
 45.470    510.000    499.182     10.818    489.240    499.182    489.240    489.240    489.240
 45.570    510.000    499.154     10.846    489.026    499.154    489.026    489.026    489.026
 45.670    486.000    499.154    -13.154    488.815    499.154    488.815    488.815    488.815
 45.770    471.772    499.185    -27.413    488.605    499.185    488.605    488.605    488.605
 45.870    502.000    499.249      2.751    488.397    499.248    488.397    488.397    488.397
 45.970    506.131    499.346      6.785    488.192    499.346    488.192    488.192    488.192
 46.070    517.000    499.481     17.519    487.988    499.481    487.988    487.988    487.988
 46.170    501.000    499.658      1.342    487.786    499.657    487.786    487.786    487.786
 46.270    525.636    499.881     25.755    487.587    499.880    487.587    487.587    487.587
 46.370    502.000    500.157      1.843    487.389    500.156    487.389    487.389    487.389
 46.470    486.606    500.495    -13.889    487.193    500.494    487.193    487.193    487.193
 46.570    501.000    500.906      0.094    487.000    500.905    487.000    487.000    487.000
 46.670    513.000    501.406     11.594    486.808    501.405    486.808    486.808    486.808
 46.770    533.000    502.019     30.981    486.618    502.017    486.618    486.618    486.618
 46.870    481.000    502.787    -21.787    486.431    502.785    486.431    486.431    486.431
 46.970    538.000    503.785     34.215    486.245    503.782    486.245    486.245    486.245
 47.070    490.000    505.151    -15.151    486.061    505.147    486.061    486.061    486.061
 47.170    513.000    507.122      5.878    485.880    507.117    485.880    485.880    485.880
 47.270    499.000    510.071    -11.071    485.700    510.064    485.700    485.700    485.700
 47.370    513.000    514.511     -1.511    485.523    514.501    485.523    485.523    485.523
 47.470    570.757    521.015     49.742    485.347    521.001    485.347    485.347    485.347
 47.570    551.738    530.043     21.695    485.173    530.022    485.173    485.173    485.173
 47.670    571.000    541.651     29.349    485.002    541.621    485.002    485.002    485.002
 47.770    595.794    555.141     40.653    484.832    555.102    484.832    484.832    484.832
 47.870    556.000    568.676    -12.676    484.664    568.629    484.664    484.664    484.664
 47.970    576.000    579.137     -3.137    484.499    579.084    484.499    484.499    484.499
 48.070    564.746    583.111    -18.365    484.335    583.058    484.335    484.335    484.335
 48.170    577.000    579.350     -2.350    484.174    579.302    484.174    484.174    484.174
 48.270    606.217    570.044     36.173    484.014    570.004    484.014    484.014    484.014
 48.370    542.000    558.848    -16.848    483.856    558.817    483.856    483.856    483.856
 48.470    575.053    548.614     26.438    483.701    548.591    483.701    483.701    483.701
 48.570    504.000    540.860    -36.860    483.547    540.843    483.547    483.547    483.547
 48.670    515.000    536.088    -21.088    483.395    536.077    483.395    483.395    483.395
 48.770    520.953    534.189    -13.236    483.245    534.181    483.245    483.245    483.245
 48.870    523.000    534.780    -11.780    483.098    534.774    483.098    483.098    483.098
 48.970    576.000    537.487     38.513    482.952    537.481    482.952    482.952    482.952
 49.070    511.000    542.138    -31.138    482.808    542.133    482.808    482.808    482.808
 49.170    568.000    548.946     19.054    482.666    548.941    482.666    482.666    482.666
 49.270    560.000    558.807      1.193    482.526    558.800    482.526    482.526    482.526
 49.370    569.000    573.931     -4.931    482.389    573.921    482.389    482.389    482.389
 49.470    589.735    599.013     -9.278    482.253    598.996    482.253    482.253    482.253
 49.570    651.175    642.816      8.359    482.119    642.787    482.119    482.119    482.119
 49.670    686.000    719.387    -33.387    481.987    719.338    481.987    481.987    481.987
 49.770    806.991    847.145    -40.154    481.857    847.070    481.857    481.857    481.857
 49.870   1016.000   1043.787    -27.787    481.728   1043.683    481.728    481.728    481.728
 49.970   1318.000   1316.397      1.603    481.602   1316.271    481.602    481.602    481.602
 50.070   1589.285   1649.090    -59.805    481.478   1648.964    481.478    481.478    481.478
 50.170   1918.000   1992.545    -74.545    481.356   1992.453    481.356    481.356    481.356
 50.270   2210.000   2261.779    -51.779    481.235   2261.764    481.235    481.235    481.235
 50.370   2348.000   2359.936    -11.936    481.117   2360.016    481.117    481.117    481.117
 50.470   2186.631   2243.418    -56.787    481.000   2243.569    481.000    481.000    481.000
 50.570   1950.966   1964.424    -13.458    480.886   1964.601    480.886    480.886    480.886
 50.670   1594.000   1622.242    -28.242    480.773   1622.408    480.773    480.773    480.773
 50.770   1198.000   1299.494   -101.494    480.662   1299.631    480.662    480.662    480.662
 50.870    998.685   1041.989    -43.304    480.554   1042.093    480.554    480.554    480.554
 50.970    841.000    862.478    -21.478    480.447    862.554    480.447    480.447    480.447
 51.070    725.877    751.356    -25.479    480.342    751.413    480.342    480.342    480.342
 51.170    722.760    688.756     34.004    480.238    688.803    480.238    480.238    480.238
 51.270    607.268    654.150    -46.882    480.137    654.191    480.137    480.137    480.137
 51.370    593.000    631.930    -38.930    480.038    631.968    480.038    480.038    480.038
 51.470    612.000    613.514     -1.514    479.940    613.547    479.940    479.940    479.940
 51.570    592.000    596.282     -4.282    479.845    596.309    479.845    479.845    479.845
 51.670    580.559    580.577     -0.019    479.751    580.599    479.751    479.751    479.751
 51.770    571.000    567.286      3.714    479.659    567.302    479.659    479.659    479.659
 51.870    584.000    556.924     27.076    479.569    556.936    479.569    479.569    479.569
 51.970    568.000    549.528     18.472    479.480    549.537    479.480    479.480    479.480
 52.070    573.308    544.797     28.511    479.394    544.804    479.394    479.394    479.394
 52.170    520.289    542.293    -22.004    479.310    542.298    479.310    479.310    479.310
 52.270    574.000    541.626     32.374    479.227    541.630    479.227    479.227    479.227
 52.370    512.401    542.593    -30.192    479.146    542.597    479.146    479.146    479.146
 52.470    525.857    545.277    -19.420    479.067    545.280    479.067    479.067    479.067
 52.570    569.000    550.171     18.829    478.990    550.174    478.990    478.990    478.990
 52.670    556.460    558.338     -1.878    478.914    558.340    478.914    478.914    478.914
 52.770    611.000    571.622     39.378    478.841    571.624    478.841    478.841    478.841
 52.870    645.819    592.821     52.998    478.769    592.823    478.769    478.769    478.769
 52.970    612.000    625.540    -13.540    478.699    625.541    478.699    478.699    478.699
 53.070    642.000    673.663    -31.663    478.630    673.663    478.630    478.630    478.630
 53.170    706.028    740.199    -34.171    478.564    740.199    478.564    478.564    478.564
 53.270    797.000    825.605    -28.605    478.499    825.606    478.499    478.499    478.499
 53.370    961.430    925.795     35.635    478.436    925.799    478.436    478.436    478.436
 53.470    985.000   1029.999    -44.999    478.375   1030.008    478.375    478.375    478.375
 53.570   1144.000   1119.354     24.646    478.316   1119.371    478.316    478.316    478.316
 53.670   1171.000   1170.000      1.000    478.258   1170.026    478.258    478.258    478.258
 53.770   1146.373   1164.805    -18.432    478.202   1164.841    478.202    478.202    478.202
 53.870   1112.459   1105.949      6.509    478.148   1105.990    478.148    478.148    478.148
 53.970   1023.000   1013.005      9.995    478.095   1013.046    478.095    478.095    478.095
 54.070    870.000    909.353    -39.353    478.044    909.389    478.044    478.044    478.044
 54.170    799.000    812.300    -13.300    477.995    812.330    477.995    477.995    477.995
 54.270    689.986    731.222    -41.236    477.948    731.245    477.948    477.948    477.948
 54.370    656.000    669.216    -13.216    477.902    669.233    477.902    477.902    477.902
 54.470    652.000    625.220     26.780    477.858    625.232    477.858    477.858    477.858
 54.570    592.000    595.964     -3.964    477.815    595.973    477.815    477.815    477.815
 54.670    620.324    577.563     42.761    477.775    577.569    477.775    477.775    477.775
 54.770    607.000    566.542     40.458    477.735    566.547    477.735    477.735    477.735
 54.870    606.000    560.299     45.701    477.698    560.303    477.698    477.698    477.698
 54.970    568.743    557.128     11.615    477.662    557.131    477.662    477.662    477.662
 55.070    596.000    556.028     39.972    477.628    556.031    477.628    477.628    477.628
 55.170    532.433    556.478    -24.045    477.596    556.481    477.596    477.596    477.596
 55.270    520.606    558.250    -37.644    477.565    558.253    477.565    477.565    477.565
 55.370    506.309    561.296    -54.987    477.535    561.298    477.535    477.535    477.535
 55.470    593.000    565.702     27.298    477.508    565.704    477.508    477.508    477.508
 55.570    519.000    571.700    -52.700    477.481    571.702    477.481    477.481    477.481
 55.670    619.226    579.752     39.474    477.457    579.754    477.457    477.457    477.457
 55.770    585.440    590.736     -5.296    477.434    590.737    477.434    477.434    477.434
 55.870    588.000    606.285    -18.285    477.412    606.284    477.412    477.412    477.412
 55.970    593.000    629.306    -36.306    477.393    629.303    477.393    477.393    477.393
 56.070    669.825    664.637      5.187    477.374    664.630    477.374    477.374    477.374
 56.170    687.000    719.616    -32.616    477.357    719.602    477.357    477.357    477.357
 56.270    785.000    804.056    -19.056    477.342    804.033    477.342    477.342    477.342
 56.370    799.000    929.166   -130.166    477.328    929.133    477.328    477.328    477.328
 56.470   1102.407   1104.869     -2.462    477.316   1104.830    477.316    477.316    477.316
 56.570   1250.000   1335.643    -85.643    477.305   1335.604    477.305    477.305    477.305
 56.670   1602.000   1615.530    -13.530    477.296   1615.505    477.296    477.296    477.296
 56.770   1942.000   1923.111     18.889    477.288   1923.117    477.288    477.288    477.288
 56.870   2230.000   2217.151     12.849    477.282   2217.211    477.282    477.282    477.282
 56.970   2421.000   2436.821    -15.821    477.277   2436.956    477.277    477.277    477.277
 57.070   2617.077   2518.564     98.513    477.274   2518.772    477.274    477.274    477.274
 57.170   2417.628   2434.020    -16.392    477.272   2434.276    477.272    477.272    477.272
 57.270   2285.000   2213.140     71.860    477.271   2213.406    477.271    477.271    477.271
 57.370   1885.946   1920.058    -34.112    477.272   1920.303    477.272    477.272    477.272
 57.470   1656.367   1615.291     41.076    477.275   1615.498    477.275    477.275    477.275
 57.570   1380.002   1339.529     40.473    477.278   1339.691    477.278    477.278    477.278
 57.670   1106.000   1113.789     -7.789    477.284   1113.909    477.284    477.284    477.284
 57.770    979.000    943.923     35.077    477.290    944.007    477.290    477.290    477.290
 57.870    805.634    825.756    -20.122    477.298    825.811    477.298    477.298    477.298
 57.970    726.000    750.192    -24.192    477.307    750.227    477.307    477.307    477.307
 58.070    799.000    707.475     91.525    477.318    707.494    477.318    477.318    477.318
 58.170    744.000    689.864     54.136    477.330    689.871    477.330    477.330    477.330
 58.270    729.000    692.584     36.416    477.343    692.581    477.343    477.343    477.343
 58.370    654.990    713.426    -58.437    477.357    713.415    477.357    477.357    477.357
 58.470    822.000    751.557     70.443    477.373    751.537    477.373    477.373    477.373
 58.570    777.560    806.027    -28.467    477.391    805.999    477.391    477.391    477.391
 58.670    920.583    874.271     46.312    477.409    874.238    477.409    477.409    477.409
 58.770    942.000    950.962     -8.962    477.429    950.928    477.429    477.429    477.429
 58.870   1062.000   1028.220     33.780    477.450   1028.191    477.450    477.450    477.450
 58.970   1058.936   1098.046    -39.110    477.472   1098.026    477.472    477.472    477.472
 59.070   1202.725   1154.519     48.206    477.496   1154.510    477.496    477.496    477.496
 59.170   1237.832   1192.650     45.182    477.520   1192.653    477.520    477.520    477.520
 59.270   1268.586   1207.394     61.192    477.546   1207.408    477.546    477.546    477.546
 59.370   1276.000   1197.709     78.291    477.574   1197.728    477.574    477.574    477.574
 59.470   1272.000   1171.032    100.968    477.602   1171.045    477.602    477.602    477.602
 59.570   1278.000   1140.627    137.373    477.632   1140.620    477.632    477.632    477.632
 59.670   1186.533   1119.090     67.443    477.662   1119.052    477.662    477.662    477.662
 59.770   1128.479   1115.242     13.237    477.694   1115.165    477.694    477.694    477.694
 59.870   1098.029   1135.114    -37.085    477.727   1134.995    477.727    477.727    477.727
 59.970   1198.297   1182.576     15.721    477.762   1182.414    477.762    477.762    477.762
 60.070   1314.000   1256.742     57.258    477.797   1256.540    477.797    477.797    477.797
 60.170   1417.000   1348.511     68.489    477.834   1348.277    477.834    477.834    477.834
 60.270   1499.018   1439.124     59.894    477.871   1438.876    477.871    477.871    477.871
 60.370   1546.789   1502.087     44.702    477.910   1501.847    477.910    477.910    477.910
 60.470   1594.028   1511.453     82.575    477.950   1511.242    477.950    477.950    477.950
 60.570   1490.000   1456.125     33.875    477.991   1455.956    477.991    477.991    477.991
 60.670   1274.496   1347.401    -72.905    478.033   1347.273    478.033    478.033    478.033
 60.770   1183.220   1210.031    -26.811    478.076   1209.940    478.076    478.076    478.076
 60.870   1059.000   1068.478     -9.478    478.120   1068.414    478.120    478.120    478.120
 60.970    928.000    940.340    -12.340    478.165    940.296    478.165    478.165    478.165
 61.070    849.000    835.721     13.279    478.211    835.689    478.211    478.211    478.211
 61.170    754.000    758.608     -4.608    478.258    758.582    478.258    478.258    478.258
 61.270    701.395    708.893     -7.498    478.306    708.868    478.306    478.306    478.306
 61.370    710.000    684.601     25.399    478.355    684.573    478.355    478.355    478.355
 61.470    669.000    683.793    -14.793    478.406    683.758    478.406    478.406    478.406
 61.570    731.000    705.637     25.363    478.457    705.591    478.457    478.457    478.457
 61.670    762.719    750.411     12.309    478.509    750.349    478.509    478.509    478.509
 61.770    742.000    818.519    -76.519    478.562    818.437    478.562    478.562    478.562
 61.870    903.000    908.890     -5.890    478.616    908.786    478.616    478.616    478.616
 61.970    961.000   1017.204    -56.204    478.670   1017.078    478.670    478.670    478.670
 62.070   1107.000   1134.303    -27.303    478.726   1134.158    478.726    478.726    478.726
 62.170   1142.000   1245.106   -103.106    478.783   1244.950    478.783    478.783    478.783
 62.270   1253.000   1329.145    -76.145    478.840   1328.992    478.840    478.840    478.840
 62.370   1287.000   1365.616    -78.616    478.898   1365.484    478.898    478.898    478.898
 62.470   1297.000   1343.622    -46.622    478.958   1343.523    478.958    478.958    478.958
 62.570   1288.693   1269.321     19.371    479.018   1269.258    479.018    479.018    479.018
 62.670   1140.000   1161.504    -21.504    479.079   1161.471    479.079    479.079    479.079
 62.770    952.000   1041.228    -89.228    479.140   1041.216    479.140    479.140    479.140
 62.870    915.000    925.130    -10.130    479.203    925.130    479.203    479.203    479.203
 62.970    804.224    823.729    -19.505    479.266    823.735    479.266    479.266    479.266
 63.070    659.000    742.003    -83.003    479.330    742.010    479.330    479.330    479.330
 63.170    686.000    680.631      5.369    479.395    680.636    479.395    479.395    479.395
 63.270    640.222    637.483      2.739    479.461    637.484    479.461    479.461    479.461
 63.370    606.000    609.104     -3.104    479.527    609.102    479.527    479.527    479.527
 63.470    588.571    591.940     -3.369    479.594    591.935    479.594    479.594    479.594
 63.570    567.163    583.136    -15.973    479.662    583.128    479.662    479.662    479.662
 63.670    571.976    580.909     -8.933    479.730    580.898    479.730    479.730    479.730
 63.770    590.299    584.600      5.698    479.800    584.585    479.800    479.800    479.800
 63.870    579.000    594.523    -15.523    479.869    594.502    479.869    479.869    479.869
 63.970    670.000    611.687     58.313    479.940    611.659    479.940    479.940    479.940
 64.070    660.000    637.412     22.588    480.011    637.374    480.011    480.011    480.011
 64.170    717.149    672.847     44.302    480.083    672.796    480.083    480.083    480.083
 64.270    664.796    718.394    -53.599    480.156    718.329    480.156    480.156    480.156
 64.370    812.000    773.105     38.895    480.229    773.024    480.229    480.229    480.229
 64.470    781.000    834.068    -53.068    480.302    833.971    480.302    480.302    480.302
 64.570    916.000    895.899     20.101    480.377    895.790    480.377    480.377    480.377
 64.670    978.000    950.727     27.273    480.452    950.611    480.452    480.452    480.452
 64.770    997.000    989.555      7.445    480.527    989.441    480.527    480.527    480.527
 64.870   1030.796   1005.376     25.420    480.603   1005.275    480.603    480.603    480.603
 64.970   1089.000    996.183     92.817    480.680    996.101    480.680    480.680    480.680
 65.070   1021.200    965.427     55.773    480.757    965.367    480.757    480.757    480.757
 65.170    976.000    920.106     55.894    480.834    920.069    480.834    480.834    480.834
 65.270    884.000    868.180     15.820    480.912    868.164    480.912    480.912    480.912
 65.370    788.112    816.355    -28.243    480.991    816.356    480.991    480.991    480.991
 65.470    814.900    768.851     46.049    481.070    768.866    481.070    481.070    481.070
 65.570    700.000    727.430    -27.430    481.150    727.453    481.150    481.150    481.150
 65.670    656.000    692.137    -36.137    481.230    692.164    481.230    481.230    481.230
 65.770    673.000    662.451     10.549    481.310    662.478    481.310    481.310    481.310
 65.870    615.000    637.929    -22.929    481.391    637.953    481.391    481.391    481.391
 65.970    628.000    618.234      9.766    481.472    618.253    481.472    481.472    481.472
 66.070    563.000    602.973    -39.973    481.554    602.988    481.554    481.554    481.554
 66.170    556.000    591.674    -35.674    481.636    591.685    481.636    481.636    481.636
 66.270    604.277    583.857     20.420    481.719    583.864    481.719    481.719    481.719
 66.370    559.000    579.099    -20.099    481.802    579.104    481.802    481.802    481.802
 66.470    572.000    577.067     -5.067    481.885    577.071    481.885    481.885    481.885
 66.570    584.000    577.548      6.452    481.968    577.551    481.968    481.968    481.968
 66.670    557.000    580.504    -23.504    482.052    580.508    482.052    482.052    482.052
 66.770    577.108    586.179     -9.072    482.136    586.183    482.136    482.136    482.136
 66.870    592.000    595.248     -3.248    482.221    595.252    482.221    482.221    482.221
 66.970    603.756    609.017     -5.261    482.306    609.022    482.306    482.306    482.306
 67.070    582.894    629.662    -46.769    482.391    629.667    482.391    482.391    482.391
 67.170    685.461    660.443     25.018    482.476    660.446    482.476    482.476    482.476
 67.270    627.000    705.807    -78.807    482.562    705.810    482.562    482.562    482.562
 67.370    800.053    771.239     28.814    482.647    771.241    482.647    482.647    482.647
 67.470    853.776    862.697     -8.921    482.733    862.699    482.733    482.733    482.733
 67.570    962.000    985.549    -23.549    482.820    985.556    482.820    482.820    482.820
 67.670   1035.000   1143.055   -108.055    482.906   1143.070    482.906    482.906    482.906
 67.770   1328.977   1334.554     -5.576    482.993   1334.584    482.993    482.993    482.993
 67.870   1511.000   1553.652    -42.652    483.079   1553.709    483.079    483.079    483.079
 67.970   1755.354   1786.606    -31.252    483.166   1786.699    483.166    483.166    483.166
 68.070   2080.233   2011.184     69.049    483.254   2011.327    483.254    483.254    483.254
 68.170   2131.000   2197.164    -66.164    483.341   2197.366    483.341    483.341    483.341
 68.270   2319.000   2311.257      7.743    483.428   2311.523    483.428    483.428    483.428
 68.370   2388.000   2328.444     59.556    483.516   2328.763    483.516    483.516    483.516
 68.470   2207.000   2244.521    -37.521    483.603   2244.872    483.603    483.603    483.603
 68.570   1982.282   2078.667    -96.385    483.691   2079.021    483.691    483.691    483.691
 68.670   1859.000   1863.133     -4.133    483.778   1863.465    483.778    483.778    483.778
 68.770   1609.000   1630.169    -21.169    483.866   1630.463    483.866    483.866    483.866
 68.870   1384.000   1404.863    -20.863    483.954   1405.111    483.954    483.954    483.954
 68.970   1195.609   1203.631     -8.022    484.042   1203.831    484.042    484.042    484.042
 69.070   1003.000   1035.081    -32.081    484.130   1035.236    484.130    484.130    484.130
 69.170    853.544    901.529    -47.985    484.218    901.645    484.218    484.218    484.218
 69.270    824.000    800.771     23.229    484.306    800.857    484.306    484.306    484.306
 69.370    727.000    727.917     -0.917    484.393    727.979    484.393    484.393    484.393
 69.470    716.000    677.030     38.970    484.481    677.074    484.481    484.481    484.481
 69.570    595.672    642.353    -46.680    484.569    642.385    484.569    484.569    484.569
 69.670    630.684    619.021     11.663    484.657    619.044    484.657    484.657    484.657
 69.770    584.000    603.327    -19.327    484.744    603.345    484.744    484.744    484.744
 69.870    624.000    592.671     31.329    484.832    592.684    484.832    484.832    484.832
 69.970    537.982    585.353    -47.370    484.919    585.363    484.919    484.919    484.919
 70.070    576.000    580.329     -4.329    485.007    580.338    485.007    485.007    485.007
 70.170    611.000    576.995     34.005    485.094    577.002    485.094    485.094    485.094
 70.270    593.000    575.031     17.969    485.181    575.036    485.181    485.181    485.181
 70.370    598.000    574.306     23.694    485.268    574.309    485.268    485.268    485.268
 70.470    571.000    574.836     -3.836    485.355    574.838    485.355    485.355    485.355
 70.570    571.567    576.793     -5.226    485.441    576.793    485.441    485.441    485.441
 70.670    562.882    580.548    -17.666    485.528    580.546    485.528    485.528    485.528
 70.770    613.247    586.754     26.493    485.614    586.750    485.614    485.614    485.614
 70.870    584.000    596.462    -12.462    485.700    596.454    485.700    485.700    485.700
 70.970    635.000    611.243     23.757    485.786    611.232    485.786    485.786    485.786
 71.070    619.773    633.298    -13.524    485.872    633.280    485.872    485.872    485.872
 71.170    609.519    665.467    -55.948    485.957    665.441    485.957    485.957    485.957
 71.270    729.231    711.109     18.122    486.042    711.071    486.042    486.042    486.042
 71.370    719.000    773.741    -54.741    486.127    773.689    486.127    486.127    486.127
 71.470    814.000    856.447    -42.447    486.211    856.377    486.211    486.211    486.211
 71.570    961.000    961.057     -0.057    486.296    960.966    486.296    486.296    486.296
 71.670   1066.000   1087.214    -21.214    486.380   1087.101    486.380    486.380    486.380
 71.770   1239.463   1231.449      8.014    486.463   1231.313    486.463    486.463    486.463
 71.870   1300.000   1386.354    -86.354    486.547   1386.198    486.547    486.547    486.547
 71.970   1487.782   1539.938    -52.156    486.629   1539.769    486.629    486.629    486.629
 72.070   1639.576   1675.507    -35.930    486.712   1675.335    486.712    486.712    486.712
 72.170   1730.000   1773.253    -43.253    486.794   1773.091    486.794    486.794    486.794
 72.270   1851.000   1815.163     35.837    486.876   1815.025    486.876    486.876    486.876
 72.370   1831.000   1792.399     38.601    486.958   1792.295    486.958    486.958    486.958
 72.470   1769.000   1709.841     59.159    487.039   1709.773    487.039    487.039    487.039
 72.570   1601.766   1583.409     18.358    487.119   1583.372    487.119    487.119    487.119
 72.670   1587.000   1432.920    154.080    487.199   1432.907    487.199    487.199    487.199
 72.770   1316.000   1276.252     39.748    487.279   1276.256    487.279    487.279    487.279
 72.870   1195.000   1126.874     68.126    487.358   1126.887    487.358    487.358    487.358
 72.970   1021.000    993.563     27.437    487.437    993.581    487.437    487.437    487.437
 73.070    941.984    880.939     61.045    487.516    880.957    487.516    487.516    487.516
 73.170    850.000    790.239     59.761    487.594    790.256    487.594    487.594    487.594
 73.270    725.951    720.235      5.716    487.671    720.248    487.671    487.671    487.671
 73.370    696.588    668.170     28.418    487.748    668.180    487.748    487.748    487.748
 73.470    655.096    630.625     24.471    487.824    630.632    487.824    487.824    487.824
 73.570    645.000    604.184     40.816    487.900    604.190    487.900    487.900    487.900
 73.670    606.000    585.863     20.137    487.975    585.868    487.975    487.975    487.975
 73.770    606.000    573.299     32.701    488.050    573.304    488.050    488.050    488.050
 73.870    630.000    564.770     65.230    488.124    564.776    488.124    488.124    488.124
 73.970    602.000    559.099     42.901    488.197    559.107    488.197    488.197    488.197
 74.070    599.000    555.521     43.479    488.270    555.532    488.270    488.270    488.270
 74.170    538.347    553.539    -15.193    488.343    553.554    488.343    488.343    488.343
 74.270    511.414    552.808    -41.394    488.415    552.827    488.415    488.415    488.415
 74.370    526.730    553.042    -26.312    488.486    553.066    488.486    488.486    488.486
 74.470    503.563    553.952    -50.389    488.556    553.982    488.556    488.556    488.556
 74.570    585.000    555.204     29.796    488.626    555.239    488.626    488.626    488.626
 74.670    647.000    556.400     90.600    488.695    556.440    488.695    488.695    488.695
 74.770    529.120    557.105    -27.985    488.764    557.148    488.764    488.764    488.764
 74.870    670.000    556.933    113.067    488.831    556.978    488.831    488.831    488.831
 74.970    631.000    555.685     75.315    488.898    555.730    488.898    488.898    488.898
 75.070    681.000    553.450    127.550    488.965    553.493    488.965    488.965    488.965
 75.170    572.000    550.573     21.427    489.030    550.611    489.030    489.030    489.030
 75.270    615.000    547.543     67.457    489.095    547.576    489.095    489.095    489.095
 75.370    620.000    544.884     75.116    489.160    544.910    489.160    489.160    489.160
 75.470    590.000    543.104     46.896    489.223    543.124    489.223    489.223    489.223
 75.570    522.734    542.688    -19.954    489.286    542.701    489.286    489.286    489.286
 75.670    581.111    544.102     37.009    489.348    544.109    489.348    489.348    489.348
 75.770    564.000    547.786     16.214    489.409    547.786    489.409    489.409    489.409
 75.870    509.540    554.126    -44.586    489.469    554.119    489.469    489.469    489.469
 75.970    567.000    563.411      3.589    489.529    563.397    489.529    489.529    489.529
 76.070    559.000    575.765    -16.765    489.588    575.744    489.588    489.588    489.588
 76.170    608.000    591.070     16.930    489.645    591.041    489.645    489.645    489.645
 76.270    626.000    608.888     17.112    489.703    608.851    489.703    489.703    489.703
 76.370    626.346    628.385     -2.039    489.759    628.341    489.759    489.759    489.759
 76.470    682.000    648.275     33.725    489.814    648.224    489.814    489.814    489.814
 76.570    674.000    666.793      7.207    489.869    666.737    489.869    489.869    489.869
 76.670    710.000    681.779     28.221    489.922    681.720    489.922    489.922    489.922
 76.770    721.000    691.012     29.988    489.975    690.954    489.975    489.975    489.975
 76.870    660.000    692.841    -32.841    490.027    692.786    490.027    490.027    490.027
 76.970    715.000    686.847     28.153    490.078    686.797    490.078    490.078    490.078
 77.070    630.820    674.044    -43.224    490.128    674.000    490.128    490.128    490.128
 77.170    635.000    656.419    -21.419    490.177    656.383    490.177    490.177    490.177
 77.270    610.229    636.215    -25.986    490.225    636.185    490.225    490.225    490.225
 77.370    594.000    615.409    -21.409    490.272    615.385    490.272    490.272    490.272
 77.470    591.000    595.508     -4.508    490.319    595.490    490.319    490.319    490.319
 77.570    551.000    577.530    -26.530    490.364    577.517    490.364    490.364    490.364
 77.670    584.420    562.052     22.368    490.408    562.042    490.408    490.408    490.408
 77.770    567.000    549.280     17.720    490.452    549.273    490.452    490.452    490.452
 77.870    491.000    539.138    -48.138    490.494    539.132    490.494    490.494    490.494
 77.970    531.000    531.354     -0.354    490.535    531.350    490.535    490.535    490.535
 78.070    525.002    525.555     -0.553    490.576    525.552    490.576    490.576    490.576
 78.170    529.000    521.337      7.663    490.615    521.335    490.615    490.615    490.615
 78.270    544.000    518.323     25.677    490.653    518.321    490.653    490.653    490.653
 78.370    551.000    516.197     34.803    490.691    516.195    490.691    490.691    490.691
 78.470    492.995    514.705    -21.710    490.727    514.704    490.727    490.727    490.727
 78.570    509.000    513.661     -4.661    490.762    513.660    490.762    490.762    490.762
 78.670    533.000    512.938     20.062    490.796    512.937    490.796    490.796    490.796
 78.770    545.240    512.455     32.785    490.829    512.454    490.829    490.829    490.829
 78.870    546.700    512.163     34.536    490.861    512.163    490.861    490.861    490.861
 78.970    497.238    512.040    -14.802    490.892    512.040    490.892    490.892    490.892
 79.070    510.000    512.081     -2.081    490.921    512.080    490.921    490.921    490.921
 79.170    548.201    512.292     35.909    490.950    512.291    490.950    490.950    490.950
 79.270    487.000    512.693    -25.693    490.977    512.692    490.977    490.977    490.977
 79.370    542.718    513.310     29.409    491.004    513.309    491.004    491.004    491.004
 79.470    542.037    514.178     27.859    491.029    514.177    491.029    491.029    491.029
 79.570    508.000    515.345     -7.345    491.053    515.344    491.053    491.053    491.053
 79.670    482.000    516.871    -34.871    491.076    516.869    491.076    491.076    491.076
 79.770    532.000    518.834     13.166    491.098    518.831    491.098    491.098    491.098
 79.870    571.000    521.341     49.659    491.118    521.338    491.118    491.118    491.118
 79.970    529.000    524.533      4.467    491.137    524.529    491.137    491.137    491.137
 80.070    539.000    528.586     10.414    491.156    528.582    491.156    491.156    491.156
 80.170    541.094    533.718      7.376    491.173    533.714    491.173    491.173    491.173
 80.270    530.000    540.185    -10.185    491.188    540.181    491.188    491.188    491.188
 80.370    545.000    548.279     -3.279    491.203    548.276    491.203    491.203    491.203
 80.470    603.815    558.316     45.499    491.216    558.315    491.216    491.216    491.216
 80.570    585.000    570.596     14.404    491.229    570.598    491.229    491.229    491.229
 80.670    568.000    585.331    -17.331    491.239    585.336    491.239    491.239    491.239
 80.770    570.749    602.548    -31.799    491.249    602.557    491.249    491.249    491.249
 80.870    664.614    622.006     42.608    491.258    622.020    491.258    491.258    491.258
 80.970    590.148    643.140    -52.992    491.265    643.159    491.265    491.265    491.265
 81.070    637.000    665.045    -28.045    491.271    665.070    491.271    491.271    491.271
 81.170    617.000    686.550    -69.550    491.275    686.582    491.275    491.275    491.275
 81.270    686.000    706.376    -20.376    491.279    706.415    491.279    491.279    491.279
 81.370    701.202    723.327    -22.125    491.281    723.373    491.281    491.281    491.281
 81.470    722.132    736.433    -14.301    491.282    736.486    491.282    491.282    491.282
 81.570    726.000    745.022    -19.022    491.281    745.080    491.281    491.281    491.281
 81.670    732.000    748.774    -16.774    491.279    748.837    491.279    491.279    491.279
 81.770    802.000    747.733     54.267    491.276    747.801    491.276    491.276    491.276
 81.870    789.079    742.221     46.858    491.272    742.292    491.272    491.272    491.272
 81.970    754.000    732.730     21.270    491.266    732.803    491.266    491.266    491.266
 82.070    734.021    719.911     14.111    491.259    719.985    491.259    491.259    491.259
 82.170    761.495    704.605     56.890    491.250    704.679    491.250    491.250    491.250
 82.270    698.000    687.777     10.223    491.241    687.849    491.241    491.241    491.241
 82.370    723.396    670.332     53.063    491.229    670.401    491.229    491.229    491.229
 82.470    652.000    652.953     -0.953    491.217    653.018    491.217    491.217    491.217
 82.570    625.000    636.065    -11.065    491.203    636.125    491.203    491.203    491.203
 82.670    606.089    619.942    -13.853    491.188    619.997    491.188    491.188    491.188
 82.770    570.000    604.835    -34.835    491.171    604.884    491.171    491.171    491.171
 82.870    566.628    591.034    -24.406    491.153    591.076    491.153    491.153    491.153
 82.970    591.404    578.847     12.556    491.134    578.882    491.134    491.134    491.134
 83.070    581.102    568.542     12.560    491.113    568.569    491.113    491.113    491.113
 83.170    540.000    560.308    -20.308    491.091    560.327    491.091    491.091    491.091
 83.270    512.000    554.245    -42.245    491.068    554.256    491.068    491.068    491.068
 83.370    532.000    550.359    -18.359    491.043    550.362    491.043    491.043    491.043
 83.470    515.000    548.568    -33.568    491.017    548.563    491.017    491.017    491.017
 83.570    536.000    548.692    -12.692    490.989    548.679    490.989    490.989    490.989
 83.670    569.223    550.449     18.774    490.960    550.428    490.960    490.960    490.960
 83.770    527.000    553.430    -26.430    490.929    553.401    490.929    490.929    490.929
 83.870    540.623    557.269    -16.647    490.897    557.234    490.897    490.897    490.897
 83.970    545.309    561.374    -16.065    490.864    561.333    490.864    490.864    490.864
 84.070    565.198    565.126      0.072    490.829    565.081    490.829    490.829    490.829
 84.170    531.000    567.900    -36.900    490.793    567.852    490.793    490.793    490.793
 84.270    548.000    569.152    -21.152    490.755    569.103    490.755    490.755    490.755
 84.370    556.000    568.543    -12.543    490.716    568.495    490.716    490.716    490.716
 84.470    567.000    566.031      0.969    490.675    565.986    490.675    490.675    490.675
 84.570    552.583    561.866     -9.283    490.633    561.825    490.633    490.633    490.633
 84.670    516.911    556.490    -39.578    490.589    556.454    490.589    490.589    490.589
 84.770    556.000    550.408      5.592    490.544    550.377    490.544    490.544    490.544
 84.870    518.000    544.094    -26.094    490.498    544.067    490.498    490.498    490.498
 84.970    571.000    537.939     33.061    490.450    537.917    490.450    490.450    490.450
 85.070    541.000    532.237      8.763    490.400    532.220    490.400    490.400    490.400
 85.170    504.000    527.189    -23.189    490.349    527.174    490.349    490.349    490.349
 85.270    540.108    522.902     17.206    490.297    522.890    490.297    490.297    490.297
 85.370    547.623    519.411     28.212    490.243    519.401    490.243    490.243    490.243
 85.470    505.867    516.694    -10.827    490.188    516.685    490.188    490.188    490.188
 85.570    520.000    514.691      5.309    490.131    514.683    490.131    490.131    490.131
 85.670    495.000    513.325    -18.325    490.072    513.318    490.072    490.072    490.072
 85.770    476.039    512.519    -36.480    490.013    512.512    490.013    490.013    490.013
 85.870    539.154    512.211     26.942    489.951    512.204    489.951    489.951    489.951
 85.970    519.000    512.362      6.638    489.888    512.354    489.888    489.888    489.888
 86.070    492.000    512.960    -20.960    489.824    512.951    489.824    489.824    489.824
 86.170    538.000    514.034     23.966    489.758    514.023    489.758    489.758    489.758
 86.270    513.000    515.637     -2.637    489.691    515.623    489.691    489.691    489.691
 86.370    502.000    517.848    -15.848    489.622    517.832    489.622    489.622    489.622
 86.470    552.000    520.772     31.228    489.551    520.752    489.551    489.551    489.551
 86.570    486.620    524.520    -37.900    489.480    524.495    489.480    489.480    489.480
 86.670    561.147    529.202     31.946    489.406    529.171    489.406    489.406    489.406
 86.770    545.909    534.906     11.003    489.331    534.869    489.331    489.331    489.331
 86.870    506.512    541.684    -35.172    489.255    541.639    489.255    489.255    489.255
 86.970    519.768    549.521    -29.753    489.177    549.468    489.177    489.177    489.177
 87.070    519.000    558.321    -39.321    489.097    558.258    489.097    489.097    489.097
 87.170    602.000    567.877     34.123    489.016    567.804    489.016    489.016    489.016
 87.270    626.686    577.860     48.826    488.934    577.776    488.934    488.934    488.934
 87.370    614.000    587.806     26.194    488.850    587.713    488.850    488.850    488.850
 87.470    615.547    597.119     18.428    488.764    597.018    488.764    488.764    488.764
 87.570    584.000    605.106    -21.106    488.677    604.999    488.677    488.677    488.677
 87.670    617.000    611.057      5.943    488.588    610.948    488.588    488.588    488.588
 87.770    631.871    614.396     17.475    488.498    614.288    488.498    488.498    488.498
 87.870    612.000    614.840     -2.840    488.406    614.736    488.406    488.406    488.406
 87.970    563.999    612.489    -48.490    488.313    612.393    488.313    488.313    488.313
 88.070    592.000    607.796    -15.796    488.219    607.710    488.219    488.219    488.219
 88.170    573.000    601.433    -28.433    488.122    601.359    488.122    488.122    488.122
 88.270    549.093    594.155    -45.063    488.025    594.094    488.025    488.025    488.025
 88.370    625.079    586.703     38.376    487.925    586.654    487.925    487.925    487.925
 88.470    536.000    579.744    -43.744    487.824    579.707    487.824    487.824    487.824
 88.570    582.501    573.837      8.665    487.722    573.811    487.722    487.722    487.722
 88.670    616.000    569.404     46.596    487.618    569.389    487.618    487.618    487.618
 88.770    575.000    566.717      8.283    487.513    566.711    487.513    487.513    487.513
 88.870    541.000    565.885    -24.885    487.406    565.889    487.406    487.406    487.406
 88.970    561.687    566.863     -5.176    487.298    566.876    487.298    487.298    487.298
 89.070    593.140    569.454     23.686    487.188    569.475    487.188    487.188    487.188
 89.170    535.092    573.321    -38.228    487.076    573.350    487.076    487.076    487.076
 89.270    546.881    578.007    -31.126    486.963    578.044    486.963    486.963    486.963
 89.370    570.000    582.950    -12.950    486.849    582.995    486.849    486.849    486.849
 89.470    638.000    587.517     50.483    486.733    587.568    486.733    486.733    486.733
 89.570    569.024    591.050    -22.027    486.615    591.108    486.615    486.615    486.615
 89.670    583.000    592.964     -9.964    486.496    593.026    486.496    486.496    486.496
 89.770    582.000    592.852    -10.852    486.376    592.916    486.376    486.376    486.376
 89.870    587.000    590.583     -3.583    486.254    590.648    486.254    486.254    486.254
 89.970    561.000    586.322    -25.322    486.130    586.385    486.130    486.130    486.130
 90.070    568.000    580.459    -12.459    486.005    580.519    486.005    486.005    486.005
 90.170    558.000    573.499    -15.499    485.879    573.554    485.879    485.879    485.879
 90.270    541.000    565.955    -24.955    485.751    566.004    485.751    485.751    485.751
 90.370    513.299    558.287    -44.987    485.621    558.330    485.621    485.621    485.621
 90.470    526.000    550.872    -24.872    485.491    550.909    485.491    485.491    485.491
 90.570    519.475    543.997    -24.522    485.358    544.028    485.358    485.358    485.358
 90.670    545.672    537.860      7.812    485.224    537.885    485.224    485.224    485.224
 90.770    507.000    532.577    -25.577    485.089    532.597    485.089    485.089    485.089
 90.870    539.000    528.194     10.806    484.952    528.210    484.952    484.952    484.952
 90.970    482.000    524.703    -42.703    484.814    524.715    484.814    484.814    484.814
 91.070    510.000    522.056    -12.056    484.674    522.064    484.674    484.674    484.674
 91.170    482.692    520.184    -37.493    484.533    520.190    484.533    484.533    484.533
 91.270    489.000    519.014    -30.014    484.390    519.018    484.390    484.390    484.390
 91.370    514.000    518.481     -4.481    484.246    518.482    484.246    484.246    484.246
 91.470    462.000    518.540    -56.540    484.101    518.540    484.101    484.101    484.101
 91.570    494.696    519.175    -24.479    483.954    519.173    483.954    483.954    483.954
 91.670    523.000    520.404      2.596    483.805    520.400    483.805    483.805    483.805
 91.770    480.399    522.278    -41.879    483.655    522.273    483.655    483.655    483.655
 91.870    507.000    524.885    -17.885    483.504    524.878    483.504    483.504    483.504
 91.970    539.641    528.343     11.299    483.351    528.333    483.351    483.351    483.351
 92.070    528.775    532.793     -4.018    483.197    532.781    483.197    483.197    483.197
 92.170    526.263    538.394    -12.131    483.042    538.379    483.042    483.042    483.042
 92.270    516.971    545.305    -28.334    482.885    545.286    482.885    482.885    482.885
 92.370    503.060    553.675    -50.615    482.727    553.652    482.727    482.727    482.727
 92.470    538.000    563.624    -25.624    482.567    563.596    482.567    482.567    482.567
 92.570    593.000    575.228     17.772    482.406    575.194    482.406    482.406    482.406
 92.670    573.000    588.498    -15.498    482.243    588.459    482.243    482.243    482.243
 92.770    575.000    603.370    -28.370    482.080    603.324    482.080    482.080    482.080
 92.870    626.362    619.685      6.677    481.915    619.633    481.915    481.915    481.915
 92.970    620.000    637.180    -17.180    481.748    637.122    481.748    481.748    481.748
 93.070    625.000    655.478    -30.478    481.580    655.415    481.580    481.580    481.580
 93.170    660.000    674.095    -14.095    481.411    674.028    481.411    481.411    481.411
 93.270    640.099    692.478    -52.379    481.240    692.406    481.240    481.240    481.240
 93.370    721.000    710.077     10.923    481.069    710.003    481.069    481.069    481.069
 93.470    688.930    726.465    -37.535    480.895    726.389    480.895    480.895    480.895
 93.570    709.917    741.435    -31.517    480.721    741.359    480.721    480.721    480.721
 93.670    747.000    755.041     -8.041    480.545    754.966    480.545    480.545    480.545
 93.770    770.020    767.532      2.487    480.368    767.458    480.368    480.368    480.368
 93.870    757.000    779.222    -22.222    480.190    779.149    480.190    480.190    480.190
 93.970    735.968    790.372    -54.404    480.010    790.301    480.010    480.010    480.010
 94.070    863.694    801.142     62.552    479.829    801.074    479.829    479.829    479.829
 94.170    855.000    811.612     43.388    479.647    811.546    479.647    479.647    479.647
 94.270    808.000    821.854    -13.854    479.464    821.791    479.464    479.464    479.464
 94.370    806.428    831.980    -25.552    479.279    831.920    479.279    479.279    479.279
 94.470    824.000    842.117    -18.117    479.093    842.060    479.093    479.093    479.093
 94.570    864.000    852.300     11.700    478.906    852.247    478.906    478.906    478.906
 94.670    876.000    862.352     13.648    478.718    862.303    478.718    478.718    478.718
 94.770    901.000    871.783     29.217    478.528    871.739    478.528    478.528    478.528
 94.870    908.285    879.810     28.475    478.338    879.772    478.338    478.338    478.338
 94.970    925.863    885.383     40.480    478.146    885.351    478.146    478.146    478.146
 95.070    895.483    887.330      8.153    477.953    887.306    477.953    477.953    477.953
 95.170    946.000    884.632     61.368    477.759    884.615    477.759    477.759    477.759
 95.270    904.000    876.684     27.316    477.563    876.676    477.563    477.563    477.563
 95.370    920.000    863.508     56.492    477.367    863.507    477.367    477.367    477.367
 95.470    840.000    845.790     -5.790    477.169    845.795    477.169    477.169    477.169
 95.570    862.000    824.753     37.247    476.970    824.763    476.970    476.970    476.970
 95.670    837.000    801.930     35.070    476.771    801.942    476.771    476.771    476.771
 95.770    786.000    778.957      7.043    476.570    778.971    476.570    476.570    476.570
 95.870    748.924    757.437     -8.513    476.368    757.450    476.368    476.368    476.368
 95.970    749.000    738.861     10.139    476.164    738.872    476.164    476.164    476.164
 96.070    726.635    724.574      2.061    475.960    724.582    475.960    475.960    475.960
 96.170    660.916    715.761    -54.845    475.755    715.764    475.755    475.755    475.755
 96.270    752.498    713.431     39.067    475.549    713.429    475.549    475.549    475.549
 96.370    680.000    718.412    -38.412    475.342    718.403    475.342    475.342    475.342
 96.470    694.000    731.339    -37.339    475.133    731.323    475.133    475.133    475.133
 96.570    698.000    752.636    -54.636    474.924    752.612    474.924    474.924    474.924
 96.670    795.000    782.503     12.497    474.714    782.471    474.714    474.714    474.714
 96.770    832.000    820.878     11.122    474.503    820.839    474.503    474.503    474.503
 96.870    927.000    867.404     59.596    474.291    867.357    474.291    474.291    474.291
 96.970    943.000    921.378     21.622    474.078    921.325    474.078    474.078    474.078
 97.070    953.000    981.705    -28.705    473.864    981.646    473.864    473.864    473.864
 97.170   1049.000   1046.849      2.151    473.649   1046.786    473.649    473.649    473.649
 97.270   1058.000   1114.793    -56.793    473.433   1114.728    473.433    473.433    473.433
 97.370   1172.000   1183.038    -11.038    473.216   1182.973    473.216    473.216    473.216
 97.470   1187.146   1248.591    -61.445    472.999   1248.530    472.999    472.999    472.999
 97.570   1255.622   1308.059    -52.437    472.780   1308.005    472.780    472.780    472.780
 97.670   1394.931   1357.867     37.064    472.561   1357.823    472.561    472.561    472.561
 97.770   1349.000   1394.639    -45.639    472.341   1394.610    472.341    472.341    472.341
 97.870   1370.584   1415.730    -45.146    472.120   1415.717    472.120    472.120    472.120
 97.970   1463.000   1419.740     43.260    471.898   1419.745    471.898    471.898    471.898
 98.070   1485.000   1406.806     78.194    471.676   1406.829    471.676    471.676    471.676
 98.170   1368.373   1378.528    -10.156    471.452   1378.568    471.452    471.452    471.452
 98.270   1360.000   1337.591     22.409    471.228   1337.644    471.228    471.228    471.228
 98.370   1329.283   1287.272     42.010    471.004   1287.336    471.004    471.004    471.004
 98.470   1309.777   1231.020     78.758    470.778   1231.089    470.778    470.778    470.778
 98.570   1149.000   1172.163    -23.163    470.552   1172.235    470.552    470.552    470.552
 98.670   1171.849   1113.750     58.099    470.325   1113.821    470.325    470.325    470.325
 98.770   1030.000   1058.466    -28.466    470.098   1058.535    470.098    470.098    470.098
 98.870    988.000   1008.575    -20.575    469.870   1008.638    469.870    469.870    469.870
 98.970    942.000    966.162    -24.162    469.641    966.219    469.641    469.641    469.641
 99.070    856.000    932.786    -76.786    469.412    932.835    469.412    469.412    469.412
 99.170    857.331    909.734    -52.403    469.182    909.775    469.182    469.182    469.182
 99.270    907.000    897.993      9.007    468.951    898.026    468.951    468.951    468.951
 99.370    918.000    898.247     19.753    468.720    898.274    468.720    468.720    468.720
 99.470    884.967    910.920    -25.953    468.488    910.940    468.488    468.488    468.488
 99.570    967.000    936.135     30.865    468.256    936.151    468.256    468.256    468.256
 99.670    944.000    973.736    -29.736    468.024    973.749    468.024    468.024    468.024
 99.770   1049.000   1023.277     25.723    467.790   1023.290    467.790    467.790    467.790
 99.870   1066.000   1083.997    -17.997    467.557   1084.012    467.557    467.557    467.557
 99.970   1213.115   1154.779     58.336    467.323   1154.799    467.323    467.323    467.323
100.070   1201.000   1234.112    -33.112    467.088   1234.139    467.088    467.088    467.088
100.170   1259.993   1320.046    -60.053    466.853   1320.084    466.853    466.853    466.853
100.270   1372.000   1410.171    -38.171    466.618   1410.224    466.618    466.618    466.618
100.370   1565.202   1501.639     63.563    466.382   1501.709    466.382    466.382    466.382
100.470   1564.000   1591.264    -27.264    466.146   1591.355    466.146    466.146    466.146
100.570   1735.000   1675.739     59.261    465.910   1675.853    465.910    465.910    465.910
100.670   1740.000   1751.929    -11.929    465.674   1752.067    465.674    465.674    465.674
100.770   1892.175   1817.166     75.009    465.437   1817.329    465.437    465.437    465.437
100.870   1962.461   1869.423     93.038    465.199   1869.611    465.199    465.199    465.199
100.970   1917.000   1907.295      9.705    464.962   1907.504    464.962    464.962    464.962
101.070   1959.000   1929.836     29.164    464.724   1930.065    464.724    464.724    464.724
101.170   1966.000   1936.424     29.576    464.487   1936.669    464.487    464.487    464.487
101.270   1984.153   1926.772     57.380    464.249   1927.029    464.249    464.249    464.249
101.370   1871.000   1901.143    -30.143    464.010   1901.407    464.010    464.010    464.010
101.470   1906.000   1860.632     45.368    463.772   1860.900    463.772    463.772    463.772
101.570   1812.000   1807.337      4.663    463.534   1807.604    463.534    463.534    463.534
101.670   1804.000   1744.262     59.738    463.295   1744.522    463.295    463.295    463.295
101.770   1721.000   1674.971     46.029    463.057   1675.222    463.057    463.057    463.057
101.870   1602.000   1603.136     -1.136    462.818   1603.374    462.818    462.818    462.818
101.970   1624.000   1532.112     91.888    462.580   1532.335    462.580    462.580    462.580
102.070   1431.000   1464.661    -33.661    462.341   1464.869    462.341    462.341    462.341
102.170   1418.000   1402.814     15.186    462.102   1403.006    462.102    462.102    462.102
102.270   1411.000   1347.836     63.164    461.864   1348.013    461.864    461.864    461.864
102.370   1243.000   1300.242    -57.242    461.625   1300.406    461.625    461.625    461.625
102.470   1332.435   1259.850     72.585    461.387   1260.002    461.387    461.387    461.387
102.570   1273.000   1225.926     47.074    461.149   1226.068    461.149    461.149    461.149
102.670   1161.000   1197.145    -36.145    460.911   1197.279    460.911    460.911    460.911
102.770   1232.126   1171.816     60.310    460.673   1171.945    460.673    460.673    460.673
102.870   1195.087   1148.053     47.034    460.435   1148.177    460.435    460.435    460.435
102.970   1061.980   1124.011    -62.031    460.198   1124.133    460.198    460.198    460.198
103.070   1158.122   1098.150     59.971    459.961   1098.270    459.961    459.961    459.961
103.170   1095.000   1069.449     25.551    459.724   1069.566    459.724    459.724    459.724
103.270   1100.735   1037.502     63.233    459.487   1037.617    459.487    459.487    459.487
103.370   1011.000   1002.483      8.517    459.251   1002.594    459.251    459.251    459.251
103.470    917.959    964.992    -47.033    459.015    965.098    459.015    459.015    459.015
103.570    927.420    925.873      1.547    458.779    925.973    458.779    458.779    458.779
103.670    882.000    886.054     -4.054    458.544    886.148    458.544    458.544    458.544
103.770    900.000    846.439     53.561    458.310    846.526    458.310    458.310    458.310
103.870    858.880    807.845     51.034    458.075    807.924    458.075    458.075    458.075
103.970    788.000    770.971     17.029    457.842    771.042    457.842    457.842    457.842
104.070    779.000    736.381     42.619    457.609    736.444    457.609    457.609    457.609
104.170    730.000    704.502     25.498    457.376    704.558    457.376    457.376    457.376
104.270    691.509    675.619     15.889    457.144    675.668    457.144    457.144    457.144
104.370    628.724    649.883    -21.159    456.912    649.925    456.912    456.912    456.912
104.470    627.000    627.317     -0.317    456.682    627.353    456.682    456.682    456.682
104.570    626.179    607.858     18.321    456.451    607.888    456.451    456.451    456.451
104.670    570.000    591.340    -21.340    456.222    591.366    456.222    456.222    456.222
104.770    632.000    577.546     54.454    455.993    577.567    455.993    455.993    455.993
104.870    594.000    566.221     27.779    455.765    566.238    455.765    455.765    455.765
104.970    547.217    557.097     -9.880    455.538    557.111    455.538    455.538    455.538
105.070    544.000    549.912     -5.912    455.312    549.922    455.312    455.312    455.312
105.170    568.000    544.421     23.579    455.086    544.429    455.086    455.086    455.086
105.270    513.000    540.412    -27.412    454.861    540.417    454.861    454.861    454.861
105.370    576.000    537.705     38.295    454.638    537.708    454.638    454.638    454.638
105.470    577.000    536.162     40.838    454.415    536.163    454.415    454.415    454.415
105.570    587.000    535.682     51.318    454.193    535.681    454.193    454.193    454.193
105.670    558.000    536.201     21.799    453.972    536.198    453.972    453.972    453.972
105.770    546.000    537.686      8.314    453.752    537.681    453.752    453.752    453.752
105.870    527.208    540.130    -12.922    453.534    540.123    453.534    453.534    453.534
105.970    567.000    543.548     23.452    453.316    543.539    453.316    453.316    453.316
106.070    526.000    547.967    -21.967    453.099    547.955    453.099    453.099    453.099
106.170    534.000    553.418    -19.418    452.884    553.404    452.884    452.884    452.884
106.270    577.000    559.929     17.071    452.670    559.912    452.670    452.670    452.670
106.370    525.811    567.513    -41.702    452.457    567.493    452.457    452.457    452.457
106.470    565.210    576.155    -10.945    452.245    576.132    452.245    452.245    452.245
106.570    563.576    585.789    -22.213    452.035    585.763    452.035    452.035    452.035
106.670    585.748    596.368    -10.620    451.826    596.339    451.826    451.826    451.826
106.770    657.170    607.748     49.422    451.618    607.715    451.618    451.618    451.618
106.870    574.000    619.738    -45.738    451.412    619.703    451.412    451.412    451.412
106.970    639.000    632.107      6.893    451.207    632.069    451.207    451.207    451.207
107.070    643.000    644.570     -1.570    451.003    644.530    451.003    451.003    451.003
107.170    650.000    656.801     -6.801    450.802    656.759    450.802    450.802    450.802
107.270    639.000    668.436    -29.436    450.601    668.393    450.601    450.601    450.601
107.370    650.000    679.096    -29.096    450.402    679.053    450.402    450.402    450.402
107.470    610.000    688.413    -78.413    450.205    688.371    450.205    450.205    450.205
107.570    661.000    696.077    -35.077    450.010    696.037    450.010    450.010    450.010
107.670    657.000    701.882    -44.882    449.816    701.844    449.816    449.816    449.816
107.770    678.000    705.764    -27.764    449.624    705.729    449.624    449.624    449.624
107.870    710.000    707.823      2.177    449.433    707.792    449.433    449.433    449.433
107.970    729.874    708.307     21.567    449.245    708.280    449.245    449.245    449.245
108.070    673.000    707.573    -34.573    449.058    707.551    449.058    449.058    449.058
108.170    682.000    706.029    -24.029    448.873    706.011    448.873    448.873    448.873
108.270    659.000    704.082    -45.082    448.690    704.068    448.690    448.690    448.690
108.370    658.000    702.095    -44.095    448.509    702.086    448.509    448.509    448.509
108.470    668.000    700.358    -32.358    448.330    700.353    448.330    448.330    448.330
108.570    644.000    699.068    -55.068    448.153    699.067    448.153    448.153    448.153
108.670    669.275    698.326    -29.050    447.978    698.328    447.978    447.978    447.978
108.770    686.000    698.127    -12.127    447.805    698.133    447.805    447.805    447.805
108.870    685.000    698.367    -13.367    447.634    698.377    447.634    447.634    447.634
108.970    675.000    698.848    -23.848    447.465    698.861    447.465    447.465    447.465
109.070    653.688    699.287    -45.599    447.299    699.303    447.299    447.299    447.299
109.170    659.105    699.343    -40.238    447.135    699.363    447.135    447.135    447.135
109.270    681.000    698.648    -17.648    446.973    698.670    446.973    446.973    446.973
109.370    680.000    696.851    -16.851    446.813    696.876    446.813    446.813    446.813
109.470    681.976    693.668    -11.692    446.656    693.695    446.656    446.656    446.656
109.570    644.000    688.925    -44.925    446.501    688.953    446.501    446.501    446.501
109.670    669.000    682.581    -13.581    446.349    682.611    446.349    446.349    446.349
109.770    701.000    674.731     26.269    446.199    674.761    446.199    446.199    446.199
109.870    657.000    665.578     -8.578    446.052    665.607    446.052    446.052    446.052
109.970    633.000    655.399    -22.399    445.907    655.428    445.907    445.907    445.907
110.070    674.000    644.507     29.493    445.765    644.536    445.765    445.765    445.765
110.170    651.000    633.219     17.781    445.626    633.246    445.626    445.626    445.626
110.270    615.000    621.833     -6.833    445.489    621.858    445.489    445.489    445.489
110.370    621.000    610.619     10.381    445.356    610.642    445.356    445.356    445.356
110.470    591.155    599.809     -8.654    445.224    599.830    445.224    445.224    445.224
110.570    605.135    589.597     15.537    445.096    589.616    445.096    445.096    445.096
110.670    593.000    580.139     12.861    444.971    580.155    444.971    444.971    444.971
110.770    606.000    571.548     34.452    444.848    571.562    444.848    444.848    444.848
110.870    615.955    563.902     52.053    444.729    563.914    444.729    444.729    444.729
110.970    630.000    557.243     72.757    444.612    557.253    444.612    444.612    444.612
111.070    557.836    551.582      6.254    444.499    551.590    444.499    444.499    444.499
111.170    578.312    546.901     31.412    444.389    546.907    444.389    444.389    444.389
111.270    555.000    543.161     11.839    444.282    543.165    444.282    444.282    444.282
111.370    527.089    540.305    -13.216    444.178    540.308    444.178    444.178    444.178
111.470    570.087    538.266     31.821    444.077    538.267    444.077    444.077    444.077
111.570    490.113    536.966    -46.853    443.980    536.966    443.980    443.980    443.980
111.670    497.000    536.329    -39.329    443.886    536.327    443.886    443.886    443.886
111.770    548.000    536.273     11.727    443.795    536.270    443.795    443.795    443.795
111.870    561.000    536.726     24.274    443.708    536.723    443.708    443.708    443.708
111.970    547.000    537.624      9.376    443.624    537.620    443.624    443.624    443.624
112.070    546.000    538.904      7.096    443.544    538.899    443.544    443.544    443.544
112.170    590.000    540.516     49.484    443.467    540.511    443.467    443.467    443.467
112.270    574.000    542.420     31.580    443.394    542.414    443.394    443.394    443.394
112.370    551.214    544.587      6.627    443.325    544.580    443.325    443.325    443.325
112.470    521.850    546.994    -25.144    443.259    546.987    443.259    443.259    443.259
112.570    548.000    549.650     -1.650    443.197    549.643    443.197    443.197    443.197
112.670    570.000    552.568     17.432    443.139    552.561    443.139    443.139    443.139
112.770    572.000    555.768     16.232    443.085    555.761    443.085    443.085    443.085
112.870    511.729    559.287    -47.558    443.035    559.279    443.035    443.035    443.035
112.970    586.000    563.177     22.823    442.988    563.169    442.988    442.988    442.988
113.070    596.277    567.507     28.770    442.946    567.499    442.946    442.946    442.946
113.170    567.000    572.367     -5.367    442.908    572.359    442.908    442.908    442.908
113.270    565.000    577.871    -12.871    442.874    577.862    442.874    442.874    442.874
113.370    597.000    584.166     12.834    442.844    584.156    442.844    442.844    442.844
113.470    616.000    591.438     24.562    442.818    591.427    442.818    442.818    442.818
113.570    654.292    599.927     54.366    442.797    599.914    442.797    442.797    442.797
113.670    633.000    609.935     23.065    442.780    609.920    442.780    442.780    442.780
113.770    671.000    621.844     49.156    442.767    621.827    442.767    442.767    442.767
113.870    632.004    636.132     -4.129    442.759    636.111    442.759    442.759    442.759
113.970    640.000    653.390    -13.390    442.755    653.364    442.755    442.755    442.755
114.070    633.255    674.339    -41.085    442.756    674.308    442.756    442.756    442.756
114.170    691.000    699.854     -8.854    442.761    699.816    442.761    442.761    442.761
114.270    741.000    730.974     10.026    442.771    730.928    442.771    442.771    442.771
114.370    784.382    768.919     15.463    442.786    768.862    442.786    442.786    442.786
114.470    800.000    815.095    -15.095    442.805    815.025    442.805    442.805    442.805
114.570    907.899    871.097     36.802    442.829    871.012    442.829    442.829    442.829
114.670    889.325    938.694    -49.368    442.858    938.592    442.858    442.858    442.858
114.770   1037.000   1019.808     17.192    442.892   1019.686    442.892    442.892    442.892
114.870   1172.000   1116.476     55.524    442.931   1116.330    442.931    442.931    442.931
114.970   1253.000   1230.789     22.211    442.975   1230.618    442.975    442.975    442.975
115.070   1357.000   1364.826     -7.826    443.024   1364.626    443.024    443.024    443.024
115.170   1574.000   1520.557     53.443    443.079   1520.326    443.079    443.079    443.079
115.270   1843.000   1699.738    143.262    443.138   1699.475    443.138    443.138    443.138
115.370   2113.000   1903.793    209.207    443.203   1903.496    443.203    443.203    443.203
115.470   2202.903   2133.684     69.220    443.273   2133.353    443.273    443.273    443.273
115.570   2313.353   2389.779    -76.426    443.348   2389.415    443.348    443.348    443.348
115.670   2756.000   2671.729     84.271    443.429   2671.333    443.429    443.429    443.429
115.770   3049.000   2978.348     70.652    443.515   2977.924    443.515    443.515    443.515
115.870   3337.000   3307.520     29.480    443.607   3307.073    443.607    443.607    443.607
115.970   3619.105   3656.124    -37.019    443.704   3655.659    443.704    443.704    443.704
116.070   4122.000   4019.985    102.015    443.807   4019.510    443.807    443.807    443.807
116.170   4384.000   4393.866     -9.866    443.916   4393.390    443.916    443.916    443.916
116.270   4748.000   4771.476    -23.476    444.031   4771.010    444.031    444.031    444.031
116.370   5285.275   5145.532    139.743    444.151   5145.087    444.151    444.151    444.151
116.470   5474.000   5507.843    -33.843    444.278   5507.432    444.278    444.278    444.278
116.570   5853.000   5849.474      3.526    444.410   5849.111    444.410    444.410    444.410
116.670   6288.516   6160.982    127.534    444.548   6160.680    444.548    444.548    444.548
116.770   6399.000   6432.774    -33.774    444.692   6432.546    444.692    444.692    444.692
116.870   6617.129   6655.618    -38.490    444.843   6655.477    444.843    444.843    444.843
116.970   6984.097   6821.287    162.810    445.000   6821.240    445.000    445.000    445.000
117.070   7064.812   6923.281    141.530    445.163   6923.335    445.163    445.163    445.163
117.170   7051.000   6957.518     93.482    445.332   6957.674    445.332    445.332    445.332
117.270   6831.000   6922.807    -91.807    445.508   6923.060    445.508    445.508    445.508
117.370   6646.000   6820.993   -174.993    445.690   6821.336    445.690    445.690    445.690
117.470   6834.067   6656.722    177.345    445.878   6657.143    445.878    445.878    445.878
117.570   6463.822   6436.894     26.927    446.074   6437.380    446.074    446.074    446.074
117.670   6171.019   6169.951      1.068    446.276   6170.486    446.276    446.276    446.276
117.770   5689.000   5865.157   -176.157    446.484   5865.725    446.484    446.484    446.484
117.870   5286.000   5531.980   -245.980    446.700   5532.567    446.700    446.700    446.700
117.970   5223.060   5179.605     43.455    446.922   5180.198    446.922    446.922    446.922
118.070   4810.746   4816.654     -5.908    447.151   4817.239    447.151    447.151    447.151
118.170   4536.710   4450.994     85.716    447.387   4451.561    447.387    447.387    447.387
118.270   4182.000   4089.459     92.541    447.630   4089.999    447.630    447.630    447.630
118.370   3840.430   3737.896    102.534    447.880   3738.402    447.880    447.880    447.880
118.470   3473.000   3401.107     71.893    448.138   3401.574    448.138    448.138    448.138
118.570   3085.000   3082.848      2.152    448.402   3083.271    448.402    448.402    448.402
118.670   2786.902   2785.868      1.034    448.674   2786.247    448.674    448.674    448.674
118.770   2495.000   2511.981    -16.981    448.953   2512.315    448.953    448.953    448.953
118.870   2229.808   2262.157    -32.349    449.240   2262.447    449.240    449.240    449.240
118.970   1921.000   2036.627   -115.627    449.534   2036.875    449.534    449.534    449.534
119.070   1753.000   1835.002    -82.002    449.836   1835.211    449.836    449.836    449.836
119.170   1728.048   1656.386     71.662    450.145   1656.559    450.145    450.145    450.145
119.270   1447.125   1499.491    -52.365    450.462   1499.632    450.462    450.462    450.462
119.370   1322.996   1362.747    -39.751    450.787   1362.861    450.787    450.787    450.787
119.470   1170.000   1244.404    -74.404    451.120   1244.494    451.120    451.120    451.120
119.570   1081.227   1142.621    -61.394    451.461   1142.691    451.461    451.461    451.461
119.670   1039.000   1055.545    -16.545    451.809   1055.599    451.809    451.809    451.809
119.770   1050.006    981.379     68.627    452.166    981.419    452.166    452.166    452.166
119.870    895.413    918.422    -23.009    452.531    918.452    452.531    452.531    452.531
119.970    870.000    865.112      4.888    452.904    865.134    452.904    452.904    452.904
120.070    763.352    820.041    -56.689    453.285    820.057    453.285    453.285    453.285
120.170    754.000    781.965    -27.965    453.675    781.977    453.675    453.675    453.675
120.270    714.052    749.805    -35.752    454.073    749.814    454.073    454.073    454.073
120.370    704.000    722.634    -18.634    454.479    722.642    454.479    454.479    454.479
120.470    703.000    699.673      3.327    454.894    699.679    454.894    454.894    454.894
120.570    686.000    680.269      5.731    455.318    680.275    455.318    455.318    455.318
120.670    637.000    663.882    -26.882    455.750    663.888    455.750    455.750    455.750
120.770    645.000    650.069     -5.069    456.191    650.075    456.191    456.191    456.191
120.870    609.000    638.468    -29.468    456.641    638.475    456.641    456.641    456.641
120.970    616.000    628.783    -12.783    457.100    628.791    457.100    457.100    457.100
121.070    666.016    620.776     45.240    457.568    620.784    457.568    457.568    457.568
121.170    640.882    614.248     26.634    458.045    614.258    458.045    458.045    458.045
121.270    610.939    609.039      1.900    458.531    609.050    458.531    458.531    458.531
121.370    638.451    605.015     33.436    459.026    605.026    459.026    459.026    459.026
121.470    615.271    602.061     13.209    459.531    602.074    459.531    459.531    459.531
121.570    588.000    600.080    -12.080    460.045    600.094    460.045    460.045    460.045
121.670    617.303    598.984     18.319    460.568    599.000    460.568    460.568    460.568
121.770    648.000    598.694     49.306    461.101    598.711    461.101    461.101    461.101
121.870    602.128    599.132      2.996    461.644    599.151    461.644    461.644    461.644
121.970    605.000    600.225      4.775    462.196    600.246    462.196    462.196    462.196
122.070    562.000    601.898    -39.898    462.758    601.921    462.758    462.758    462.758
122.170    620.082    604.073     16.009    463.330    604.098    463.330    463.330    463.330
122.270    575.519    606.668    -31.149    463.912    606.696    463.912    463.912    463.912
122.370    568.000    609.597    -41.597    464.503    609.628    464.503    464.503    464.503
122.470    621.477    612.770      8.707    465.105    612.804    465.105    465.105    465.105
122.570    584.579    616.089    -31.510    465.717    616.125    465.717    465.717    465.717
122.670    652.097    619.451     32.646    466.339    619.490    466.339    466.339    466.339
122.770    631.000    622.748      8.252    466.972    622.790    466.972    466.972    466.972
122.870    601.629    625.868    -24.239    467.615    625.914    467.615    467.615    467.615
122.970    646.000    628.700     17.300    468.268    628.748    468.268    468.268    468.268
123.070    647.587    631.132     16.455    468.932    631.183    468.932    468.932    468.932
123.170    631.742    633.062     -1.319    469.607    633.115    469.607    469.607    469.607
123.270    575.000    634.397    -59.397    470.292    634.452    470.292    470.292    470.292
123.370    581.206    635.065    -53.859    470.988    635.122    470.988    470.988    470.988
123.470    647.574    635.015     12.559    471.695    635.074    471.695    471.695    471.695
123.570    671.087    634.224     36.863    472.413    634.284    472.413    472.413    472.413
123.670    680.685    632.693     47.992    473.142    632.754    473.142    473.142    473.142
123.770    667.000    630.452     36.548    473.882    630.512    473.882    473.882    473.882
123.870    659.000    627.549     31.451    474.633    627.608    474.633    474.633    474.633
123.970    620.612    624.050     -3.438    475.396    624.108    475.396    475.396    475.396
124.070    655.000    620.032     34.968    476.170    620.089    476.170    476.170    476.170
124.170    576.984    615.579    -38.594    476.955    615.634    476.955    476.955    476.955
124.270    643.000    610.776     32.224    477.752    610.830    477.752    477.752    477.752
124.370    606.000    605.712      0.288    478.561    605.762    478.561    478.561    478.561
124.470    581.484    600.469    -18.985    479.381    600.517    479.381    479.381    479.381
124.570    577.000    595.129    -18.129    480.213    595.174    480.213    480.213    480.213
124.670    588.000    589.767     -1.767    481.057    589.809    481.057    481.057    481.057
124.770    694.000    584.453    109.547    481.913    584.492    481.913    481.913    481.913
124.870    589.991    579.251     10.740    482.781    579.287    482.781    482.781    482.781
124.970    569.711    574.215     -4.505    483.662    574.249    483.662    483.662    483.662
