neutron_powder_diffraction_0122
R_wp: 4.010
Temperature (K): 997.111
Counts: 83689.00
Wavelength (Ã…): 2.52098
COMMENTS
Test file for demonstrating the .xyy file format in Reel1.0
END OF HEADER
   tth       Y_obs     Y_calc      Y_res    Background    Phase_1_Nuc    Phase_1_Mag    Phase_2_Nuc    Phase_2_Mag
  9.970    601.000    559.641     41.359    558.547    559.515    558.547    558.673    558.547
 10.070    535.734    559.990    -24.256    558.813    559.864    558.813    558.939    558.813
 10.170    623.000    560.343     62.657    559.070    560.216    559.070    559.196    559.070
 10.270    590.891    560.703     30.188    559.319    560.575    559.319    559.446    559.319
 10.370    596.824    561.072     35.752    559.560    560.944    559.560    559.688    559.560
 10.470    596.000    561.456     34.544    559.794    561.327    559.794    559.922    559.794
 10.570    572.782    561.858     10.924    560.019    561.728    560.019    560.148    560.019
 10.670    576.000    562.286     13.714    560.237    562.156    560.237    560.366    560.237
 10.770    639.000    562.749     76.251    560.448    562.619    560.448    560.577    560.448
 10.870    580.000    563.260     16.740    560.650    563.129    560.650    560.780    560.650
 10.970    591.000    563.836     27.164    560.845    563.704    560.845    560.976    560.845
 11.070    601.000    564.501     36.499    561.033    564.368    561.033    561.164    561.033
 11.170    613.000    565.290     47.710    561.214    565.156    561.214    561.345    561.214
 11.270    566.000    566.261     -0.261    561.387    566.126    561.387    561.519    561.387
 11.370    548.365    567.516    -19.152    561.552    567.380    561.552    561.685    561.552
 11.470    529.842    569.282    -39.441    561.711    569.145    561.711    561.844    561.711
 11.570    599.334    572.102     27.232    561.862    571.962    561.862    561.996    561.862
 11.670    604.000    577.186     26.814    562.007    577.043    562.007    562.141    562.007
 11.770    624.332    586.732     37.599    562.144    586.583    562.144    562.279    562.144
 11.870    635.000    603.570     31.430    562.275    603.411    562.275    562.410    562.275
 11.970    668.000    629.332     38.668    562.398    629.157    562.398    562.535    562.398
 12.070    658.000    660.877     -2.877    562.515    660.684    562.515    562.652    562.515
 12.170    683.000    686.698     -3.698    562.625    686.489    562.625    562.763    562.625
 12.270    629.000    691.072    -62.072    562.729    690.859    562.729    562.867    562.729
 12.370    661.262    670.477     -9.214    562.826    670.276    562.826    562.964    562.826
 12.470    676.000    638.980     37.020    562.916    638.796    562.916    563.055    562.916
 12.570    582.410    610.901    -28.491    563.000    610.733    563.000    563.140    563.000
 12.670    540.000    591.622    -51.622    563.077    591.465    563.077    563.218    563.077
 12.770    593.532    580.444     13.088    563.148    580.293    563.148    563.290    563.148
 12.870    556.000    574.567    -18.567    563.213    574.419    563.213    563.355    563.213
 12.970    549.448    571.487    -22.039    563.272    571.340    563.272    563.415    563.272
 13.070    554.000    569.717    -15.717    563.324    569.570    563.324    563.468    563.324
 13.170    543.000    568.564    -25.564    563.371    568.417    563.371    563.515    563.371
 13.270    534.000    567.741    -33.741    563.411    567.594    563.411    563.556    563.411
 13.370    517.000    567.122    -50.122    563.445    566.975    563.445    563.591    563.445
 13.470    530.000    566.643    -36.643    563.474    566.496    563.474    563.620    563.474
 13.570    567.060    566.264      0.796    563.496    566.116    563.496    563.643    563.496
 13.670    564.000    565.958     -1.958    563.513    565.809    563.513    563.661    563.513
 13.770    540.000    565.705    -25.705    563.524    565.556    563.524    563.672    563.524
 13.870    520.000    565.492    -45.492    563.530    565.342    563.530    563.679    563.530
 13.970    590.000    565.310     24.690    563.529    565.160    563.529    563.679    563.529
 14.070    528.975    565.153    -36.178    563.524    565.002    563.524    563.674    563.524
 14.170    585.349    565.013     20.336    563.512    564.861    563.512    563.664    563.512
 14.270    542.000    564.885    -22.885    563.496    564.733    563.496    563.648    563.496
 14.370    528.000    564.767    -36.767    563.474    564.614    563.474    563.626    563.474
 14.470    556.000    564.657     -8.657    563.446    564.503    563.446    563.600    563.446
 14.570    594.000    564.552     29.448    563.413    564.397    563.413    563.568    563.413
 14.670    537.000    564.451    -27.451    563.376    564.296    563.376    563.531    563.376
 14.770    579.681    564.352     15.329    563.333    564.196    563.333    563.488    563.333
 14.870    551.000    564.255    -13.255    563.284    564.098    563.284    563.441    563.284
 14.970    598.000    564.158     33.842    563.231    564.000    563.231    563.389    563.231
 15.070    542.865    564.061    -21.197    563.173    563.903    563.173    563.331    563.173
 15.170    551.000    563.965    -12.965    563.110    563.806    563.110    563.269    563.110
 15.270    600.845    563.867     36.978    563.042    563.707    563.042    563.202    563.042
 15.370    548.000    563.766    -15.766    562.969    563.605    562.969    563.130    562.969
 15.470    539.000    563.664    -24.664    562.892    563.502    562.892    563.053    562.892
 15.570    539.000    563.560    -24.560    562.809    563.397    562.809    562.972    562.809
 15.670    575.899    563.453     12.447    562.723    563.289    562.723    562.886    562.723
 15.770    552.000    563.343    -11.343    562.631    563.179    562.631    562.796    562.631
 15.870    571.835    563.231      8.604    562.535    563.065    562.535    562.700    562.535
 15.970    573.218    563.116     10.103    562.434    562.949    562.434    562.601    562.434
 16.070    518.786    562.998    -44.211    562.330    562.830    562.330    562.497    562.330
 16.170    517.860    562.877    -45.017    562.220    562.708    562.220    562.388    562.220
 16.270    536.000    562.753    -26.753    562.106    562.583    562.106    562.276    562.106
 16.370    538.000    562.625    -24.625    561.989    562.455    561.989    562.159    561.989
 16.470    529.560    562.495    -32.935    561.866    562.324    561.866    562.038    561.866
 16.570    541.000    562.366    -21.366    561.740    562.193    561.740    561.912    561.740
 16.670    532.260    562.251    -29.992    561.610    562.078    561.610    561.783    561.610
 16.770    555.511    562.113     -6.602    561.475    561.939    561.475    561.649    561.475
 16.870    534.000    561.970    -27.970    561.336    561.794    561.336    561.512    561.336
 16.970    576.000    561.823     14.177    561.194    561.647    561.194    561.370    561.194
 17.070    601.000    561.673     39.327    561.047    561.496    561.047    561.225    561.047
 17.170    521.202    561.520    -40.318    560.897    561.341    560.897    561.076    560.897
 17.270    544.177    561.364    -17.187    560.743    561.184    560.743    560.923    560.743
 17.370    510.000    561.204    -51.204    560.585    561.023    560.585    560.766    560.585
 17.470    535.000    561.041    -26.041    560.423    560.859    560.423    560.606    560.423
 17.570    545.000    560.875    -15.875    560.258    560.692    560.258    560.441    560.258
 17.670    536.000    560.706    -24.706    560.089    560.522    560.089    560.274    560.089
 17.770    596.233    560.534     35.699    559.917    560.348    559.917    560.102    559.917
 17.870    559.000    560.359     -1.359    559.741    560.172    559.741    559.928    559.741
 17.970    576.220    560.184     16.035    559.561    559.996    559.561    559.749    559.561
 18.070    528.586    560.004    -31.418    559.378    559.814    559.378    559.568    559.378
 18.170    525.724    559.820    -34.095    559.192    559.629    559.192    559.383    559.192
 18.270    591.000    559.633     31.367    559.002    559.440    559.002    559.194    559.002
 18.370    561.000    559.450      1.550    558.809    559.257    558.809    559.003    558.809
 18.470    580.000    559.338     20.662    558.613    559.143    558.613    558.808    558.613
 18.570    575.000    559.174     15.826    558.414    558.978    558.414    558.610    558.414
 18.670    518.000    558.979    -40.979    558.211    558.781    558.211    558.409    558.211
 18.770    528.000    558.778    -30.778    558.006    558.578    558.006    558.205    558.006
 18.870    557.000    558.575     -1.575    557.797    558.374    557.797    557.998    557.797
 18.970    567.801    558.373      9.428    557.585    558.171    557.585    557.788    557.585
 19.070    579.000    558.167     20.833    557.371    557.963    557.371    557.575    557.371
 19.170    533.205    557.956    -24.751    557.153    557.751    557.153    557.359    557.153
 19.270    544.000    557.742    -13.742    556.933    557.535    556.933    557.140    556.933
 19.370    517.000    557.527    -40.527    556.710    557.318    556.710    556.918    556.710
 19.470    513.939    557.308    -43.370    556.484    557.098    556.484    556.694    556.484
 19.570    527.335    557.088    -29.753    556.255    556.876    556.255    556.467    556.255
 19.670    531.000    556.865    -25.865    556.023    556.652    556.023    556.237    556.023
 19.770    575.000    556.641     18.359    555.789    556.425    555.789    556.005    555.789
 19.870    538.000    556.414    -18.414    555.552    556.196    555.552    555.770    555.552
 19.970    566.000    556.187      9.813    555.313    555.968    555.313    555.532    555.313
 20.070    567.995    555.982     12.013    555.071    555.761    555.071    555.292    555.071
 20.170    513.772    555.793    -42.020    554.827    555.570    554.827    555.050    554.827
 20.270    545.000    555.563    -10.563    554.580    555.338    554.580    554.805    554.580
 20.370    531.042    555.327    -24.285    554.331    555.100    554.331    554.558    554.331
 20.470    526.000    555.090    -29.090    554.080    554.861    554.080    554.309    554.080
 20.570    585.259    554.851     30.408    553.826    554.620    553.826    554.057    553.826
 20.670    561.882    554.612      7.270    553.570    554.378    553.570    553.803    553.570
 20.770    569.662    554.375     15.287    553.311    554.140    553.311    553.547    553.311
 20.870    553.000    554.134     -1.134    553.051    553.896    553.051    553.289    553.051
 20.970    563.000    553.891      9.109    552.788    553.651    552.788    553.029    552.788
 21.070    533.673    553.647    -19.973    552.523    553.404    552.523    552.766    552.523
 21.170    515.277    553.401    -38.124    552.257    553.156    552.257    552.502    552.257
 21.270    531.000    553.156    -22.156    551.988    552.908    551.988    552.236    551.988
 21.370    552.000    552.910     -0.910    551.717    552.659    551.717    551.968    551.717
 21.470    532.963    552.672    -19.708    551.444    552.418    551.444    551.697    551.444
 21.570    551.000    552.464     -1.464    551.169    552.208    551.169    551.425    551.169
 21.670    556.000    552.222      3.778    550.893    551.963    550.893    551.152    550.893
 21.770    547.000    551.981     -4.981    550.614    551.719    550.614    550.876    550.614
 21.870    551.000    551.744     -0.744    550.334    551.479    550.334    550.599    550.334
 21.970    525.947    551.502    -25.554    550.052    551.234    550.052    550.320    550.052
 22.070    504.203    551.265    -47.062    549.768    550.994    549.768    550.040    549.768
 22.170    553.000    551.050      1.950    549.483    550.776    549.483    549.758    549.483
 22.270    514.301    550.824    -36.523    549.196    550.546    549.196    549.474    549.196
 22.370    566.000    550.591     15.409    548.907    550.310    548.907    549.189    548.907
 22.470    524.243    550.363    -26.119    548.617    550.077    548.617    548.902    548.617
 22.570    595.000    550.139     44.861    548.325    549.851    548.325    548.614    548.325
 22.670    520.000    549.922    -29.922    548.032    549.630    548.032    548.325    548.032
 22.770    581.308    549.713     31.595    547.737    549.416    547.737    548.034    547.737
 22.870    556.000    549.514      6.486    547.441    549.213    547.441    547.743    547.441
 22.970    532.814    549.334    -16.520    547.143    549.028    547.143    547.449    547.143
 23.070    520.000    549.179    -29.179    546.844    548.869    546.844    547.155    546.844
 23.170    538.000    549.032    -11.032    546.544    548.718    546.544    546.860    546.544
 23.270    523.000    548.914    -25.914    546.243    548.594    546.243    546.563    546.243
 23.370    591.357    548.829     42.527    545.940    548.505    545.940    546.265    545.940
 23.470    518.082    548.776    -30.694    545.636    548.447    545.636    545.967    545.636
 23.570    583.001    548.819     34.182    545.331    548.485    545.331    545.667    545.331
 23.670    574.103    548.886     25.217    545.024    548.545    545.024    545.366    545.024
 23.770    593.398    549.042     44.356    544.717    548.696    544.717    545.065    544.717
 23.870    561.000    549.338     11.662    544.408    548.985    544.408    544.763    544.408
 23.970    599.157    549.861     49.296    544.099    549.503    544.099    544.460    544.099
 24.070    539.000    550.797    -11.797    543.788    550.433    543.788    544.156    543.788
 24.170    567.000    552.538     14.462    543.477    552.168    543.477    543.852    543.477
 24.270    576.000    555.973     20.027    543.164    555.598    543.164    543.547    543.164
 24.370    569.000    562.576      6.424    542.851    562.197    542.851    543.241    542.851
 24.470    583.000    574.070      8.930    542.536    573.691    542.536    542.935    542.536
 24.570    635.000    591.169     43.831    542.221    590.794    542.221    542.629    542.221
 24.670    566.323    611.351    -45.027    541.905    610.981    541.905    542.322    541.905
 24.770    589.000    626.902    -37.902    541.588    626.533    541.588    542.015    541.588
 24.870    619.000    628.274     -9.274    541.271    627.896    541.271    541.708    541.271
 24.970    572.856    614.178    -41.323    540.952    613.780    540.952    541.400    540.952
 25.070    597.000    593.502      3.498    540.633    593.078    540.633    541.093    540.633
 25.170    559.092    574.956    -15.864    540.314    574.507    540.314    540.785    540.314
 25.270    597.613    561.918     35.696    539.994    561.447    539.994    540.478    539.994
 25.370    576.000    554.062     21.938    539.673    553.571    539.673    540.171    539.673
 25.470    572.000    549.707     22.293    539.351    549.199    539.351    539.864    539.351
 25.570    544.000    547.274     -3.274    539.029    546.749    539.029    539.558    539.029
 25.670    567.451    545.774     21.677    538.707    545.232    538.707    539.252    538.707
 25.770    618.000    544.726     73.274    538.384    544.166    538.384    538.946    538.384
 25.870    520.000    543.926    -23.926    538.060    543.346    538.060    538.642    538.060
 25.970    538.000    543.286     -5.286    537.736    542.685    537.736    538.338    537.736
 26.070    498.900    542.760    -43.860    537.412    542.137    537.412    538.036    537.412
 26.170    524.000    542.325    -18.325    537.087    541.678    537.087    537.735    537.087
 26.270    511.454    541.964    -30.510    536.762    541.291    536.762    537.435    536.762
 26.370    544.000    541.669      2.331    536.437    540.968    536.437    537.138    536.437
 26.470    543.000    541.436      1.564    536.111    540.706    536.111    536.842    536.111
 26.570    573.000    541.263     31.737    535.785    540.501    535.785    536.548    535.785
 26.670    547.000    541.152      5.848    535.459    540.353    535.459    536.257    535.459
 26.770    581.950    541.109     40.841    535.133    540.272    535.133    535.970    535.133
 26.870    498.471    541.145    -42.675    534.806    540.266    534.806    535.685    534.806
 26.970    521.000    541.277    -20.277    534.479    540.352    534.479    535.405    534.479
 27.070    559.000    541.527     17.473    534.153    540.550    534.153    535.129    534.153
 27.170    534.982    541.929     -6.947    533.826    540.896    533.826    534.858    533.826
 27.270    501.172    542.533    -41.360    533.499    541.437    533.499    534.594    533.499
 27.370    587.000    543.416     43.584    533.172    542.251    533.172    534.336    533.172
 27.470    571.000    544.722     26.278    532.845    543.478    532.845    534.087    532.845
 27.570    557.000    546.824     10.176    532.518    545.492    532.518    533.848    532.518
 27.670    596.000    551.013     44.987    532.191    549.581    532.191    533.619    532.191
 27.770    584.000    561.508     22.492    531.864    559.960    531.864    533.404    531.864
 27.870    611.000    588.666     22.334    531.537    586.981    531.537    533.205    531.537
 27.970    669.000    648.436     20.564    531.210    646.585    531.210    533.024    531.210
 28.070    736.000    748.758    -12.758    530.883    746.710    530.883    532.865    530.883
 28.170    928.000    865.077     62.923    530.557    862.810    530.557    532.731    530.557
 28.270    908.000    933.479    -25.479    530.230    930.989    530.230    532.628    530.230
 28.370    895.000    903.966     -8.966    529.904    901.249    529.904    532.559    529.904
 28.470    795.000    809.409    -14.409    529.578    806.429    529.578    532.530    529.578
 28.570    738.151    724.135     14.016    529.253    720.828    529.253    532.548    529.253
 28.670    677.731    696.083    -18.352    528.927    692.381    528.927    532.617    528.927
 28.770    763.000    728.168     34.832    528.602    724.007    528.602    532.744    528.602
 28.870    810.243    788.033     22.209    528.277    783.356    528.277    532.932    528.277
 28.970    813.000    823.500    -10.500    527.953    818.257    527.953    533.180    527.953
 29.070    738.000    798.056    -60.056    527.629    792.200    527.629    533.485    527.629
 29.170    687.964    728.490    -40.526    527.305    721.976    527.305    533.831    527.305
 29.270    657.000    654.898      2.102    526.982    647.703    526.982    534.190    526.982
 29.370    614.894    601.637     13.258    526.659    593.786    526.659    534.518    526.659
 29.470    605.000    571.726     33.274    526.336    563.309    526.336    534.758    526.336
 29.570    571.185    557.567     13.618    526.014    548.739    526.014    534.844    526.014
 29.670    546.000    551.137     -5.137    525.693    542.108    525.693    534.722    525.693
 29.770    552.000    547.745      4.255    525.372    538.756    525.372    534.361    525.372
 29.870    563.000    545.443     17.557    525.051    536.727    525.051    533.767    525.051
 29.970    595.000    543.607     51.393    524.731    535.355    524.731    532.983    524.731
 30.070    553.000    542.075     10.925    524.412    534.419    524.412    532.067    524.412
 30.170    553.575    540.870     12.705    524.093    533.878    524.093    531.084    524.093
 30.270    493.356    540.160    -46.804    523.775    533.846    523.775    530.088    523.775
 30.370    590.000    540.403     49.597    523.458    534.742    523.458    529.116    523.458
 30.470    546.000    542.614      3.386    523.141    537.558    523.141    528.191    523.141
 30.570    581.000    548.466     32.534    522.825    543.954    522.825    527.325    522.825
 30.670    571.000    559.646     11.354    522.509    555.614    522.509    526.521    522.509
 30.770    566.000    576.070    -10.070    522.194    572.455    522.194    525.778    522.194
 30.870    549.115    593.590    -44.475    521.880    590.337    521.880    525.090    521.880
 30.970    557.606    603.405    -45.799    521.567    600.471    521.567    524.453    521.567
 31.070    595.000    598.412     -3.412    521.254    595.764    521.254    523.860    521.254
 31.170    629.000    581.926     47.074    520.943    579.532    520.943    523.306    520.943
 31.270    566.000    562.968      3.032    520.632    560.795    520.632    522.786    520.632
 31.370    564.000    547.841     16.159    520.321    545.857    520.321    522.296    520.321
 31.470    533.000    538.218     -5.218    520.012    536.395    520.012    521.830    520.012
 31.570    548.640    532.971     15.670    519.704    531.286    519.704    521.385    519.704
 31.670    508.259    530.299    -22.040    519.396    528.734    519.396    520.959    519.396
 31.770    541.003    528.877     12.126    519.089    527.417    519.089    520.548    519.089
 31.870    572.000    528.021     43.979    518.784    526.653    518.784    520.150    518.784
 31.970    539.000    527.451     11.549    518.479    526.164    518.479    519.765    518.479
 32.070    557.534    527.064     30.470    518.175    525.848    518.175    519.389    518.175
 32.170    549.000    526.823     22.177    517.872    525.671    517.872    519.022    517.872
 32.270    550.000    526.715     23.285    517.570    525.621    517.570    518.663    517.570
 32.370    576.000    526.742     49.258    517.269    525.699    517.269    518.311    517.269
 32.470    522.212    526.911     -4.700    516.969    525.914    516.969    517.965    516.969
 32.570    574.691    527.243     47.449    516.670    526.287    516.670    517.624    516.670
 32.670    543.000    527.766     15.234    516.372    526.848    516.372    517.289    516.372
 32.770    533.866    528.526      5.340    516.075    527.642    516.075    516.958    516.075
 32.870    488.484    529.587    -41.103    515.779    528.734    515.779    516.631    515.779
 32.970    565.000    531.045     33.955    515.484    530.220    515.484    516.308    515.484
 33.070    544.000    533.054     10.946    515.190    532.254    515.190    515.989    515.190
 33.170    548.000    535.901     12.099    514.898    535.124    514.898    515.673    514.898
 33.270    526.541    540.236    -13.695    514.606    539.480    514.606    515.360    514.606
 33.370    613.000    547.662     65.338    514.316    546.924    514.316    515.050    514.316
 33.470    588.126    561.858     26.268    514.027    561.135    514.027    514.743    514.027
 33.570    619.614    589.834     29.780    513.739    589.123    513.739    514.438    513.739
 33.670    662.975    641.591     21.384    513.452    640.886    513.452    514.137    513.452
 33.770    733.000    725.594      7.406    513.166    724.890    513.166    513.837    513.166
 33.870    882.000    839.265     42.735    512.882    838.561    512.882    513.540    512.882
 33.970   1050.000    957.512     92.488    512.599    956.812    512.599    513.245    512.599
 34.070    973.294   1029.843    -56.549    512.317   1029.162    512.317    512.952    512.317
 34.170   1023.000   1012.798     10.202    512.036   1012.148    512.036    512.662    512.036
 34.270    938.000    918.181     19.819    511.757    917.560    511.757    512.373    511.757
 34.370    812.000    797.085     14.915    511.478    796.481    511.478    512.087    511.478
 34.470    654.754    691.775    -37.021    511.201    691.180    511.201    511.803    511.201
 34.570    631.000    618.618     12.382    510.926    618.029    510.926    511.520    510.926
 34.670    548.000    575.308    -27.308    510.651    574.723    510.651    511.239    510.651
 34.770    551.792    552.183     -0.391    510.378    551.602    510.378    510.961    510.378
 34.870    570.329    540.105     30.224    510.107    539.528    510.107    510.684    510.107
 34.970    540.000    533.297      6.703    509.836    532.725    509.836    510.409    509.836
 35.070    539.000    528.913     10.087    509.568    528.345    509.568    510.135    509.568
 35.170    527.000    525.745      1.255    509.300    525.180    509.300    509.864    509.300
 35.270    503.000    523.293    -20.293    509.034    522.732    509.034    509.594    509.034
 35.370    534.576    521.323     13.253    508.769    520.766    508.769    509.326    508.769
 35.470    560.000    519.704     40.296    508.505    519.149    508.505    509.060    508.505
 35.570    571.000    518.347     52.653    508.243    517.795    508.243    508.796    508.243
 35.670    547.533    517.193     30.341    507.983    516.642    507.983    508.533    507.983
 35.770    527.000    516.197     10.803    507.724    515.648    507.724    508.272    507.724
 35.870    516.000    515.328      0.672    507.466    514.780    507.466    508.013    507.466
 35.970    541.000    514.561     26.439    507.209    514.015    507.209    507.756    507.209
 36.070    556.247    513.879     42.369    506.955    513.334    506.955    507.500    506.955
 36.170    526.229    513.268     12.961    506.701    512.724    506.701    507.246    506.701
 36.270    505.000    512.719     -7.719    506.449    512.175    506.449    506.994    506.449
 36.370    480.000    512.225    -32.225    506.199    511.681    506.199    506.743    506.199
 36.470    512.000    511.780      0.220    505.950    511.236    505.950    506.494    505.950
 36.570    507.000    511.384     -4.384    505.703    510.839    505.703    506.247    505.703
 36.670    511.000    511.036     -0.036    505.457    510.492    505.457    506.002    505.457
 36.770    527.000    510.746     16.254    505.212    510.201    505.212    505.758    505.212
 36.870    507.000    510.534     -3.534    504.969    509.987    504.969    505.516    504.969
 36.970    528.000    510.449     17.551    504.728    509.902    504.728    505.276    504.728
 37.070    504.000    510.592     -6.592    504.488    510.044    504.488    505.037    504.488
 37.170    499.000    511.134    -12.134    504.250    510.585    504.250    504.801    504.250
 37.270    536.000    512.297     23.703    504.013    511.746    504.013    504.566    504.013
 37.370    523.839    514.269      9.570    503.778    513.716    503.778    504.332    503.778
 37.470    522.000    517.036      4.964    503.545    516.482    503.545    504.101    503.545
 37.570    541.000    520.164     20.836    503.313    519.609    503.313    503.871    503.313
 37.670    524.000    522.657      1.343    503.083    522.101    503.083    503.643    503.083
 37.770    506.000    523.319    -17.319    502.854    522.762    502.854    503.417    502.854
 37.870    544.048    521.789     22.260    502.627    521.231    502.627    503.193    502.627
 37.970    527.814    518.914      8.900    502.401    518.355    502.401    502.970    502.401
 38.070    517.996    515.717      2.279    502.177    515.157    502.177    502.749    502.177
 38.170    449.000    512.751    -63.751    501.955    512.187    501.955    502.530    501.955
 38.270    539.091    510.294     28.797    501.734    509.724    501.734    502.313    501.734
 38.370    513.000    508.445      4.555    501.515    507.868    501.515    502.097    501.515
 38.470    502.053    507.139     -5.086    501.298    506.557    501.298    501.884    501.298
 38.570    487.756    506.241    -18.486    501.082    505.654    501.082    501.672    501.082
 38.670    492.000    505.615    -13.615    500.868    505.023    500.868    501.462    500.868
 38.770    497.000    505.154     -8.154    500.656    504.558    500.656    501.254    500.656
 38.870    531.000    504.790     26.210    500.445    504.188    500.445    501.047    500.445
 38.970    508.000    504.480      3.520    500.236    503.874    500.236    500.843    500.236
 39.070    492.000    504.205    -12.205    500.029    503.595    500.029    500.640    500.029
 39.170    482.637    503.954    -21.318    499.823    503.338    499.823    500.440    499.823
 39.270    497.660    503.721     -6.061    499.619    503.100    499.619    500.241    499.619
 39.370    535.602    503.504     32.098    499.417    502.877    499.417    500.044    499.417
 39.470    483.000    503.299    -20.299    499.216    502.667    499.216    499.848    499.216
 39.570    485.000    503.107    -18.107    499.017    502.469    499.017    499.655    499.017
 39.670    485.000    502.925    -17.925    498.820    502.282    498.820    499.464    498.820
 39.770    472.000    502.754    -30.754    498.625    502.105    498.625    499.274    498.625
 39.870    503.000    502.594      0.406    498.431    501.938    498.431    499.087    498.431
 39.970    514.000    502.444     11.556    498.239    501.782    498.239    498.901    498.239
 40.070    492.060    502.305    -10.245    498.048    501.636    498.048    498.718    498.048
 40.170    498.000    502.176     -4.176    497.860    501.501    497.860    498.536    497.860
 40.270    542.378    502.060     40.318    497.673    501.378    497.673    498.356    497.673
 40.370    480.353    501.957    -21.604    497.488    501.267    497.488    498.178    497.488
 40.470    480.000    501.867    -21.867    497.304    501.170    497.304    498.002    497.304
 40.570    521.257    501.794     19.464    497.123    501.089    497.123    497.829    497.123
 40.670    460.000    501.738    -41.738    496.943    501.025    496.943    497.657    496.943
 40.770    505.000    501.703      3.297    496.765    500.981    496.765    497.487    496.765
 40.870    509.843    501.692      8.151    496.588    500.962    496.588    497.319    496.588
 40.970    515.952    501.709     14.243    496.414    500.970    496.414    497.153    496.414
 41.070    482.000    501.760    -19.760    496.241    501.012    496.241    496.989    496.241
 41.170    480.000    501.853    -21.853    496.069    501.096    496.069    496.828    496.069
 41.270    484.000    501.997    -17.997    495.900    501.230    495.900    496.668    495.900
 41.370    528.190    502.206     25.984    495.732    501.430    495.732    496.510    495.732
 41.470    468.000    502.500    -34.500    495.566    501.713    495.566    496.355    495.566
 41.570    489.141    502.909    -13.768    495.402    502.112    495.402    496.201    495.402
 41.670    506.000    503.490      2.510    495.240    502.682    495.240    496.050    495.240
 41.770    561.000    504.357     56.643    495.079    503.539    495.079    495.901    495.079
 41.870    507.000    505.763      1.237    494.920    504.933    494.920    495.754    494.920
 41.970    474.000    508.222    -34.222    494.763    507.381    494.763    495.609    494.763
 42.070    553.325    512.665     40.660    494.608    511.813    494.608    495.467    494.608
 42.170    494.000    520.473    -26.473    494.455    519.611    494.455    495.326    494.455
 42.270    533.000    533.189     -0.189    494.303    532.320    494.303    495.188    494.303
 42.370    525.000    551.725    -26.725    494.153    550.851    494.153    495.052    494.153
 42.470    547.000    575.149    -28.149    494.005    574.271    494.005    494.918    494.005
 42.570    626.346    599.404     26.942    493.858    598.526    493.858    494.787    493.858
 42.670    615.000    616.956     -1.956    493.713    616.073    493.713    494.658    493.713
 42.770    581.000    619.872    -38.872    493.571    618.978    493.571    494.531    493.571
 42.870    645.323    606.460     38.863    493.429    605.544    493.429    494.407    493.429
 42.970    585.000    583.228      1.772    493.290    582.283    493.290    494.285    493.290
 43.070    538.000    558.621    -20.621    493.152    557.644    493.152    494.166    493.152
 43.170    542.000    537.981      4.019    493.017    536.973    493.017    494.049    493.017
 43.270    554.000    523.156     30.844    492.883    522.119    492.883    493.935    492.883
 43.370    512.000    513.698     -1.698    492.750    512.635    492.750    493.823    492.750
 43.470    493.181    508.149    -14.967    492.620    507.061    492.620    493.714    492.620
 43.570    501.000    505.004     -4.004    492.491    503.893    492.491    493.607    492.491
 43.670    505.000    503.169      1.831    492.364    502.034    492.364    493.504    492.364
 43.770    494.454    502.005     -7.551    492.239    500.844    492.239    493.403    492.239
 43.870    541.000    501.190     39.810    492.116    500.004    492.116    493.305    492.116
 43.970    494.000    500.577     -6.577    491.994    499.364    491.994    493.209    491.994
 44.070    466.002    500.096    -34.094    491.874    498.854    491.874    493.117    491.874
 44.170    521.000    499.710     21.290    491.756    498.440    491.756    493.028    491.756
 44.270    495.000    499.399     -4.399    491.640    498.099    491.640    492.942    491.640
 44.370    525.000    499.148     25.852    491.525    497.815    491.525    492.859    491.525
 44.470    506.000    498.944      7.056    491.412    497.578    491.412    492.780    491.412
 44.570    468.748    498.782    -30.035    491.301    497.381    491.301    492.704    491.301
 44.670    516.152    498.655     17.497    491.192    497.217    491.192    492.631    491.192
 44.770    463.000    498.559    -35.559    491.085    497.082    491.085    492.563    491.085
 44.870    497.000    498.491     -1.491    490.979    496.972    490.979    492.498    490.979
 44.970    499.000    498.448      0.552    490.875    496.886    490.875    492.437    490.875
 45.070    478.000    498.428    -20.428    490.773    496.821    490.773    492.381    490.773
 45.170    469.204    498.432    -29.228    490.672    496.776    490.672    492.328    490.672
 45.270    515.684    498.458     17.226    490.573    496.751    490.573    492.281    490.573
 45.370    444.000    498.506    -54.506    490.476    496.744    490.476    492.238    490.476
 45.470    478.000    498.577    -20.577    490.381    496.757    490.381    492.201    490.381
 45.570    535.000    498.671     36.329    490.287    496.790    490.287    492.168    490.287
 45.670    521.081    498.790     22.291    490.195    496.843    490.195    492.142    490.195
 45.770    490.692    498.934     -8.242    490.105    496.918    490.105    492.122    490.105
 45.870    517.000    499.107     17.893    490.017    497.016    490.017    492.108    490.017
 45.970    520.000    499.311     20.689    489.930    497.139    489.930    492.101    489.930
 46.070    489.000    499.549    -10.549    489.845    497.292    489.845    492.102    489.845
 46.170    471.000    499.826    -28.826    489.762    497.476    489.762    492.111    489.762
 46.270    518.000    500.147     17.853    489.681    497.697    489.681    492.129    489.681
 46.370    499.000    500.519     -1.519    489.601    497.962    489.601    492.157    489.601
 46.470    465.401    500.952    -35.551    489.523    498.279    489.523    492.195    489.523
 46.570    491.000    501.459    -10.459    489.446    498.659    489.446    492.245    489.446
 46.670    476.749    502.058    -25.309    489.372    499.122    489.372    492.307    489.372
 46.770    483.000    502.785    -19.785    489.299    499.698    489.299    492.384    489.299
 46.870    482.346    503.702    -21.356    489.227    500.451    489.227    492.477    489.227
 46.970    514.000    504.940      9.060    489.158    501.508    489.158    492.587    489.158
 47.070    509.000    506.750      2.250    489.090    503.119    489.090    492.718    489.090
 47.170    543.208    509.571     33.636    489.023    505.718    489.023    492.871    489.023
 47.270    523.000    514.060      8.940    488.959    509.958    488.959    493.052    488.959
 47.370    539.000    521.008     17.992    488.896    516.628    488.896    493.262    488.896
 47.470    507.000    531.071    -24.071    488.835    526.377    488.835    493.508    488.835
 47.570    549.000    544.311      4.689    488.775    539.261    488.775    493.796    488.775
 47.670    584.000    559.648     24.352    488.717    554.194    488.717    494.131    488.717
 47.770    545.083    574.399    -29.315    488.661    568.486    488.661    494.524    488.661
 47.870    619.000    584.454     34.546    488.606    578.022    488.606    494.983    488.606
 47.970    592.000    586.193      5.807    488.553    579.172    488.553    495.521    488.553
 48.070    575.000    579.422     -4.422    488.501    571.727    488.501    496.151    488.501
 48.170    565.000    567.583     -2.583    488.452    559.112    488.452    496.887    488.452
 48.270    563.000    554.934      8.066    488.403    545.565    488.403    497.747    488.403
 48.370    538.000    544.394     -6.394    488.357    533.985    488.357    498.748    488.357
 48.470    495.318    537.249    -41.932    488.312    525.642    488.312    499.909    488.312
 48.570    509.000    533.598    -24.598    488.269    520.613    488.269    501.247    488.269
 48.670    534.000    532.898      1.102    488.227    518.343    488.227    502.778    488.227
 48.770    531.820    534.444     -2.624    488.187    518.117    488.187    504.511    488.187
 48.870    520.520    537.665    -17.146    488.148    519.364    488.148    506.448    488.148
 48.970    483.000    542.242    -59.242    488.111    521.782    488.111    508.570    488.111
 49.070    562.000    548.139     13.861    488.076    525.378    488.076    510.836    488.076
 49.170    584.000    555.734     28.266    488.042    530.610    488.042    513.164    488.042
 49.270    590.121    566.295     23.826    488.010    538.870    488.010    515.431    488.010
 49.370    578.000    583.185     -5.185    487.979    553.694    487.979    517.462    487.979
 49.470    547.000    614.084    -67.084    487.950    582.963    487.950    519.053    487.950
 49.570    680.289    673.768      6.522    487.922    641.646    487.922    520.006    487.922
 49.670    823.000    785.183     37.817    487.896    752.825    487.896    520.187    487.896
 49.770    957.990    974.732    -16.742    487.871    942.933    487.871    519.566    487.871
 49.870   1197.524   1258.496    -60.972    487.848   1227.974    487.848    518.235    487.848
 49.970   1620.049   1622.055     -2.006    487.827   1593.371    487.827    516.369    487.827
 50.070   1986.000   2004.488    -18.488    487.807   1978.015    487.807    514.176    487.807
 50.170   2330.000   2300.797     29.203    487.788   2276.720    487.788    511.848    487.788
 50.270   2379.000   2398.743    -19.743    487.771   2377.071    487.771    509.534    487.771
 50.370   2182.000   2253.275    -71.275    487.755   2233.869    487.755    507.333    487.755
 50.470   1913.000   1928.517    -15.517    487.741   1911.154    487.741    505.302    487.741
 50.570   1587.559   1542.319     45.240    487.729   1526.758    487.729    503.471    487.729
 50.670   1137.887   1193.885    -55.998    487.718   1179.900    487.718    501.844    487.718
 50.770    917.000    934.790    -17.790    487.708    922.181    487.708    500.415    487.708
 50.870    746.000    771.424    -25.424    487.700    760.019    487.700    499.173    487.700
 50.970    670.190    682.690    -12.500    487.693    672.335    487.693    498.098    487.693
 51.070    676.000    639.531     36.469    487.687    630.086    487.687    497.174    487.687
 51.170    589.049    617.533    -28.483    487.683    608.871    487.683    496.382    487.683
 51.270    641.402    601.901     39.501    487.681    593.911    487.681    495.705    487.681
 51.370    576.000    587.083    -11.083    487.680    579.665    487.680    495.127    487.680
 51.470    597.000    572.786     24.214    487.680    565.855    487.680    494.634    487.680
 51.570    570.000    560.133      9.867    487.682    553.618    487.682    494.214    487.682
 51.670    561.000    549.994     11.006    487.685    543.835    487.685    493.856    487.685
 51.770    522.000    542.642    -20.642    487.689    536.789    487.689    493.551    487.689
 51.870    493.143    537.866    -44.723    487.695    532.276    487.695    493.292    487.695
 51.970    591.000    535.209     55.791    487.702    529.845    487.702    493.072    487.702
 52.070    545.653    534.196     11.456    487.710    529.025    487.710    492.886    487.710
 52.170    572.000    534.485     37.515    487.720    529.480    487.720    492.729    487.720
 52.270    535.000    535.948     -0.948    487.731    531.084    487.731    492.599    487.731
 52.370    593.000    538.735     54.265    487.744    533.989    487.744    492.492    487.744
 52.470    540.832    543.403     -2.571    487.758    538.758    487.758    492.406    487.758
 52.570    515.029    551.172    -36.143    487.773    546.608    487.773    492.339    487.773
 52.670    568.000    564.280      3.720    487.789    559.782    487.789    492.289    487.789
 52.770    631.000    586.326     44.674    487.807    581.880    487.807    492.254    487.807
 52.870    627.000    622.237      4.763    487.826    617.828    487.826    492.235    487.826
 52.970    704.000    677.448     26.552    487.846    673.065    487.846    492.229    487.846
 53.070    761.672    755.998      5.673    487.868    751.630    487.868    492.236    487.868
 53.170    834.422    857.719    -23.297    487.890    853.357    487.890    492.255    487.890
 53.270    952.638    975.163    -22.525    487.914    970.800    487.914    492.287    487.914
 53.370   1120.000   1091.050     28.950    487.940   1086.681    487.940    492.330    487.940
 53.470   1132.000   1178.135    -46.135    487.966   1173.751    487.966    492.384    487.966
 53.570   1194.000   1207.304    -13.304    487.994   1202.895    487.994    492.450    487.994
 53.670   1191.369   1166.668     24.701    488.023   1162.218    488.023    492.527    488.023
 53.770   1078.000   1072.478      5.522    488.053   1067.969    488.053    492.614    488.053
 53.870    902.069    955.022    -52.953    488.084    950.438    488.084    492.713    488.084
 53.970    855.708    840.166     15.542    488.116    835.496    488.116    492.823    488.116
 54.070    730.000    743.239    -13.239    488.150    738.471    488.150    492.945    488.150
 54.170    680.521    670.081     10.439    488.185    665.207    488.185    493.078    488.185
 54.270    647.000    619.817     27.183    488.221    614.826    488.221    493.224    488.221
 54.370    606.000    587.926     18.074    488.258    582.811    488.258    493.382    488.258
 54.470    592.000    568.937     23.063    488.296    563.686    488.296    493.554    488.296
 54.570    590.070    558.124     31.946    488.335    552.726    488.335    493.739    488.335
 54.670    564.000    552.156     11.844    488.376    546.597    488.376    493.939    488.376
 54.770    504.276    549.007    -44.731    488.417    543.273    488.417    494.155    488.417
 54.870    601.000    547.586     53.414    488.460    541.662    488.460    494.387    488.460
 54.970    531.000    547.360    -16.360    488.503    541.230    488.503    494.636    488.503
 55.070    620.000    548.094     71.906    488.548    541.741    488.548    494.905    488.548
 55.170    605.000    549.711     55.289    488.594    543.113    488.594    495.194    488.594
 55.270    552.000    552.218     -0.218    488.641    545.356    488.641    495.506    488.641
 55.370    584.661    555.697     28.964    488.688    548.548    488.688    495.841    488.688
 55.470    584.000    560.331     23.669    488.737    552.869    488.737    496.202    488.737
 55.570    585.000    566.470     18.530    488.787    558.668    488.787    496.593    488.787
 55.670    566.000    574.830     -8.830    488.838    566.657    488.838    497.015    488.838
 55.770    595.000    586.867      8.133    488.890    578.288    488.890    497.471    488.890
 55.870    613.000    605.451      7.549    488.943    596.427    488.943    497.967    488.943
 55.970    657.000    635.834     21.166    488.997    626.322    488.997    498.506    488.997
 56.070    666.000    686.680    -20.680    489.052    676.630    489.052    499.094    489.052
 56.170    785.263    770.480     14.783    489.107    759.834    489.107    499.737    489.107
 56.270    855.000    902.302    -47.302    489.164    890.998    489.164    500.443    489.164
 56.370   1078.000   1095.899    -17.899    489.222   1083.867    489.222    501.220    489.222
 56.470   1311.000   1357.087    -46.087    489.280   1344.254    489.280    502.081    489.280
 56.570   1596.000   1675.830    -79.830    489.340   1662.116    489.340    503.039    489.340
 56.670   1973.309   2019.460    -46.150    489.400   2004.774    489.400    504.108    489.400
 56.770   2306.000   2330.077    -24.077    489.461   2314.316    489.461    505.309    489.461
 56.870   2499.720   2532.775    -33.055    489.523   2515.805    489.523    506.664    489.523
 56.970   2502.914   2564.707    -61.793    489.586   2546.345    489.586    508.199    489.586
 57.070   2391.000   2415.019    -24.019    489.650   2395.021    489.650    509.947    489.650
 57.170   2160.000   2133.819     26.181    489.715   2111.895    489.715    511.941    489.715
 57.270   1779.000   1797.263    -18.263    489.780   1773.090    489.780    514.223    489.780
 57.370   1421.753   1470.726    -48.973    489.847   1443.954    489.847    516.837    489.847
 57.470   1213.000   1194.937     18.063    489.914   1165.182    489.914    519.832    489.914
 57.570    939.000    986.532    -47.532    489.982    953.368    489.982    523.260    489.982
 57.670    827.097    844.037    -16.940    490.051    806.989    490.051    527.174    490.051
 57.770    745.834    755.825     -9.991    490.120    714.366    490.120    531.626    490.120
 57.870    739.000    707.570     31.430    490.190    661.124    490.190    536.666    490.190
 57.970    664.811    687.283    -22.472    490.261    635.229    490.261    542.332    490.261
 58.070    638.606    687.445    -48.839    490.333    629.139    490.333    548.647    490.333
 58.170    729.000    704.865     24.135    490.405    639.666    490.405    555.604    490.405
 58.270    709.263    739.230    -29.967    490.479    666.548    490.479    563.151    490.479
 58.370    810.000    791.138     18.862    490.552    710.503    490.552    571.168    490.552
 58.470    797.000    860.166    -63.166    490.627    771.322    490.627    579.442    490.627
 58.570    927.000    943.289    -16.289    490.702    846.316    490.702    587.640    490.702
 58.670    996.273   1033.967    -37.694    490.778    929.404    490.778    595.306    490.778
 58.770   1167.843   1122.801     45.042    490.855   1011.752    490.855    601.877    490.855
 58.870   1222.003   1200.480     21.523    490.932   1084.640    490.932    606.760    490.932
 58.970   1284.089   1259.935     24.154    491.010   1141.512    491.010    609.442    491.010
 59.070   1362.949   1294.853     68.096    491.088   1176.354    491.088    609.618    491.088
 59.170   1363.000   1299.648     63.352    491.167   1183.585    491.167    607.276    491.167
 59.270   1199.677   1274.772    -75.094    491.247   1163.362    491.247    602.705    491.247
 59.370   1285.000   1230.283     54.717    491.327   1125.240    491.327    596.406    491.327
 59.470   1162.000   1181.239    -19.239    491.408   1083.684    491.408    588.974    491.408
 59.570   1080.204   1141.725    -61.521    491.490   1052.216    491.490    580.974    491.490
 59.670   1176.156   1123.686     52.469    491.572   1042.318    491.572    572.873    491.572
 59.770   1078.772   1137.161    -58.389    491.654   1063.691    491.654    565.012    491.654
 59.870   1184.000   1187.443     -3.443    491.737   1121.408    491.737    557.612    491.737
 59.970   1289.000   1270.655     18.345    491.821   1211.473    491.821    550.799    491.821
 60.070   1421.000   1371.372     49.628    491.905   1318.412    491.905    544.630    491.905
 60.170   1509.000   1463.564     45.436    491.989   1416.192    491.989    539.113    491.989
 60.270   1534.336   1516.032     18.304    492.074   1473.645    492.074    534.230    492.074
 60.370   1492.000   1504.320    -12.320    492.160   1466.346    492.160    529.941    492.160
 60.470   1459.000   1424.190     34.810    492.246   1390.092    492.246    526.199    492.246
 60.570   1281.000   1293.622    -12.622    492.332   1262.905    492.332    522.953    492.332
 60.670   1085.579   1140.923    -55.344    492.419   1113.135    492.419    520.149    492.419
 60.770   1033.000    992.001     40.999    492.506    966.740    492.506    517.736    492.506
 60.870    817.000    864.426    -47.426    492.594    841.339    492.594    515.665    492.594
 60.970    781.000    766.661     14.339    492.682    745.442    492.682    513.891    492.682
 61.070    664.000    699.892    -35.892    492.770    680.279    492.770    512.374    492.770
 61.170    650.560    661.171    -10.611    492.859    642.942    492.859    511.076    492.859
 61.270    654.000    646.712      7.288    492.948    629.676    492.948    509.965    492.948
 61.370    608.777    654.270    -45.493    493.037    638.268    493.037    509.011    493.037
 61.470    667.000    684.045    -17.045    493.127    668.943    493.127    508.186    493.127
 61.570    763.473    738.026     25.447    493.217    723.714    493.217    507.466    493.217
 61.670    777.000    818.064    -41.064    493.308    804.458    493.308    506.828    493.308
 61.770    899.000    923.242    -24.242    493.398    910.277    493.398    506.253    493.398
 61.870   1040.000   1047.299     -7.299    493.489   1034.934    493.489    505.724    493.489
 61.970   1116.000   1176.916    -60.916    493.581   1165.127    493.581    505.227    493.581
 62.070   1293.000   1291.607      1.393    493.672   1280.385    493.672    504.755    493.672
 62.170   1362.000   1366.765     -4.765    493.764   1356.107    493.764    504.302    493.764
 62.270   1411.188   1381.979     29.209    493.856   1371.878    493.856    503.869    493.856
 62.370   1252.000   1332.167    -80.167    493.948   1322.605    493.948    503.457    493.948
 62.470   1261.878   1231.127     30.750    494.041   1222.074    494.041    503.069    494.041
 62.570   1065.000   1102.909    -37.909    494.133   1094.332    494.133    502.707    494.133
 62.670    931.000    970.767    -39.767    494.226    962.628    494.226    502.372    494.226
 62.770    892.894    851.542     41.351    494.319    843.807    494.319    502.066    494.319
 62.870    750.000    754.494     -4.494    494.412    747.129    494.412    501.788    494.412
 62.970    679.000    682.189     -3.189    494.505    675.165    494.505    501.537    494.505
 63.070    664.301    632.460     31.841    494.599    625.750    494.599    501.313    494.599
 63.170    579.875    600.724    -20.849    494.692    594.304    494.692    501.113    494.692
 63.270    578.526    581.991     -3.465    494.786    575.839    494.786    500.936    494.786
 63.370    594.671    572.145     22.527    494.880    566.239    494.880    500.781    494.880
 63.470    603.000    568.501     34.499    494.973    562.822    494.973    500.646    494.973
 63.570    589.770    569.866     19.904    495.067    564.396    495.067    500.529    495.067
 63.670    582.000    576.352      5.648    495.161    571.072    495.161    500.428    495.161
 63.770    614.303    589.099     25.204    495.255    583.993    495.255    500.343    495.255
 63.870    641.000    609.916     31.084    495.349    604.967    495.349    500.272    495.349
 63.970    688.000    640.781     47.219    495.443    635.974    495.443    500.213    495.443
 64.070    658.000    683.159    -25.159    495.538    678.478    495.538    500.166    495.538
 64.170    707.882    737.174    -29.292    495.632    732.607    495.632    500.130    495.632
 64.270    811.000    800.762     10.238    495.726    796.300    495.726    500.103    495.726
 64.370    907.000    868.972     38.028    495.820    864.608    495.820    500.086    495.820
 64.470    973.000    933.726     39.274    495.914    929.456    495.914    500.077    495.914
 64.570    984.000    984.772     -0.772    496.008    980.597    496.008    500.075    496.008
 64.670   1045.000   1012.642     32.358    496.101   1008.565    496.101    500.081    496.101
 64.770    975.161   1012.551    -37.390    496.195   1008.573    496.195    500.093    496.195
 64.870   1050.000    986.174     63.826    496.289    982.293    496.289    500.111    496.289
 64.970    978.000    940.259     37.741    496.382    936.472    496.382    500.135    496.382
 65.070    897.000    883.892     13.108    496.476    880.192    496.476    500.164    496.476
 65.170    778.000    825.653    -47.653    496.569    822.030    496.569    500.199    496.569
 65.270    797.000    771.559     25.441    496.663    768.005    496.663    500.238    496.663
 65.370    707.317    724.546    -17.229    496.756    721.049    496.756    500.282    496.756
 65.470    684.000    685.238     -1.238    496.848    681.789    496.848    500.330    496.848
 65.570    611.000    653.171    -42.171    496.941    649.761    496.941    500.382    496.941
 65.670    584.000    627.605    -43.605    497.034    624.227    497.034    500.438    497.034
 65.770    584.000    607.736    -23.736    497.126    604.385    497.126    500.498    497.126
 65.870    581.000    592.715    -11.715    497.218    589.387    497.218    500.562    497.218
 65.970    612.884    581.721     31.164    497.310    578.412    497.310    500.630    497.310
 66.070    592.000    574.041     17.959    497.402    570.750    497.402    500.700    497.402
 66.170    542.000    569.107    -27.107    497.493    565.830    497.493    500.775    497.493
 66.270    541.000    566.476    -25.476    497.584    563.212    497.584    500.852    497.584
 66.370    563.000    565.824     -2.824    497.675    562.569    497.675    500.933    497.675
 66.470    593.000    566.959     26.041    497.766    563.710    497.766    501.018    497.766
 66.570    508.000    569.878    -61.878    497.856    566.632    497.856    501.105    497.856
 66.670    602.000    574.880     27.120    497.946    571.634    497.946    501.196    497.946
 66.770    625.490    582.747     42.743    498.036    579.496    498.036    501.290    498.036
 66.870    571.547    595.011    -23.464    498.125    591.752    498.125    501.388    498.125
 66.970    630.000    614.317     15.683    498.214    611.044    498.214    501.489    498.214
 67.070    630.000    644.796    -14.796    498.302    641.506    498.302    501.593    498.302
 67.170    666.801    692.294    -25.493    498.391    688.981    498.391    501.701    498.391
 67.270    755.186    764.187     -9.001    498.478    760.848    498.478    501.812    498.478
 67.370    860.000    868.501     -8.501    498.566    865.135    498.566    501.927    498.566
 67.470   1054.190   1012.153     42.038    498.653   1008.761    498.653    502.047    498.653
 67.570   1253.094   1198.414     54.680    498.739   1195.001    498.739    502.170    498.739
 67.670   1407.000   1424.068    -17.068    498.826   1420.642    498.826    502.297    498.826
 67.770   1594.000   1676.934    -82.934    498.911   1673.506    498.911    502.429    498.911
 67.870   1901.000   1934.369    -33.369    498.997   1930.951    498.997    502.565    498.997
 67.970   2269.000   2163.370    105.630    499.081   2159.970    499.081    502.706    499.081
 68.070   2280.136   2324.249    -44.113    499.166   2320.866    499.166    502.853    499.166
 68.170   2392.000   2381.538     10.462    499.250   2378.154    499.250    503.005    499.250
 68.270   2350.000   2320.767     29.233    499.333   2317.347    499.333    503.163    499.333
 68.370   2095.193   2157.309    -62.116    499.416   2153.811    499.416    503.327    499.416
 68.470   2032.000   1927.072    104.928    499.498   1923.456    499.498    503.498    499.498
 68.570   1763.000   1669.692     93.308    499.580   1665.930    499.580    503.676    499.580
 68.670   1459.000   1417.866     41.134    499.661   1413.939    499.661    503.863    499.661
 68.770   1169.000   1193.868    -24.868    499.742   1189.767    499.742    504.057    499.742
 68.870    967.000   1009.536    -42.536    499.822   1005.256    499.822    504.262    499.822
 68.970    851.000    867.812    -16.812    499.901    863.351    499.901    504.476    499.901
 69.070    739.000    765.244    -26.244    499.980    760.602    499.980    504.701    499.980
 69.170    697.000    694.830      2.170    500.058    690.004    500.058    504.939    500.058
 69.270    692.271    648.528     43.743    500.136    643.512    500.136    505.190    500.136
 69.370    601.917    618.989    -17.072    500.213    613.773    500.213    505.455    500.213
 69.470    587.000    600.402    -13.402    500.289    594.973    500.289    505.737    500.289
 69.570    588.000    588.655     -0.655    500.365    582.998    500.365    506.037    500.365
 69.670    581.000    581.090     -0.090    500.440    575.184    500.440    506.357    500.440
 69.770    578.000    576.113      1.887    500.514    569.937    500.514    506.700    500.514
 69.870    610.000    572.829     37.171    500.588    566.356    500.588    507.069    500.588
 69.970    562.000    570.759     -8.759    500.661    563.960    500.661    507.467    500.661
 70.070    594.000    569.666     24.334    500.733    562.507    500.733    507.898    500.733
 70.170    555.092    569.454    -14.362    500.805    561.895    500.805    508.368    500.805
 70.270    534.000    570.124    -36.124    500.876    562.120    500.876    508.884    500.876
 70.370    585.000    571.784     13.216    500.946    563.279    500.946    509.453    500.946
 70.470    529.375    574.679    -45.305    501.015    565.611    501.015    510.085    501.015
 70.570    565.000    579.286    -14.286    501.084    569.577    501.084    510.792    501.084
 70.670    625.263    586.434     38.829    501.151    575.994    501.151    511.589    501.151
 70.770    601.000    597.489      3.511    501.218    586.207    501.218    512.494    501.218
 70.870    599.782    614.538    -14.756    501.284    602.282    501.284    513.530    501.284
 70.970    660.041    640.548     19.493    501.350    627.160    501.350    514.722    501.350
 71.070    648.029    679.378    -31.349    501.414    664.666    501.414    516.100    501.414
 71.170    730.000    735.523     -5.523    501.478    719.261    501.478    517.701    501.478
 71.270    768.000    813.490    -45.490    501.541    795.413    501.541    519.563    501.541
 71.370    929.000    916.772     12.228    501.603    896.572    501.603    521.729    501.603
 71.470    999.000   1046.520    -47.520    501.664   1023.842    501.664    524.245    501.664
 71.570   1161.000   1200.146    -39.146    501.724   1174.595    501.724    527.158    501.724
 71.670   1351.000   1370.164    -19.164    501.784   1341.300    501.784    530.512    501.784
 71.770   1474.832   1543.487    -68.656    501.842   1510.834    501.842    534.348    501.842
 71.870   1655.000   1701.501    -46.501    501.900   1664.555    501.900    538.698    501.900
 71.970   1803.000   1821.823    -18.823    501.956   1780.067    501.956    543.577    501.956
 72.070   1961.700   1883.328     78.372    502.012   1836.252    502.012    548.981    502.012
 72.170   1956.966   1874.164     82.802    502.067   1821.287    502.067    554.872    502.067
 72.270   1836.596   1797.562     39.034    502.120   1738.480    502.120    561.169    502.120
 72.370   1594.841   1669.987    -75.146    502.173   1604.435    502.173    567.724    502.173
 72.470   1451.980   1513.578    -61.598    502.225   1441.513    502.225    574.311    502.225
 72.570   1305.000   1349.171    -44.171    502.276   1270.872    502.276    580.609    502.276
 72.670   1165.000   1192.799    -27.799    502.326   1108.958    502.326    586.207    502.326
 72.770   1006.677   1054.783    -48.105    502.375    966.561    502.375    590.637    502.375
 72.870    998.000    940.088     57.912    502.423    849.095    502.423    593.453    502.423
 72.970    822.000    849.352    -27.352    502.470    757.520    502.470    594.334    502.470
 73.070    775.273    780.268     -4.995    502.516    689.633    502.516    593.176    502.516
 73.170    697.492    729.010    -31.518    502.560    641.466    502.560    590.126    502.560
 73.270    698.000    691.411      6.589    502.604    608.499    502.604    585.533    502.604
 73.370    620.414    663.725    -43.311    502.647    586.528    502.647    579.857    502.647
 73.470    698.000    642.988     55.012    502.688    572.129    502.688    573.560    502.688
 73.570    668.000    627.085     40.915    502.729    562.787    502.729    567.039    502.729
 73.670    596.999    614.631    -17.633    502.768    556.814    502.768    560.598    502.768
 73.770    566.000    604.788    -38.788    502.807    553.161    502.807    554.448    502.807
 73.870    621.000    597.075     23.925    502.844    551.213    502.844    548.722    502.844
 73.970    588.000    591.208     -3.208    502.880    550.614    502.880    543.493    502.880
 74.070    632.163    586.969     45.194    502.915    551.115    502.915    538.792    502.915
 74.170    610.000    584.126     25.874    502.949    552.483    502.949    534.619    502.949
 74.270    617.632    582.381     35.252    502.982    554.441    502.982    530.955    502.982
 74.370    619.000    581.342     37.658    503.013    556.629    503.013    527.765    503.013
 74.470    606.043    580.524     25.518    503.044    558.603    503.044    525.008    503.044
 74.570    581.295    579.389      1.906    503.073    559.870    503.073    522.640    503.073
 74.670    627.000    577.461     49.539    503.101    559.999    503.101    520.612    503.101
 74.770    572.264    574.493     -2.229    503.128    558.788    503.128    518.881    503.128
 74.870    552.667    570.571    -17.904    503.153    556.368    503.153    517.402    503.153
 74.970    549.663    566.067    -16.404    503.178    553.147    503.178    516.139    503.178
 75.070    544.009    561.490    -17.481    503.201    549.670    503.201    515.055    503.201
 75.170    588.000    557.374     30.626    503.223    546.502    503.223    514.123    503.223
 75.270    554.000    554.234     -0.234    503.244    544.183    503.244    513.315    503.244
 75.370    598.088    552.566     45.522    503.263    543.231    503.263    512.612    503.263
 75.470    569.264    552.858     16.406    503.281    544.152    503.281    511.995    503.281
 75.570    579.000    555.597     23.403    503.298    547.446    503.298    511.450    503.298
 75.670    608.000    561.245     46.755    503.314    553.588    503.314    510.966    503.314
 75.770    565.000    570.191     -5.191    503.329    562.975    503.329    510.532    503.329
 75.870    554.000    582.659    -28.659    503.342    575.839    503.342    510.142    503.342
 75.970    610.000    598.595     11.405    503.354    592.133    503.354    509.789    503.354
 76.070    570.151    617.548    -47.396    503.364    611.410    503.364    509.467    503.364
 76.170    609.272    638.565    -29.293    503.373    632.723    503.373    509.173    503.373
 76.270    659.000    660.134     -1.134    503.381    654.562    503.381    508.904    503.381
 76.370    682.708    680.182      2.527    503.388    674.860    503.388    508.655    503.388
 76.470    690.000    696.221     -6.221    503.393    691.132    503.393    508.426    503.393
 76.570    652.000    705.756    -53.756    503.397    700.884    503.397    508.213    503.397
 76.670    721.463    707.006     14.457    503.400    702.338    503.400    508.015    503.400
 76.770    696.346    699.630     -3.284    503.401    695.153    503.401    507.831    503.401
 76.870    663.000    684.888    -21.888    503.401    680.591    503.401    507.658    503.401
 76.970    661.000    665.086     -4.086    503.399    660.956    503.399    507.496    503.399
 77.070    648.000    642.769      5.231    503.396    638.796    503.396    507.344    503.396
 77.170    604.000    620.176    -16.176    503.392    616.348    503.392    507.201    503.392
 77.270    605.109    598.998      6.112    503.387    595.305    503.387    507.066    503.387
 77.370    605.129    580.340     24.789    503.380    576.773    503.380    506.937    503.380
 77.470    579.000    564.761     14.239    503.371    561.310    503.371    506.815    503.371
 77.570    508.706    552.358    -43.653    503.361    549.015    503.361    506.700    503.361
 77.670    543.106    542.897      0.209    503.350    539.655    503.350    506.589    503.350
 77.770    559.524    535.944     23.580    503.337    532.796    503.337    506.483    503.337
 77.870    532.000    530.987      1.013    503.323    527.927    503.323    506.382    503.323
 77.970    572.082    527.530     44.551    503.307    524.552    503.307    506.284    503.307
 78.070    525.000    525.145     -0.145    503.290    522.245    503.290    506.190    503.290
 78.170    501.063    523.499    -22.435    503.272    520.670    503.272    506.100    503.272
 78.270    529.000    522.348      6.652    503.252    519.588    503.252    506.012    503.252
 78.370    479.624    521.530    -41.906    503.230    518.833    503.230    505.927    503.230
 78.470    506.000    520.941    -14.941    503.208    518.303    503.208    505.845    503.208
 78.570    484.000    520.522    -36.522    503.183    517.940    503.183    505.766    503.183
 78.670    495.000    520.243    -25.243    503.157    517.712    503.157    505.688    503.157
 78.770    477.000    520.094    -43.094    503.130    517.611    503.130    505.612    503.130
 78.870    512.154    520.079     -7.926    503.101    517.641    503.101    505.539    503.101
 78.970    516.000    520.206     -4.206    503.071    517.809    503.071    505.467    503.071
 79.070    517.000    520.473     -3.473    503.039    518.114    503.039    505.397    503.039
 79.170    540.858    520.970     19.887    503.005    518.647    503.005    505.328    503.005
 79.270    513.000    521.698     -8.698    502.971    519.406    502.971    505.261    502.971
 79.370    527.671    522.685      4.987    502.934    520.421    502.934    505.196    502.934
 79.470    493.916    523.969    -30.053    502.896    521.731    502.896    505.132    502.896
 79.570    535.297    525.600      9.697    502.857    523.385    502.857    505.069    502.857
 79.670    509.918    527.647    -17.729    502.816    525.453    502.816    505.007    502.816
 79.770    526.000    530.210     -4.210    502.773    528.033    502.773    504.946    502.773
 79.870    567.000    533.432     33.568    502.729    531.271    502.729    504.886    502.729
 79.970    536.000    537.515     -1.515    502.683    535.368    502.683    504.826    502.683
 80.070    583.000    542.734     40.266    502.636    540.600    502.636    504.766    502.636
 80.170    584.000    549.447     34.553    502.587    547.326    502.587    504.706    502.587
 80.270    512.252    558.076    -45.824    502.537    555.966    502.537    504.646    502.537
 80.370    607.000    569.044     37.956    502.485    566.946    502.485    504.584    502.485
 80.470    559.888    582.677    -22.789    502.431    580.594    502.431    504.519    502.431
 80.570    601.240    599.096      2.144    502.376    597.029    502.376    504.452    502.376
 80.670    635.000    618.122     16.878    502.320    616.073    502.320    504.382    502.320
 80.770    659.000    639.216     19.784    502.261    637.188    502.261    504.307    502.261
 80.870    683.000    661.469     21.531    502.202    659.467    502.202    504.228    502.202
 80.970    662.000    683.667    -21.667    502.140    681.693    502.140    504.145    502.140
 81.070    742.717    704.441     38.276    502.077    702.497    502.077    504.059    502.077
 81.170    679.822    722.465    -42.643    502.012    720.554    502.012    503.968    502.012
 81.270    763.711    736.614     27.098    501.946    734.736    501.946    503.875    501.946
 81.370    710.000    746.048    -36.048    501.878    744.204    501.878    503.780    501.878
 81.470    728.515    750.282    -21.767    501.809    748.471    501.809    503.683    501.809
 81.570    782.000    749.207     32.793    501.738    747.428    501.738    503.584    501.738
 81.670    699.000    743.057    -44.057    501.665    741.307    501.665    503.485    501.665
 81.770    733.000    732.353      0.647    501.590    730.630    501.590    503.386    501.590
 81.870    703.504    717.933    -14.430    501.514    716.235    501.514    503.286    501.514
 81.970    684.186    700.933    -16.747    501.437    699.257    501.437    503.186    501.437
 82.070    667.000    682.596    -15.596    501.357    680.938    501.357    503.085    501.357
 82.170    690.000    664.009     25.991    501.277    662.367    501.277    502.985    501.277
 82.270    636.000    645.926     -9.926    501.194    644.298    501.194    502.885    501.194
 82.370    646.000    628.771     17.229    501.110    627.155    501.110    502.784    501.110
 82.470    579.000    612.768    -33.768    501.024    611.162    501.024    502.683    501.024
 82.570    594.000    598.087     -4.087    500.936    596.487    500.936    502.582    500.936
 82.670    614.643    584.919     29.724    500.847    583.325    500.847    502.481    500.847
 82.770    559.173    573.474    -14.301    500.757    571.884    500.757    502.379    500.757
 82.870    555.000    563.945     -8.945    500.664    562.358    500.664    502.277    500.664
 82.970    535.000    556.476    -21.476    500.570    554.889    500.570    502.174    500.570
 83.070    560.000    551.150      8.850    500.474    549.564    500.474    502.071    500.474
 83.170    576.000    547.981     28.019    500.377    546.394    500.377    501.967    500.377
 83.270    562.000    546.899     15.101    500.278    545.310    500.278    501.862    500.278
 83.370    548.000    547.735      0.265    500.177    546.142    500.177    501.756    500.177
 83.470    527.000    550.211    -23.211    500.075    548.614    500.075    501.650    500.075
 83.570    535.000    553.935    -18.935    499.971    552.334    499.971    501.543    499.971
 83.670    515.313    558.409    -43.097    499.865    556.805    499.865    501.434    499.865
 83.770    521.306    563.046    -41.740    499.758    561.437    499.758    501.325    499.758
 83.870    509.000    567.197    -58.197    499.649    565.585    499.649    501.215    499.649
 83.970    604.185    570.219     33.967    499.538    568.605    499.538    501.104    499.538
 84.070    616.212    571.567     44.645    499.426    569.953    499.426    500.991    499.426
 84.170    604.922    570.924     33.997    499.312    569.311    499.312    500.878    499.312
 84.270    567.447    568.280     -0.833    499.196    566.668    499.196    500.763    499.196
 84.370    579.061    563.919     15.142    499.078    562.310    499.078    500.648    499.078
 84.470    595.586    558.316     37.270    498.959    556.709    498.959    500.531    498.959
 84.570    583.410    552.010     31.400    498.839    550.407    498.839    500.414    498.839
 84.670    564.000    545.511     18.489    498.716    543.909    498.716    500.295    498.716
 84.770    497.746    539.240    -41.494    498.592    537.638    498.592    500.175    498.592
 84.870    533.000    533.513     -0.513    498.467    531.911    498.467    500.054    498.467
 84.970    492.441    528.533    -36.092    498.339    526.929    498.339    499.931    498.339
 85.070    535.000    524.395     10.605    498.210    522.788    498.210    499.808    498.210
 85.170    546.000    521.110     24.890    498.080    519.499    498.080    499.684    498.080
 85.270    533.000    518.624     14.376    497.947    517.007    497.947    499.558    497.947
 85.370    542.000    516.848     25.152    497.813    515.224    497.813    499.431    497.813
 85.470    554.949    515.681     39.268    497.678    514.050    497.678    499.304    497.678
 85.570    560.783    515.032     45.750    497.540    513.392    497.540    499.175    497.540
 85.670    528.000    514.833     13.167    497.401    513.184    497.401    499.045    497.401
 85.770    564.000    515.049     48.951    497.261    513.389    497.261    498.914    497.261
 85.870    527.000    515.684     11.316    497.118    514.012    497.118    498.782    497.118
 85.970    516.574    516.781     -0.207    496.974    515.097    496.974    498.649    496.974
 86.070    548.000    518.422     29.578    496.829    516.724    496.829    498.515    496.829
 86.170    532.000    520.725     11.275    496.681    519.012    496.681    498.380    496.681
 86.270    483.768    523.829    -40.062    496.533    522.099    496.533    498.244    496.533
 86.370    504.000    527.887    -23.887    496.382    526.139    496.382    498.107    496.382
 86.470    535.000    533.043      1.957    496.230    531.274    496.230    497.969    496.230
 86.570    574.000    539.405     34.595    496.076    537.614    496.076    497.830    496.076
 86.670    553.000    547.023      5.977    495.920    545.207    495.920    497.690    495.920
 86.770    527.000    555.847    -28.847    495.763    554.005    495.763    497.550    495.763
 86.870    558.607    565.707     -7.100    495.605    563.837    495.605    497.409    495.605
 86.970    585.387    576.282      9.106    495.444    574.382    495.444    497.267    495.444
 87.070    544.615    587.091    -42.476    495.282    585.162    495.282    497.124    495.282
 87.170    620.447    597.495     22.952    495.119    595.538    495.119    496.980    495.119
 87.270    636.624    606.726     29.898    494.953    604.740    494.953    496.836    494.953
 87.370    680.000    613.961     66.039    494.787    611.949    494.787    496.691    494.787
 87.470    631.000    618.461     12.539    494.618    616.426    494.618    496.546    494.618
 87.570    632.967    619.753     13.214    494.448    617.696    494.448    496.400    494.448
 87.670    607.164    617.771    -10.607    494.276    615.696    494.276    496.254    494.276
 87.770    668.000    612.879     55.121    494.103    610.787    494.103    496.107    494.103
 87.870    621.000    605.758     15.242    493.928    603.651    493.928    495.960    493.928
 87.970    607.000    597.253      9.747    493.752    595.128    493.752    495.813    493.752
 88.070    563.000    588.237    -25.237    493.574    586.095    493.574    495.665    493.574
 88.170    575.000    579.532     -4.532    493.394    577.370    493.394    495.518    493.394
 88.270    591.000    571.845     19.155    493.213    569.661    493.213    495.370    493.213
 88.370    631.000    565.734     65.266    493.030    563.524    493.030    495.223    493.030
 88.470    605.136    561.580     43.556    492.846    559.342    492.846    495.076    492.846
 88.570    524.019    559.579    -35.559    492.660    557.311    492.660    494.929    492.660
 88.670    521.000    559.741    -38.741    492.473    557.441    492.473    494.783    492.473
 88.770    565.000    561.903      3.097    492.284    559.567    492.284    494.637    492.284
 88.870    610.000    565.738     44.262    492.093    563.364    492.093    494.492    492.093
 88.970    558.000    570.782    -12.782    491.901    568.367    491.901    494.349    491.901
 89.070    590.851    576.455     14.397    491.708    573.997    491.708    494.206    491.708
 89.170    578.666    582.092     -3.426    491.513    579.588    491.513    494.065    491.513
 89.270    590.000    586.987      3.013    491.316    584.431    491.316    493.926    491.316
 89.370    596.000    590.457      5.543    491.118    587.846    491.118    493.789    491.118
 89.470    617.494    591.949     25.545    490.918    589.277    490.918    493.654    490.918
 89.570    567.166    591.151    -23.985    490.717    588.412    490.717    493.522    490.717
 89.670    615.579    588.060     27.519    490.515    585.246    490.515    493.393    490.515
 89.770    590.000    582.961      7.039    490.310    580.065    490.310    493.269    490.310
 89.870    609.959    576.337     33.622    490.105    573.352    490.105    493.149    490.105
 89.970    567.000    568.752     -1.752    489.898    565.669    489.898    493.034    489.898
 90.070    575.578    560.751     14.827    489.689    557.562    489.689    492.925    489.689
 90.170    498.000    552.816    -54.816    489.479    549.512    489.479    492.824    489.479
 90.270    499.000    545.330    -46.330    489.268    541.902    489.268    492.730    489.268
 90.370    521.000    538.572    -17.572    489.055    535.010    489.055    492.645    489.055
 90.470    484.000    532.712    -48.712    488.841    529.004    488.841    492.571    488.841
 90.570    485.998    527.817    -41.819    488.625    523.950    488.625    492.510    488.625
 90.670    491.655    523.928    -32.273    488.408    519.888    488.408    492.461    488.408
 90.770    501.000    520.972    -19.972    488.190    516.743    488.190    492.428    488.190
 90.870    532.000    518.860     13.140    487.970    514.425    487.970    492.412    487.970
 90.970    478.233    517.492    -39.259    487.748    512.830    487.748    492.415    487.748
 91.070    509.000    516.774     -7.774    487.526    511.864    487.526    492.439    487.526
 91.170    551.000    516.634     34.366    487.302    511.450    487.302    492.486    487.302
 91.270    546.500    517.028     29.472    487.076    511.546    487.076    492.559    487.076
 91.370    509.346    517.954     -8.608    486.849    512.143    486.849    492.659    486.849
 91.470    527.000    519.447      7.553    486.621    513.277    486.621    492.789    486.621
 91.570    496.000    521.587    -25.587    486.392    515.025    486.392    492.950    486.392
 91.670    554.293    524.493     29.801    486.161    517.503    486.161    493.145    486.161
 91.770    529.000    528.318      0.682    485.929    520.864    485.929    493.376    485.929
 91.870    529.000    533.244     -4.244    485.696    525.287    485.696    493.643    485.696
 91.970    536.245    539.468     -3.223    485.461    530.969    485.461    493.947    485.461
 92.070    473.000    547.186    -74.186    485.225    538.105    485.225    494.289    485.225
 92.170    548.444    556.571     -8.127    484.988    546.870    484.988    494.668    484.988
 92.270    557.000    567.757    -10.757    484.750    557.397    484.750    495.082    484.750
 92.370    534.000    580.809    -46.809    484.510    569.756    484.510    495.529    484.510
 92.470    628.000    595.705     32.295    484.269    583.930    484.269    496.005    484.269
 92.570    656.000    612.314     43.686    484.027    599.793    484.027    496.502    484.027
 92.670    609.000    630.392    -21.392    483.784    617.112    483.784    497.013    483.784
 92.770    619.000    649.553    -30.553    483.539    635.511    483.539    497.524    483.539
 92.870    620.117    669.283    -49.166    483.293    654.492    483.293    498.022    483.293
 92.970    665.000    688.963    -23.963    483.047    673.454    483.047    498.488    483.047
 93.070    674.088    707.930    -33.842    482.799    691.756    482.799    498.902    482.799
 93.170    742.997    725.582     17.415    482.549    708.817    482.549    499.242    482.549
 93.270    749.000    741.494      7.506    482.299    724.235    482.299    499.486    482.299
 93.370    727.000    755.497    -28.497    482.048    737.862    482.048    499.611    482.048
 93.470    732.566    767.665    -35.099    481.795    749.788    481.795    499.603    481.795
 93.570    767.000    778.228    -11.228    481.541    760.253    481.541    499.449    481.541
 93.670    803.000    787.458     15.542    481.287    769.533    481.287    499.148    481.287
 93.770    828.000    795.594     32.406    481.031    777.860    481.031    498.705    481.031
 93.870    848.000    802.899     45.101    480.774    785.485    480.774    498.130    480.774
 93.970    853.000    809.735     43.265    480.516    792.753    480.516    497.443    480.516
 94.070    870.000    816.455     53.545    480.257    799.995    480.257    496.666    480.257
 94.170    880.637    823.461     57.175    479.997    807.590    479.997    495.820    479.997
 94.270    813.000    831.051    -18.051    479.736    815.814    479.736    494.928    479.736
 94.370    826.000    839.251    -13.251    479.474    824.672    479.474    494.010    479.474
 94.470    879.355    847.717     31.638    479.211    833.805    479.211    493.084    479.211
 94.570    868.000    855.743     12.257    478.947    842.492    478.947    492.164    478.947
 94.670    849.000    862.268    -13.268    478.683    849.660    478.683    491.261    478.683
 94.770    920.061    866.042     54.019    478.417    854.052    478.417    490.383    478.417
 94.870    940.000    865.826     74.174    478.150    854.422    478.150    489.537    478.150
 94.970    867.000    860.656      6.344    477.883    849.802    477.883    488.727    477.883
 95.070    890.000    850.098     39.902    477.614    839.755    477.614    487.956    477.614
 95.170    943.000    834.394    108.606    477.345    824.519    477.345    487.225    477.345
 95.270    830.000    814.427     15.573    477.075    804.977    477.075    486.535    477.075
 95.370    818.000    791.551     26.449    476.804    782.484    476.804    485.886    476.804
 95.470    796.000    767.385     28.615    476.532    758.658    476.532    485.277    476.532
 95.570    756.000    743.633     12.367    476.260    735.204    476.260    484.707    476.260
 95.670    731.382    721.971      9.411    475.986    713.800    475.986    484.174    475.986
 95.770    726.000    703.973     22.027    475.712    696.022    475.712    483.677    475.712
 95.870    658.066    691.064    -32.999    475.438    683.297    475.438    483.215    475.438
 95.970    669.292    684.499    -15.208    475.162    676.880    475.162    482.786    475.162
 96.070    663.000    685.339    -22.339    474.886    677.837    474.886    482.387    474.886
 96.170    666.000    694.448    -28.448    474.609    687.030    474.609    482.018    474.609
 96.270    757.347    712.473     44.874    474.331    705.112    474.331    481.676    474.331
 96.370    783.000    739.828     43.172    474.053    732.496    474.053    481.361    474.053
 96.470    760.000    776.648    -16.648    473.774    769.319    473.774    481.071    473.774
 96.570    787.317    822.739    -35.422    473.495    815.388    473.495    480.805    473.495
 96.670    833.946    877.500    -43.554    473.214    870.105    473.214    480.562    473.214
 96.770    959.000    939.863     19.137    472.934    932.401    472.934    480.343    472.934
 96.870   1038.385   1008.227     30.158    472.652   1000.677    472.652    480.146    472.652
 96.970   1120.000   1080.424     39.576    472.371   1072.764    472.371    479.971    472.371
 97.070   1201.550   1153.707     47.844    472.088   1145.917    472.088    479.820    472.088
 97.170   1255.914   1224.786     31.128    471.806   1216.846    471.806    479.693    471.806
 97.270   1213.000   1289.935    -76.935    471.522   1281.822    471.522    479.590    471.522
 97.370   1322.000   1345.200    -23.200    471.239   1336.892    471.239    479.514    471.239
 97.470   1379.000   1386.824     -7.824    470.954   1378.295    470.954    479.467    470.954
 97.570   1364.480   1411.784    -47.305    470.670   1403.006    470.670    479.449    470.670
 97.670   1393.000   1418.315    -25.315    470.385   1409.255    470.385    479.466    470.385
 97.770   1436.000   1406.307     29.693    470.099   1396.927    470.099    479.519    470.099
 97.870   1430.000   1377.264     52.736    469.814   1367.522    469.814    479.613    469.814
 97.970   1388.000   1333.938     54.062    469.527   1323.784    469.527    479.752    469.527
 98.070   1226.000   1279.803    -53.803    469.241   1269.184    469.241    479.941    469.241
 98.170   1259.000   1218.600     40.400    468.954   1207.456    468.954    480.185    468.954
 98.270   1165.000   1154.010     10.990    468.667   1142.275    468.667    480.490    468.667
 98.370   1151.866   1089.459     62.407    468.380   1077.062    468.380    480.863    468.380
 98.470   1030.000   1028.014      1.986    468.093   1014.878    468.093    481.310    468.093
 98.570   1021.253    972.336     48.917    467.805    958.376    467.805    481.840    467.805
 98.670    895.000    924.661    -29.661    467.517    909.786    467.517    482.458    467.517
 98.770    925.000    886.816     38.184    467.229    870.927    467.229    483.174    467.229
 98.870    832.000    860.233    -28.233    466.941    843.226    466.941    483.995    466.941
 98.970    898.336    845.990     52.346    466.653    827.751    466.653    484.929    466.653
 99.070    831.000    844.841    -13.841    466.365    825.252    466.365    485.983    466.365
 99.170    906.307    857.257     49.050    466.076    836.190    466.076    487.164    466.076
 99.270    860.000    883.440    -23.440    465.788    860.765    465.788    488.479    465.788
 99.370    888.000    923.331    -35.331    465.500    898.910    465.500    489.933    465.500
 99.470    999.831    976.581     23.250    465.211    950.274    465.211    491.529    465.211
 99.570   1021.000   1042.512    -21.512    464.923   1014.178    464.923    493.271    464.923
 99.670   1168.420   1120.060     48.360    464.635   1089.555    464.635    495.159    464.635
 99.770   1166.178   1207.709    -41.531    464.346   1174.895    464.346    497.189    464.346
 99.870   1279.000   1303.439    -24.439    464.058   1268.183    464.058    499.356    464.058
 99.970   1459.000   1404.687     54.313    463.770   1366.866    463.770    501.651    463.770
100.070   1488.679   1508.352    -19.673    463.482   1467.857    463.482    504.057    463.482
100.170   1592.000   1610.880    -18.880    463.195   1567.625    463.195    506.555    463.195
100.270   1694.000   1708.448    -14.448    462.907   1662.373    462.907    509.115    462.907
100.370   1877.991   1797.266     80.725    462.620   1748.348    462.620    511.701    462.620
100.470   1822.000   1873.879    -51.879    462.333   1822.138    462.333    514.266    462.333
100.570   1908.000   1935.415    -27.415    462.047   1880.928    462.047    516.754    462.047
100.670   2079.000   1979.672     99.328    461.760   1922.580    461.760    519.100    461.760
100.770   1909.000   2005.071    -96.071    461.474   1945.586    461.474    521.229    461.474
100.870   2057.000   2010.618     46.382    461.189   1949.032    461.189    523.064    461.189
100.970   1959.486   1996.028    -36.542    460.904   1932.707    460.904    524.526    460.904
101.070   2006.000   1961.987     44.013    460.619   1897.370    460.619    525.545    460.619
101.170   1948.000   1910.408     37.592    460.335   1844.990    460.335    526.063    460.335
101.270   1793.000   1844.456    -51.456    460.051   1778.769    460.051    526.043    460.051
101.370   1767.000   1768.248     -1.248    459.768   1702.835    459.768    525.474    459.768
101.470   1722.000   1686.317     35.683    459.485   1621.710    459.485    524.370    459.485
101.570   1672.708   1603.073     69.635    459.203   1539.765    459.203    522.771    459.203
101.670   1501.189   1522.402    -21.214    458.921   1460.829    458.921    520.735    458.921
101.770   1486.566   1447.346     39.220    458.640   1387.872    458.640    518.334    458.640
101.870   1391.000   1380.046     10.954    458.360   1322.958    458.360    515.648    458.360
101.970   1330.000   1321.719      8.281    458.080   1267.228    458.080    512.753    458.080
102.070   1267.000   1272.694     -5.694    457.801   1220.938    457.801    509.724    457.801
102.170   1213.842   1232.486    -18.643    457.523   1183.537    457.523    506.624    457.523
102.270   1252.000   1199.898     52.102    457.246   1153.776    457.246    503.510    457.246
102.370   1169.000   1173.167     -4.167    456.969   1129.845    456.969    500.426    456.969
102.470   1148.479   1150.146     -1.666    456.694   1109.560    456.694    497.408    456.694
102.570   1085.000   1128.541    -43.541    456.419   1090.600    456.419    494.485    456.419
102.670   1089.000   1106.198    -17.198    456.145   1070.790    456.145    491.677    456.145
102.770   1144.000   1081.390     62.610    455.872   1048.387    455.872    488.998    455.872
102.870   1030.224   1053.028    -22.804    455.600   1022.292    455.600    486.458    455.600
102.970   1014.000   1020.741     -6.741    455.329    992.128    455.329    484.061    455.329
103.070    935.320    984.799    -49.479    455.059    958.162    455.059    481.811    455.059
103.170    998.442    945.937     52.505    454.790    921.130    454.790    479.708    454.790
103.270    850.589    905.154    -54.565    454.522    882.033    454.522    477.747    454.522
103.370    872.000    863.542      8.458    454.255    841.968    454.255    475.926    454.255
103.470    848.000    822.171     25.829    453.990    802.010    453.990    474.239    453.990
103.570    832.000    782.009     49.991    453.725    763.135    453.725    472.680    453.725
103.670    786.000    743.883     42.117    453.462    726.175    453.462    471.242    453.462
103.770    735.000    708.446     26.554    453.200    691.794    453.200    469.916    453.200
103.870    723.000    676.169     46.831    452.940    660.468    452.940    468.696    452.940
103.970    671.000    647.338     23.662    452.681    632.493    452.681    467.573    452.681
104.070    611.000    622.066    -11.066    452.423    607.989    452.423    466.540    452.423
104.170    618.000    600.314     17.686    452.166    586.924    452.166    465.589    452.166
104.270    574.645    581.920     -7.275    451.911    569.146    451.911    464.713    451.911
104.370    570.000    566.633      3.367    451.658    554.409    451.658    463.904    451.658
104.470    597.656    554.147     43.509    451.406    542.414    451.406    463.157    451.406
104.570    585.770    544.128     41.642    451.155    532.832    451.155    462.466    451.155
104.670    570.000    536.244     33.756    450.906    525.337    450.906    461.824    450.906
104.770    532.000    530.183      1.817    450.659    519.622    450.659    461.228    450.659
104.870    564.906    525.669     39.238    450.413    515.416    450.413    460.672    450.413
104.970    511.813    522.470    -10.657    450.169    512.492    450.169    460.152    450.169
105.070    474.808    520.405    -45.597    449.927    510.669    449.927    459.665    449.927
105.170    499.111    519.340    -20.229    449.686    509.819    449.686    459.207    449.686
105.270    512.000    519.189     -7.189    449.448    509.858    449.448    458.777    449.448
105.370    485.121    519.909    -34.788    449.211    510.746    449.211    458.371    449.211
105.470    572.000    521.496     50.504    448.976    512.479    448.976    457.987    448.976
105.570    540.593    523.975     16.618    448.743    515.086    448.743    457.625    448.743
105.670    551.274    527.397     23.877    448.512    518.618    448.512    457.281    448.512
105.770    545.000    531.826     13.174    448.282    523.142    448.282    456.955    448.282
105.870    530.000    537.332     -7.332    448.055    528.728    448.055    456.645    448.055
105.970    574.454    543.973     30.481    447.830    535.435    447.830    456.351    447.830
106.070    557.704    551.783      5.920    447.607    543.298    447.607    456.072    447.607
106.170    558.000    560.764     -2.764    447.387    552.320    447.387    455.808    447.387
106.270    546.000    570.869    -24.869    447.168    562.455    447.168    455.557    447.168
106.370    590.813    582.000      8.813    446.952    573.604    446.952    455.319    446.952
106.470    564.000    594.001    -30.001    446.737    585.613    446.737    455.094    446.737
106.570    604.000    606.655     -2.655    446.526    598.265    446.526    454.881    446.526
106.670    618.000    619.686     -1.686    446.316    611.285    446.316    454.681    446.316
106.770    668.376    632.777     35.599    446.109    624.356    446.109    454.492    446.109
106.870    619.000    645.556    -26.556    445.904    637.105    445.904    454.316    445.904
106.970    631.000    657.626    -26.626    445.702    649.137    445.702    454.152    445.702
107.070    645.710    668.585    -22.875    445.503    660.050    445.503    453.999    445.503
107.170    683.000    678.062      4.938    445.305    669.472    445.305    453.858    445.305
107.270    651.000    685.763    -34.763    445.111    677.110    445.111    453.729    445.111
107.370    651.000    691.517    -40.517    444.919    682.792    444.919    453.612    444.919
107.470    658.024    695.312    -37.287    444.730    686.506    444.730    453.507    444.730
107.570    702.000    697.307      4.693    444.543    688.411    444.543    453.414    444.543
107.670    659.000    697.818    -38.818    444.360    688.823    444.360    453.334    444.360
107.770    651.969    697.236    -45.267    444.179    688.133    444.179    453.267    444.179
107.870    702.000    695.994      6.006    444.001    686.772    444.001    453.212    444.001
107.970    688.261    694.501     -6.240    443.826    685.149    443.826    453.171    443.826
108.070    689.000    693.103     -4.103    443.653    683.611    443.653    453.143    443.653
108.170    729.959    692.055     37.904    443.484    682.411    443.484    453.129    443.484
108.270    672.000    691.502    -19.502    443.318    681.695    443.318    453.130    443.318
108.370    705.000    691.475     13.525    443.155    681.493    443.155    453.147    443.155
108.470    671.774    691.886    -20.112    442.995    681.716    442.995    453.179    442.995
108.570    668.280    692.536    -24.256    442.838    682.164    442.838    453.227    442.838
108.670    657.000    693.126    -36.126    442.685    682.538    442.685    453.293    442.685
108.770    693.000    693.286     -0.286    442.534    682.468    442.534    453.376    442.534
108.870    652.000    692.612    -40.612    442.387    681.547    442.387    453.479    442.387
108.970    653.142    690.718    -37.576    442.244    679.388    442.244    453.603    442.244
109.070    727.000    687.292     39.708    442.103    675.680    442.103    453.747    442.103
109.170    664.845    682.148    -17.302    441.967    670.233    441.967    453.915    441.967
109.270    660.000    675.251    -15.251    441.833    663.012    441.833    454.107    441.833
109.370    654.000    666.720    -12.720    441.703    654.133    441.703    454.325    441.703
109.470    694.000    656.791     37.209    441.577    643.831    441.577    454.572    441.577
109.570    693.687    645.784     47.904    441.455    632.423    441.455    454.849    441.455
109.670    643.000    634.053      8.947    441.336    620.263    441.336    455.159    441.336
109.770    649.000    621.960     27.040    441.221    607.707    441.221    455.504    441.221
109.870    604.000    609.844     -5.844    441.109    595.093    441.109    455.888    441.109
109.970    619.000    598.012     20.988    441.002    582.725    441.002    456.315    441.002
110.070    586.000    586.730     -0.730    440.898    570.864    440.898    456.787    440.898
110.170    612.299    576.216     36.083    440.799    559.726    440.799    457.309    440.799
110.270    576.000    566.643      9.357    440.703    549.478    440.703    457.886    440.703
110.370    578.218    558.132     20.085    440.611    540.236    440.611    458.523    440.611
110.470    578.000    550.759     27.241    440.524    532.072    440.524    459.224    440.524
110.570    550.000    544.558      5.442    440.440    525.011    440.440    459.997    440.440
110.670    522.320    539.522    -17.202    440.361    519.044    440.361    460.847    440.361
110.770    552.395    535.619     16.776    440.286    514.129    440.286    461.781    440.286
110.870    564.393    532.788     31.605    440.215    510.200    440.215    462.807    440.215
110.970    563.000    530.954     32.046    440.149    507.173    440.149    463.933    440.149
111.070    524.000    530.033     -6.033    440.087    504.955    440.087    465.166    440.087
111.170    539.342    529.935      9.407    440.029    503.448    440.029    466.516    440.029
111.270    487.413    530.573    -43.160    439.976    502.557    439.976    467.991    439.976
111.370    558.000    531.863     26.137    439.928    502.187    439.928    469.601    439.928
111.470    524.725    533.728     -9.003    439.884    502.254    439.884    471.355    439.884
111.570    506.874    536.104    -29.230    439.845    502.682    439.845    473.262    439.845
111.670    530.000    538.932     -8.932    439.810    503.404    439.810    475.333    439.810
111.770    573.000    542.168     30.832    439.780    504.365    439.780    477.577    439.780
111.870    557.000    545.776     11.224    439.755    505.522    439.755    480.003    439.755
111.970    580.458    549.733     30.725    439.735    506.842    439.735    482.619    439.735
112.070    571.763    554.026     17.737    439.720    508.305    439.720    485.434    439.720
112.170    600.178    558.656     41.522    439.710    509.903    439.710    488.456    439.710
112.270    524.697    563.631    -38.934    439.705    511.640    439.705    491.689    439.705
112.370    570.796    568.970      1.826    439.705    513.528    439.705    495.139    439.705
112.470    570.000    574.701     -4.701    439.710    515.593    439.710    498.810    439.710
112.570    600.578    580.861     19.716    439.721    517.871    439.721    502.703    439.721
112.670    565.000    587.496    -22.496    439.736    520.408    439.736    506.817    439.736
112.770    565.000    594.658    -29.658    439.757    523.259    439.757    511.148    439.757
112.870    563.000    602.378    -39.378    439.784    526.463    439.784    515.690    439.784
112.970    592.000    610.839    -18.839    439.815    530.214    439.815    520.432    439.815
113.070    625.000    620.118      4.882    439.853    534.601    439.853    525.360    439.853
113.170    585.564    630.358    -44.794    439.896    539.790    439.896    530.453    439.896
113.270    634.000    641.758     -7.758    439.944    546.003    439.944    535.687    439.944
113.370    678.000    654.569     23.431    439.998    553.525    439.998    541.028    439.998
113.470    627.229    669.121    -41.893    440.058    562.726    440.058    546.438    440.058
113.570    718.395    685.834     32.561    440.124    574.072    440.124    551.868    440.124
113.670    707.544    705.240      2.304    440.195    588.153    440.195    557.260    440.195
113.770    689.936    728.006    -38.070    440.273    605.702    440.273    562.550    440.273
113.870    715.000    754.956    -39.956    440.356    627.618    440.356    567.662    440.356
113.970    739.430    787.093    -47.663    440.446    654.986    440.446    572.513    440.446
114.070    855.164    825.617     29.547    440.541    689.097    440.541    577.014    440.541
114.170    832.000    871.943    -39.943    440.643    731.454    440.643    581.074    440.643
114.270    979.590    927.700     51.890    440.751    783.780    440.751    584.600    440.751
114.370    986.000    994.732     -8.732    440.865    848.005    440.865    587.506    440.865
114.470   1070.000   1075.074     -5.074    440.985    926.239    440.985    589.716    440.985
114.570   1207.000   1170.914     36.086    441.112   1020.730    441.112    591.171    441.112
114.670   1347.000   1284.529     62.471    441.246   1133.795    441.246    591.831    441.246
114.770   1443.000   1418.205     24.795    441.385   1267.735    441.385    591.680    441.385
114.870   1560.000   1574.123    -14.123    441.532   1424.724    441.532    590.727    441.532
114.970   1842.000   1754.232     87.768    441.685   1606.678    441.685    589.004    441.685
115.070   1951.908   1960.100     -8.192    441.845   1815.111    441.845    586.566    441.845
115.170   2260.000   2192.749     67.251    442.011   2050.976    442.011    583.484    442.011
115.270   2418.268   2452.499    -34.232    442.185   2314.508    442.185    579.843    442.185
115.370   2754.000   2738.809     15.191    442.365   2605.078    442.365    575.732    442.365
115.470   2942.000   3050.140   -108.140    442.553   2921.056    442.553    571.244    442.553
115.570   3375.000   3383.848     -8.848    442.747   3259.709    442.747    566.471    442.747
115.670   3646.813   3736.116    -89.303    442.948   3617.137    442.948    561.496    442.948
115.770   4238.000   4101.925    136.075    443.157   3988.245    443.157    556.397    443.157
115.870   4372.176   4475.082   -102.906    443.373   4366.772    443.373    551.244    443.373
115.970   4779.000   4848.289    -69.289    443.596   4745.362    443.596    546.096    443.596
116.070   5141.000   5213.277    -72.277    443.827   5115.696    443.827    541.004    443.827
116.170   5452.917   5560.992   -108.075    444.065   5468.681    444.065    536.010    444.065
116.270   5857.000   5881.859    -24.859    444.310   5794.704    444.310    531.149    444.310
116.370   6260.000   6166.134     93.866    444.563   6083.996    444.563    526.448    444.563
116.470   6384.727   6404.366    -19.638    444.824   6327.083    444.824    521.929    444.824
116.570   6502.333   6587.976    -85.643    445.092   6515.369    445.092    517.609    445.092
116.670   6714.000   6709.915      4.085    445.369   6641.789    445.369    513.500    445.369
116.770   6761.317   6765.306     -3.989    445.653   6701.454    445.653    509.608    445.653
116.870   6847.011   6751.957     95.055    445.944   6692.165    445.944    505.940    445.944
116.970   6813.000   6670.601    142.399    446.244   6614.649    446.244    502.496    446.244
117.070   6437.009   6524.804    -87.796    446.552   6472.467    446.552    499.275    446.552
117.170   6282.538   6320.559    -38.021    446.868   6271.612    446.868    496.277    446.868
117.270   6060.000   6065.686     -5.686    447.193   6019.906    447.193    493.495    447.193
117.370   5793.220   5769.167     24.053    447.525   5726.335    447.525    490.924    447.525
117.470   5530.705   5440.525     90.180    447.866   5400.431    447.866    488.558    447.866
117.570   4841.000   5089.313   -248.313    448.215   5051.752    448.215    486.389    448.215
117.670   4653.000   4724.708    -71.708    448.573   4689.487    448.573    484.408    448.573
117.770   4284.000   4355.220    -71.220    448.939   4322.155    448.939    482.606    448.939
117.870   4064.000   3988.471     75.529    449.314   3957.389    449.314    480.975    449.314
117.970   3768.000   3631.048    136.952    449.698   3601.788    449.698    479.504    449.698
118.070   3279.528   3288.417     -8.889    450.090   3260.830    450.090    478.185    450.090
118.170   3035.000   2964.891     70.109    450.491   2938.839    450.491    477.008    450.491
118.270   2587.416   2663.648    -76.232    450.902   2639.004    450.902    475.963    450.902
118.370   2391.000   2386.795      4.205    451.321   2363.442    451.321    475.043    451.321
118.470   2162.000   2135.462     26.538    451.749   2113.295    451.749    474.238    451.749
118.570   1861.000   1909.922    -48.922    452.186   1888.846    452.186    473.540    452.186
118.670   1662.000   1709.726    -47.726    452.633   1689.652    452.633    472.941    452.633
118.770   1575.027   1533.837     41.191    453.088   1514.686    453.088    472.434    453.088
118.870   1398.000   1380.771     17.229    453.554   1362.472    453.554    472.013    453.554
118.970   1308.129   1248.734     59.395    454.028   1231.221    454.028    471.670    454.028
119.070   1087.206   1135.740    -48.533    454.512   1118.954    454.512    471.401    454.512
119.170   1009.634   1039.725    -30.091    455.006   1023.613    455.006    471.199    455.006
119.270    968.037    958.638      9.399    455.509    943.150    455.509    471.059    455.509
119.370    940.000    890.510     49.490    456.022    875.602    456.022    470.978    456.022
119.470    860.380    833.509     26.872    456.545    819.139    456.545    470.950    456.545
119.570    793.000    785.971      7.029    457.078    772.102    457.078    470.973    457.078
119.670    739.000    746.418     -7.418    457.621    733.015    457.621    471.043    457.621
119.770    755.113    713.562     41.551    458.174    700.594    458.174    471.157    458.174
119.870    648.000    686.300    -38.300    458.737    673.736    458.737    471.312    458.737
119.970    710.359    663.701     46.658    459.310    651.513    459.310    471.506    459.310
120.070    628.000    644.985    -16.985    459.893    633.148    459.893    471.738    459.893
120.170    640.000    629.491     10.509    460.487    617.981    460.487    472.004    460.487
120.270    596.000    616.734    -20.734    461.091    605.529    461.091    472.303    461.091
120.370    607.000    606.291      0.709    461.706    595.369    461.706    472.635    461.706
120.470    605.000    597.809      7.191    462.331    587.150    462.331    472.997    462.331
120.570    628.188    591.012     37.176    462.967    580.599    462.967    473.388    462.967
120.670    601.695    585.683     16.013    463.614    575.497    463.614    473.808    463.614
120.770    537.000    581.644    -44.644    464.272    571.669    464.272    474.255    464.272
120.870    624.245    578.756     45.490    464.941    568.976    464.941    474.729    464.941
120.970    586.401    576.901      9.499    465.620    567.303    465.620    475.228    465.620
121.070    585.000    575.987      9.013    466.311    566.555    466.311    475.753    466.311
121.170    589.000    575.930     13.070    467.013    566.653    467.013    476.301    467.013
121.270    580.000    576.661      3.339    467.726    567.526    467.726    476.874    467.726
121.370    578.000    578.113     -0.113    468.451    569.109    468.451    477.470    468.451
121.470    532.000    580.225    -48.225    469.187    571.340    469.187    478.088    469.187
121.570    541.564    582.931    -41.367    469.934    574.156    469.934    478.728    469.934
121.670    605.000    586.167     18.833    470.693    577.491    470.693    479.389    470.693
121.770    593.933    589.861      4.072    471.464    581.277    471.464    480.071    471.464
121.870    617.368    593.937     23.431    472.246    585.437    472.246    480.773    472.246
121.970    629.000    598.314     30.686    473.041    589.889    473.041    481.494    473.041
122.070    610.716    602.900      7.817    473.847    594.545    473.847    482.233    473.847
122.170    640.341    607.599     32.742    474.666    599.309    474.666    482.990    474.666
122.270    636.000    612.309     23.691    475.496    604.079    475.496    483.763    475.496
122.370    618.288    616.922      1.366    476.339    608.749    476.339    484.552    476.339
122.470    578.297    621.326    -43.030    477.194    613.208    477.194    485.355    477.194
122.570    672.000    625.410     46.590    478.061    617.345    478.061    486.172    478.061
122.670    634.000    629.065      4.935    478.941    621.053    478.941    487.001    478.941
122.770    621.000    632.190    -11.190    479.833    624.232    479.833    487.841    479.833
122.870    683.000    634.698     48.302    480.738    626.797    480.738    488.691    480.738
122.970    573.000    636.521    -63.521    481.656    628.681    481.656    489.549    481.656
123.070    682.085    637.612     44.473    482.586    629.838    482.586    490.415    482.586
123.170    628.000    637.952     -9.952    483.530    630.249    483.530    491.288    483.530
123.270    587.827    637.546    -49.719    484.486    629.921    484.486    492.167    484.486
123.370    680.620    636.424     44.196    485.456    628.884    485.456    493.051    485.456
123.470    609.000    634.634    -25.634    486.438    627.187    486.438    493.939    486.438
123.570    594.620    632.241    -37.621    487.434    624.895    487.434    494.833    487.434
123.670    614.000    629.319    -15.319    488.444    622.082    488.444    495.731    488.444
123.770    614.700    625.950    -11.249    489.466    618.829    489.466    496.635    489.466
123.870    619.000    622.215     -3.215    490.503    615.218    490.503    497.545    490.503
123.970    630.000    618.198     11.802    491.553    611.332    491.553    498.462    491.553
124.070    652.000    613.980     38.020    492.616    607.250    492.616    499.386    492.616
124.170    632.000    609.635     22.365    493.694    603.046    493.694    500.319    493.694
124.270    606.000    605.234      0.766    494.785    598.790    494.785    501.262    494.785
124.370    644.000    600.839     43.161    495.891    594.543    495.891    502.216    495.891
124.470    653.000    596.503     56.497    497.010    590.358    497.010    503.182    497.010
124.570    610.000    592.273     17.727    498.144    586.280    498.144    504.161    498.144
124.670    613.000    588.186     24.814    499.292    582.346    499.292    505.153    499.292
124.770    620.000    584.273     35.727    500.454    578.584    500.454    506.161    500.454
124.870    597.385    580.555     16.831    501.631    575.017    501.631    507.184    501.631
124.970    553.000    577.050    -24.050    502.823    571.662    502.823    508.224    502.823
