neutron_powder_diffraction_0050
R_wp: 3.784
Temperature (K): 645.683
Counts: 83393.00
Wavelength (Ã…): 2.52098
COMMENTS
Test file for demonstrating the .xyy file format in Reel1.0
END OF HEADER
   tth       Y_obs     Y_calc      Y_res    Background    Phase_1_Nuc    Phase_1_Mag    Phase_2_Nuc    Phase_2_Mag
  9.970    657.000    675.638    -18.638    674.305    675.252    674.690    674.305    674.305
 10.070    629.002    674.944    -45.942    673.531    674.554    673.920    673.531    673.531
 10.170    693.000    674.263     18.737    672.759    673.869    673.152    672.759    672.759
 10.270    671.000    673.597     -2.597    671.989    673.199    672.387    671.989    671.989
 10.370    677.000    672.949      4.051    671.221    672.546    671.623    671.221    671.221
 10.470    717.254    672.321     44.934    670.455    671.913    670.862    670.455    670.455
 10.570    689.000    671.718     17.282    669.691    671.306    670.102    669.691    669.691
 10.670    740.000    671.146     68.854    668.929    670.729    669.345    668.929    668.929
 10.770    661.740    670.612     -8.871    668.170    670.190    668.590    668.170    668.170
 10.870    649.000    670.125    -21.125    667.413    669.699    667.838    667.413    667.413
 10.970    712.000    669.700     42.300    666.657    669.269    667.087    666.657    666.657
 11.070    739.000    669.355     69.645    665.904    668.919    666.339    665.904    665.904
 11.170    636.084    669.116    -33.032    665.153    668.675    665.593    665.153    665.153
 11.270    656.000    669.024    -13.024    664.405    668.577    664.849    664.405    664.405
 11.370    679.000    669.145      9.855    663.658    668.692    664.108    663.658    663.658
 11.470    702.000    669.595     32.405    662.914    669.137    663.368    662.914    662.914
 11.570    698.000    670.657     27.343    662.171    670.192    662.631    662.171    662.171
 11.670    752.000    673.009     78.991    661.431    672.537    661.897    661.431    661.431
 11.770    703.441    678.123     25.317    660.694    677.643    661.165    660.694    660.694
 11.870    712.792    688.512     24.280    659.958    688.020    660.435    659.958    659.958
 11.970    725.000    707.065     17.935    659.225    706.556    659.707    659.225    659.225
 12.070    812.000    734.699     77.301    658.494    734.168    658.982    658.494    658.494
 12.170    803.000    766.378     36.622    657.765    765.823    658.259    657.765    657.765
 12.270    772.000    788.099    -16.099    657.038    787.525    657.538    657.038    657.038
 12.370    781.000    785.103     -4.103    656.314    784.524    656.820    656.314    656.314
 12.470    785.000    759.260     25.740    655.592    758.689    656.104    655.592    655.592
 12.570    685.000    726.222    -41.222    654.872    725.663    655.391    654.872    654.872
 12.670    687.000    698.507    -11.507    654.155    697.957    654.680    654.155    654.155
 12.770    652.000    679.947    -27.947    653.439    679.401    653.971    653.439    653.439
 12.870    688.000    669.129     18.871    652.727    668.582    653.265    652.727    652.727
 12.970    642.639    663.191    -20.552    652.016    662.640    652.561    652.016    652.016
 13.070    664.088    659.745      4.343    651.308    659.189    651.860    651.308    651.308
 13.170    645.000    657.376    -12.376    650.602    656.814    651.161    650.602    650.602
 13.270    609.786    655.555    -45.769    649.898    654.986    650.464    649.898    649.898
 13.370    675.746    654.043     21.704    649.197    653.467    649.770    649.197    649.197
 13.470    643.000    652.729     -9.729    648.498    652.146    649.079    648.498    648.498
 13.570    668.219    651.554     16.666    647.802    650.964    648.390    647.802    647.802
 13.670    636.000    650.481    -14.481    647.107    649.884    647.704    647.107    647.107
 13.770    605.000    649.488    -44.488    646.416    648.882    647.020    646.416    646.416
 13.870    640.696    648.572     -7.876    645.726    647.958    646.339    645.726    645.726
 13.970    619.000    647.690    -28.690    645.039    647.068    645.660    645.039    645.039
 14.070    626.000    646.838    -20.838    644.355    646.208    644.984    644.355    644.355
 14.170    647.000    646.015      0.985    643.672    645.376    644.310    643.672    643.672
 14.270    618.000    645.218    -27.218    642.993    644.570    643.639    642.993    642.993
 14.370    626.000    644.441    -18.441    642.315    643.784    642.971    642.315    642.315
 14.470    614.000    643.681    -29.681    641.640    643.016    642.305    641.640    641.640
 14.570    625.103    642.936    -17.834    640.967    642.262    641.642    640.967    640.967
 14.670    658.000    642.205     15.795    640.297    641.521    640.981    640.297    640.297
 14.770    686.303    641.485     44.818    639.630    640.791    640.323    639.630    639.630
 14.870    662.011    640.775     21.237    638.964    640.071    639.668    638.964    638.964
 14.970    681.068    640.074     40.995    638.301    639.360    639.015    638.301    638.301
 15.070    612.000    639.381    -27.381    637.641    638.657    638.365    637.641    637.641
 15.170    640.151    638.696      1.456    636.983    637.961    637.718    636.983    636.983
 15.270    648.473    638.017     10.456    636.328    637.271    637.073    636.328    636.328
 15.370    632.256    637.345     -5.089    635.675    636.588    636.431    635.675    635.675
 15.470    611.000    636.679    -25.679    635.024    635.910    635.792    635.024    635.024
 15.570    633.447    636.019     -2.571    634.376    635.239    635.156    634.376    634.376
 15.670    627.755    635.364     -7.609    633.731    634.573    634.522    633.731    633.731
 15.770    652.000    634.720     17.280    633.087    633.916    633.891    633.087    633.087
 15.870    610.000    634.075    -24.075    632.447    633.259    633.263    632.447    632.447
 15.970    642.900    633.434      9.465    631.809    632.605    632.638    631.809    631.809
 16.070    667.281    632.798     34.483    631.173    631.955    632.015    631.173    631.173
 16.170    602.000    632.165    -30.165    630.540    631.310    631.395    630.540    630.540
 16.270    677.673    631.537     46.136    629.910    630.668    630.779    629.910    629.910
 16.370    638.000    630.913      7.087    629.282    630.030    630.165    629.282    629.282
 16.470    565.000    630.293    -65.293    628.656    629.395    629.553    628.656    628.656
 16.570    607.596    629.677    -22.080    628.033    628.764    628.945    628.033    628.033
 16.670    674.376    629.067     45.309    627.413    628.140    628.340    627.413    627.413
 16.770    582.081    628.462    -46.381    626.795    627.519    627.737    626.795    626.795
 16.870    650.467    627.870     22.598    626.179    626.911    627.138    626.179    626.179
 16.970    666.111    627.285     38.825    625.566    626.310    626.541    625.566    625.566
 17.070    593.000    626.689    -33.689    624.956    625.698    625.947    624.956    624.956
 17.170    588.000    626.095    -38.095    624.348    625.087    625.357    624.348    624.348
 17.270    592.000    625.505    -33.505    623.743    624.479    624.769    623.743    623.743
 17.370    607.000    624.921    -17.921    623.141    623.876    624.185    623.141    623.141
 17.470    588.833    624.338    -35.506    622.540    623.275    623.603    622.540    622.540
 17.570    577.358    623.759    -46.401    621.943    622.677    623.025    621.943    621.943
 17.670    633.000    623.183      9.817    621.348    622.081    622.450    621.348    621.348
 17.770    618.000    622.613     -4.613    620.756    621.491    621.877    620.756    620.756
 17.870    633.000    622.073     10.927    620.166    620.931    621.308    620.166    620.166
 17.970    659.083    621.557     37.527    619.579    620.393    620.743    619.579    619.579
 18.070    639.000    621.000     18.000    618.994    619.814    620.180    618.994    618.994
 18.170    611.000    620.443     -9.443    618.412    619.235    619.620    618.412    618.412
 18.270    606.000    619.892    -13.892    617.832    618.660    619.064    617.832    617.832
 18.370    623.000    619.354      3.646    617.256    618.099    618.511    617.256    617.256
 18.470    624.000    618.809      5.191    616.681    617.529    617.961    616.681    616.681
 18.570    607.000    618.266    -11.266    616.110    616.961    617.414    616.110    616.110
 18.670    574.000    617.727    -43.727    615.540    616.397    616.871    615.540    615.540
 18.770    638.479    617.197     21.282    614.974    615.839    616.332    614.974    614.974
 18.870    626.442    616.713      9.729    614.410    615.318    615.805    614.410    614.410
 18.970    640.796    616.210     24.585    613.849    614.782    615.277    613.849    613.849
 19.070    611.689    615.690     -4.000    613.290    614.232    614.748    613.290    613.290
 19.170    600.000    615.171    -15.171    612.734    613.683    614.222    612.734    612.734
 19.270    624.000    614.656      9.344    612.180    613.137    613.700    612.180    612.180
 19.370    622.000    614.146      7.854    611.630    612.594    613.181    611.630    611.630
 19.470    591.702    613.647    -21.945    611.081    612.062    612.666    611.081    611.081
 19.570    553.000    613.150    -60.150    610.536    611.530    612.155    610.536    610.536
 19.670    587.000    612.652    -25.652    609.993    610.997    611.648    609.993    609.993
 19.770    610.000    612.158     -2.158    609.452    610.467    611.144    609.452    609.452
 19.870    609.000    611.672     -2.672    608.915    609.943    610.644    608.915    608.915
 19.970    568.000    611.189    -43.189    608.379    609.420    610.148    608.379    608.379
 20.070    597.000    610.709    -13.709    607.847    608.899    609.656    607.847    607.847
 20.170    628.000    610.233     17.767    607.317    608.382    609.168    607.317    607.317
 20.270    589.000    609.762    -20.762    606.790    607.867    608.684    606.790    606.790
 20.370    643.582    609.296     34.286    606.265    607.356    608.205    606.265    606.265
 20.470    623.506    608.835     14.671    605.743    606.849    607.730    605.743    605.743
 20.570    578.816    608.384    -29.568    605.223    606.348    607.259    605.223    605.223
 20.670    619.000    607.964     11.036    604.707    605.874    606.797    604.707    604.707
 20.770    626.003    607.542     18.462    604.193    605.395    606.339    604.193    604.193
 20.870    596.000    607.134    -11.134    603.681    604.929    605.886    603.681    603.681
 20.970    605.000    606.723     -1.723    603.172    604.461    605.434    603.172    603.172
 21.070    605.000    606.299     -1.299    602.666    603.979    604.986    602.666    602.666
 21.170    567.166    605.897    -38.731    602.162    603.515    604.544    602.162    602.162
 21.270    606.000    605.533      0.467    601.661    603.087    604.107    601.661    601.661
 21.370    597.000    605.146     -8.146    601.163    602.634    603.675    601.163    601.163
 21.470    562.485    604.766    -42.281    600.667    602.185    603.248    600.667    600.667
 21.570    595.071    604.399     -9.327    600.174    601.746    602.827    600.174    600.174
 21.670    603.000    604.036     -1.036    599.684    601.308    602.412    599.684    599.684
 21.770    593.000    603.661    -10.661    599.196    600.855    602.002    599.196    599.196
 21.870    618.000    603.301     14.699    598.711    600.411    601.601    598.711    598.711
 21.970    608.000    602.946      5.054    598.228    599.970    601.205    598.228    598.228
 22.070    605.000    602.596      2.404    597.748    599.530    600.814    597.748    597.748
 22.170    594.000    602.256     -8.256    597.271    599.097    600.430    597.271    597.271
 22.270    603.000    601.928      1.072    596.796    598.671    600.053    596.796    596.796
 22.370    582.620    601.618    -18.998    596.324    598.257    599.685    596.324    596.324
 22.470    576.000    601.316    -25.316    595.855    597.847    599.324    595.855    595.855
 22.570    568.000    601.025    -33.025    595.388    597.444    598.969    595.388    595.388
 22.670    629.000    600.749     28.251    594.924    597.049    598.624    594.924    594.924
 22.770    607.000    600.488      6.512    594.462    596.664    598.286    594.462    594.462
 22.870    603.685    600.246      3.438    594.004    596.292    597.958    594.004    594.004
 22.970    652.000    600.025     51.975    593.547    595.933    597.640    593.547    593.547
 23.070    622.000    599.826     22.174    593.094    595.588    597.331    593.094    593.094
 23.170    610.000    599.652     10.348    592.643    595.262    597.034    592.643    592.643
 23.270    629.215    599.508     29.707    592.194    594.956    596.747    592.194    592.194
 23.370    573.000    599.400    -26.400    591.749    594.677    596.472    591.749    591.749
 23.470    558.454    599.335    -40.880    591.305    594.431    596.210    591.305    591.305
 23.570    620.000    599.317     20.683    590.865    594.222    595.962    590.865    590.865
 23.670    591.000    599.361     -8.361    590.427    594.062    595.727    590.427    590.427
 23.770    643.940    599.482     44.457    589.992    593.967    595.508    589.992    589.992
 23.870    623.457    599.702     23.754    589.559    593.958    595.305    589.559    589.559
 23.970    618.081    600.055     18.026    589.129    594.066    595.120    589.129    589.129
 24.070    556.244    600.601    -44.356    588.702    594.351    594.953    588.702    588.702
 24.170    588.662    601.461    -12.800    588.277    594.933    594.808    588.277    588.277
 24.270    612.000    602.919      9.081    587.855    596.094    594.684    587.855    587.855
 24.370    635.028    605.596     29.432    587.435    598.454    594.583    587.435    587.435
 24.470    576.313    610.647    -34.335    587.018    603.166    594.509    587.018    587.018
 24.570    576.507    619.692    -43.185    586.604    611.849    594.462    586.604    586.604
 24.670    643.000    634.076      8.924    586.192    625.847    594.447    586.192    586.192
 24.770    629.863    653.308    -23.445    585.783    644.666    594.465    585.783    585.783
 24.870    733.000    672.901     60.099    585.376    663.810    594.521    585.376    585.376
 24.970    701.000    683.543     17.457    584.972    673.960    594.617    584.972    584.972
 25.070    652.939    678.099    -25.160    584.571    667.968    594.759    584.571    584.571
 25.170    685.024    660.841     24.183    584.172    650.107    594.951    584.172    584.172
 25.270    649.000    641.307      7.693    583.776    629.913    595.200    583.776    583.776
 25.370    617.000    625.599     -8.599    583.382    613.488    595.512    583.382    583.382
 25.470    599.000    615.346    -16.346    582.991    602.453    595.895    582.991    582.991
 25.570    621.144    609.656     11.489    582.603    595.906    596.359    582.603    582.603
 25.670    616.000    606.918      9.082    582.217    592.225    596.914    582.217    582.217
 25.770    612.000    605.822      6.178    581.834    590.086    597.572    581.834    581.834
 25.870    595.280    605.602    -10.322    581.453    588.706    598.350    581.453    581.453
 25.970    586.002    605.903    -19.901    581.075    587.713    599.266    581.075    581.075
 26.070    582.928    606.586    -23.657    580.699    586.944    600.342    580.699    580.699
 26.170    681.000    607.604     73.396    580.326    586.327    601.604    580.326    580.326
 26.270    568.000    608.960    -40.960    579.956    585.829    603.086    579.956    579.956
 26.370    630.000    610.673     19.327    579.588    585.431    604.830    579.588    579.588
 26.470    631.000    612.769     18.231    579.223    585.110    606.881    579.223    579.223
 26.570    648.000    615.315     32.685    578.860    584.867    609.307    578.860    578.860
 26.670    643.000    618.391     24.609    578.500    584.702    612.187    578.500    578.500
 26.770    662.152    622.106     40.046    578.142    584.619    615.627    578.142    578.142
 26.870    668.109    626.606     41.503    577.787    584.626    619.764    577.787    577.787
 26.970    691.000    632.088     58.912    577.434    584.738    624.781    577.434    577.434
 27.070    615.865    638.819    -22.954    577.084    584.975    630.924    577.084    577.084
 27.170    675.000    647.171     27.829    576.737    585.368    638.535    576.737    576.737
 27.270    629.012    657.675    -28.663    576.392    585.963    648.097    576.392    576.392
 27.370    626.852    671.092    -44.239    576.049    586.822    660.311    576.049    576.049
 27.470    716.000    688.635     27.365    575.709    588.050    676.284    575.709    575.709
 27.570    732.000    712.597     19.403    575.372    589.843    698.112    575.372    575.372
 27.670    747.000    748.682     -1.682    575.037    592.686    731.014    575.037    575.037
 27.770    809.000    813.389     -4.389    574.704    597.974    790.087    574.704    574.704
 27.870    905.000    950.566    -45.566    574.374    609.414    915.462    574.374    574.374
 27.970   1185.000   1250.876    -65.876    574.047    634.661   1190.126    574.047    574.047
 28.070   1699.000   1839.290   -140.290    573.722    684.274   1728.479    573.722    573.722
 28.170   2861.747   2780.865     80.882    573.399    763.769   2590.087    573.399    573.399
 28.270   4001.209   3913.878     87.331    573.079    859.568   3626.887    573.079    573.079
 28.370   4702.000   4751.678    -49.678    572.762    930.766   4393.248    572.762    572.762
 28.470   4851.000   4772.004     78.996    572.447    933.662   4410.595    572.447    572.447
 28.570   4033.000   4016.873     16.127    572.134    872.595   3716.412    572.134    572.134
 28.670   3156.633   3071.586     85.047    571.824    798.364   2845.105    571.824    571.824
 28.770   2399.000   2463.177    -64.177    571.517    757.120   2277.601    571.517    571.517
 28.870   2427.621   2358.678     68.943    571.211    763.530   2166.339    571.211    571.211
 28.970   2525.025   2607.749    -82.723    570.909    802.217   2376.416    570.909    570.909
 29.070   2969.661   2868.840    100.820    570.608    837.082   2602.411    570.608    570.608
 29.170   2850.914   2815.034     35.880    570.311    832.545   2552.946    570.311    570.311
 29.270   2425.000   2399.927     25.073    570.015    784.535   2185.600    570.015    570.015
 29.370   1851.959   1844.319      7.640    569.722    719.598   1694.613    569.722    569.722
 29.470   1330.000   1363.865    -33.865    569.432    663.334   1270.079    569.432    569.432
 29.570    983.126   1040.243    -57.116    569.144    625.447    984.006    569.144    569.144
 29.670    812.225    856.811    -44.586    568.858    604.019    821.684    568.858    568.858
 29.770    882.000    762.568    119.432    568.575    593.068    738.091    568.575    568.575
 29.870    772.000    713.767     58.233    568.294    587.462    694.607    568.294    568.294
 29.970    739.808    685.474     54.333    568.016    584.282    669.212    568.016    568.016
 30.070    647.911    666.641    -18.730    567.740    582.249    652.134    567.740    567.740
 30.170    619.313    652.957    -33.645    567.466    580.887    639.537    567.466    567.466
 30.270    655.000    642.712     12.288    567.195    580.049    629.857    567.195    567.195
 30.370    628.772    635.223     -6.450    566.926    579.776    622.371    566.926    566.926
 30.470    674.000    630.499     43.501    566.659    580.349    616.805    566.659    566.659
 30.570    665.000    629.366     35.634    566.395    582.448    613.306    566.395    566.395
 30.670    597.816    633.566    -35.750    566.134    587.239    612.447    566.134    566.134
 30.770    664.000    645.217     18.783    565.874    596.077    614.989    565.874    565.874
 30.870    686.000    665.125     20.875    565.617    609.516    621.187    565.617    565.617
 30.970    677.090    690.103    -13.013    565.362    625.724    629.688    565.362    565.362
 31.070    769.000    710.746     58.254    565.110    639.171    636.622    565.110    565.110
 31.170    740.610    714.294     26.317    564.860    642.331    636.762    564.860    564.860
 31.270    713.000    696.373     16.627    564.612    632.636    628.301    564.612    564.612
 31.370    627.916    667.007    -39.091    564.367    616.047    615.293    564.367    564.367
 31.470    641.000    638.599      2.401    564.124    599.934    602.767    564.124    564.124
 31.570    648.851    617.275     31.576    563.883    587.943    593.203    563.883    563.883
 31.670    557.032    603.684    -46.652    563.645    580.471    586.851    563.645    563.645
 31.770    608.000    595.840     12.160    563.409    576.352    582.892    563.409    563.409
 31.870    617.401    591.389     26.011    563.175    574.200    580.360    563.175    563.175
 31.970    565.173    588.680    -23.508    562.943    573.047    578.574    562.943    562.943
 32.070    588.866    586.847      2.019    562.714    572.384    577.174    562.714    562.714
 32.170    558.796    585.509    -26.712    562.487    571.995    575.999    562.487    562.487
 32.270    607.000    584.513     22.487    562.263    571.796    574.977    562.263    562.263
 32.370    618.000    583.795     34.205    562.040    571.756    574.077    562.040    562.040
 32.470    584.000    583.327      0.673    561.820    571.867    573.279    561.820    561.820
 32.570    604.000    583.102     20.898    561.602    572.132    572.570    561.602    561.602
 32.670    583.000    583.127     -0.127    561.386    572.567    571.944    561.386    561.386
 32.770    575.000    583.423     -8.423    561.173    573.198    571.397    561.173    561.173
 32.870    594.000    584.031      9.969    560.962    574.063    570.929    560.962    560.962
 32.970    593.000    585.013      7.987    560.753    575.220    570.544    560.753    560.753
 33.070    599.000    586.460     12.540    560.546    576.753    570.251    560.546    560.546
 33.170    636.017    588.517     47.500    560.341    578.789    570.067    560.341    560.341
 33.270    629.000    591.430     37.570    560.139    581.544    570.022    560.139    560.139
 33.370    614.000    595.695     18.305    559.939    585.448    570.182    559.939    559.939
 33.470    571.000    602.436    -31.436    559.741    591.475    570.697    559.741    559.741
 33.570    640.000    614.178     25.822    559.545    601.809    571.908    559.545    559.545
 33.670    622.357    635.966    -13.609    559.351    620.811    574.496    559.351    559.351
 33.770    656.000    675.963    -19.963    559.160    655.538    579.567    559.160    559.160
 33.870    741.820    743.724     -1.903    558.971    714.252    588.414    558.971    558.971
 33.970    882.840    844.535     38.305    558.783    801.523    601.752    558.783    558.783
 34.070    967.109    970.234     -3.125    558.598    910.298    618.476    558.598    558.598
 34.170   1115.188   1089.018     26.170    558.416   1013.092    634.276    558.416    558.416
 34.270   1110.171   1145.983    -35.812    558.235   1062.449    641.711    558.235    558.235
 34.370   1169.000   1104.840     64.160    558.056   1026.998    635.864    558.056    558.056
 34.470    983.000    992.963     -9.963    557.880    930.390    620.441    557.880    557.880
 34.570    859.124    865.235     -6.110    557.705    820.063    602.878    557.705    557.705
 34.670    766.000    758.109      7.891    557.533    727.531    588.116    557.533    557.533
 34.770    705.000    683.561     21.439    557.363    663.151    577.777    557.363    557.363
 34.870    684.000    638.185     45.815    557.195    623.982    571.399    557.195    557.195
 34.970    659.636    612.780     46.856    557.029    602.073    567.737    557.029    557.029
 35.070    564.973    598.755    -33.782    556.865    589.994    565.625    556.865    556.865
 35.170    626.000    590.495     35.505    556.703    582.893    564.304    556.703    556.703
 35.270    623.000    585.067     37.933    556.543    578.235    563.375    556.543    556.543
 35.370    603.000    581.138     21.862    556.385    574.865    562.657    556.385    556.385
 35.470    570.000    578.115     -8.115    556.230    572.272    562.071    556.230    556.230
 35.570    582.000    575.709      6.291    556.076    570.207    561.578    556.076    556.076
 35.670    575.000    573.758      1.242    555.924    568.526    561.155    555.924    555.924
 35.770    570.000    572.151     -2.151    555.775    567.135    560.790    555.775    555.775
 35.870    559.195    570.815    -11.620    555.627    565.970    560.471    555.627    555.627
 35.970    522.000    569.694    -47.694    555.481    564.981    560.194    555.481    555.481
 36.070    561.000    568.751     -7.751    555.338    564.135    559.952    555.338    555.338
 36.170    560.020    567.955     -7.935    555.196    563.405    559.745    555.196    555.196
 36.270    544.000    567.285    -23.285    555.056    562.770    559.571    555.056    555.056
 36.370    571.000    566.728      4.272    554.918    562.216    559.430    554.918    554.918
 36.470    574.169    566.272      7.897    554.783    561.731    559.323    554.783    554.783
 36.570    597.657    565.914     31.743    554.649    561.307    559.255    554.649    554.649
 36.670    587.000    565.652     21.348    554.517    560.939    559.229    554.517    554.517
 36.770    571.477    565.490      5.987    554.387    560.624    559.253    554.387    554.387
 36.870    593.000    565.439     27.561    554.259    560.361    559.337    554.259    554.259
 36.970    555.000    565.520    -10.520    554.133    560.158    559.494    554.133    554.133
 37.070    573.000    565.771      7.229    554.009    560.033    559.746    554.009    554.009
 37.170    526.120    566.270    -40.149    553.886    560.030    560.126    553.886    553.886
 37.270    522.941    567.163    -44.223    553.766    560.234    560.695    553.766    553.766
 37.370    532.458    568.721    -36.263    553.648    560.787    561.581    553.648    553.648
 37.470    565.000    571.405     -6.405    553.531    561.876    563.059    553.531    553.531
 37.570    588.000    575.946     12.054    553.416    563.676    565.686    553.416    553.416
 37.670    575.000    583.357     -8.357    553.303    566.226    570.434    553.303    553.303
 37.770    602.000    594.761      7.239    553.192    569.279    578.673    553.192    553.192
 37.870    581.000    610.823    -29.823    553.083    572.132    591.772    553.083    553.083
 37.970    613.475    630.930    -17.455    552.976    573.696    610.206    552.976    552.976
 38.070    702.535    652.649     49.886    552.870    573.222    632.293    552.870    552.870
 38.170    698.270    671.150     27.120    552.766    571.043    652.870    552.766    552.766
 38.270    647.154    678.989    -31.835    552.664    568.066    663.586    552.664    552.664
 38.370    626.761    671.015    -44.254    552.564    565.022    658.558    552.564    552.564
 38.470    638.000    650.633    -12.633    552.466    562.370    640.733    552.466    552.466
 38.570    626.885    626.229      0.657    552.369    560.325    618.277    552.369    552.369
 38.670    570.907    604.383    -33.476    552.275    558.889    597.773    552.275    552.275
 38.770    587.762    587.948     -0.186    552.182    557.937    582.195    552.182    552.182
 38.870    595.509    577.036     18.473    552.090    557.318    571.810    552.090    552.090
 38.970    548.000    570.405    -22.405    552.001    556.908    565.499    552.001    552.001
 39.070    506.000    566.540    -60.540    551.913    556.621    561.833    551.913    551.913
 39.170    571.000    564.243      6.757    551.827    556.406    559.665    551.827    551.827
 39.270    591.000    562.773     28.227    551.743    556.234    558.283    551.743    551.743
 39.370    587.894    561.739     26.155    551.660    556.091    557.308    551.660    551.660
 39.470    563.000    560.956      2.044    551.579    555.970    556.565    551.579    551.579
 39.570    556.000    560.334     -4.334    551.500    555.867    555.967    551.500    551.500
 39.670    533.000    559.828    -26.828    551.422    555.779    555.472    551.422    551.422
 39.770    533.000    559.411    -26.411    551.347    555.705    555.053    551.347    551.347
 39.870    585.000    559.064     25.936    551.272    555.643    554.694    551.272    551.272
 39.970    539.000    558.774    -19.774    551.200    555.592    554.381    551.200    551.200
 40.070    566.846    558.531      8.315    551.129    555.554    554.106    551.129    551.129
 40.170    602.109    558.329     43.780    551.060    555.526    553.862    551.060    551.060
 40.270    565.000    558.162      6.838    550.992    555.510    553.644    550.992    550.992
 40.370    568.255    558.027     10.229    550.926    555.507    553.446    550.926    550.926
 40.470    581.000    557.921     23.079    550.861    555.516    553.267    550.861    550.861
 40.570    554.000    557.842     -3.842    550.799    555.539    553.103    550.799    550.799
 40.670    537.856    557.791    -19.935    550.737    555.577    552.952    550.737    550.737
 40.770    530.541    557.767    -27.226    550.678    555.631    552.813    550.678    550.678
 40.870    541.268    557.770    -16.502    550.620    555.705    552.685    550.620    550.620
 40.970    517.000    557.803    -40.803    550.563    555.800    552.567    550.563    550.563
 41.070    561.627    557.869      3.759    550.508    555.921    552.457    550.508    550.508
 41.170    535.146    557.971    -22.825    550.455    556.071    552.355    550.455    550.455
 41.270    514.357    558.114    -43.757    550.403    556.257    552.261    550.403    550.403
 41.370    552.000    558.307     -6.307    550.352    556.486    552.174    550.352    550.352
 41.470    523.727    558.558    -34.831    550.303    556.768    552.094    550.303    550.303
 41.570    535.000    558.882    -23.882    550.256    557.117    552.022    550.256    550.256
 41.670    546.107    559.298    -13.191    550.210    557.552    551.958    550.210    550.210
 41.770    513.000    559.837    -46.837    550.166    558.103    551.902    550.166    550.166
 41.870    535.000    560.555    -25.555    550.123    558.824    551.856    550.123    550.123
 41.970    595.000    561.560     33.440    550.081    559.819    551.825    550.081    550.081
 42.070    578.000    563.075     14.925    550.041    561.305    551.815    550.041    550.041
 42.170    545.000    565.539    -20.539    550.003    563.703    551.843    550.003    550.003
 42.270    562.000    569.715     -7.715    549.966    567.750    551.937    549.966    549.966
 42.370    570.000    576.727     -6.727    549.930    574.530    552.136    549.930    549.930
 42.470    608.065    587.872     20.193    549.896    585.293    552.489    549.896    549.896
 42.570    599.000    604.091     -5.091    549.863    600.946    553.028    549.863    549.863
 42.670    623.000    625.125     -2.125    549.831    621.242    553.745    549.831    549.831
 42.770    615.000    648.518    -33.518    549.801    643.810    554.551    549.801    549.801
 42.870    667.135    668.738     -1.603    549.772    663.319    555.243    549.772    549.772
 42.970    687.177    678.051      9.125    549.745    672.312    555.542    549.745    549.745
 43.070    692.155    671.830     20.325    549.719    666.328    555.279    549.719    549.719
 43.170    591.000    653.363    -62.363    549.694    648.535    554.574    549.694    549.694
 43.270    589.000    630.201    -41.201    549.671    626.213    553.700    549.671    549.671
 43.370    571.000    608.452    -37.452    549.649    605.251    552.879    549.649    549.649
 43.470    542.000    591.177    -49.177    549.628    588.602    552.223    549.628    549.628
 43.570    588.794    579.031      9.764    549.609    576.897    551.756    549.609    549.609
 43.670    534.000    571.261    -37.261    549.591    569.410    551.450    549.591    549.591
 43.770    526.288    566.600    -40.312    549.574    564.921    551.259    549.574    549.574
 43.870    548.000    563.868    -15.868    549.559    562.290    551.141    549.559    549.559
 43.970    539.000    562.223    -23.223    549.544    560.707    551.064    549.544    549.544
 44.070    578.000    561.167     16.833    549.531    559.691    551.010    549.531    549.531
 44.170    516.000    560.438    -44.438    549.519    558.989    550.970    549.519    549.519
 44.270    524.257    559.907    -35.650    549.509    558.477    550.940    549.509    549.509
 44.370    569.000    559.510      9.490    549.500    558.094    550.917    549.500    549.500
 44.470    581.180    559.212     21.968    549.492    557.805    550.899    549.492    549.492
 44.570    583.000    558.991     24.009    549.485    557.590    550.886    549.485    549.485
 44.670    543.000    558.832    -15.832    549.479    557.434    550.878    549.479    549.479
 44.770    573.000    558.726     14.274    549.474    557.327    550.874    549.474    549.474
 44.870    514.539    558.663    -44.124    549.471    557.261    550.874    549.471    549.471
 44.970    584.000    558.638     25.362    549.469    557.230    550.877    549.469    549.469
 45.070    569.000    558.647     10.353    549.468    557.231    550.884    549.468    549.468
 45.170    627.000    558.686     68.314    549.468    557.260    550.894    549.468    549.468
 45.270    573.000    558.754     14.246    549.469    557.315    550.908    549.469    549.469
 45.370    561.000    558.847      2.153    549.472    557.394    550.925    549.472    549.472
 45.470    568.000    558.967      9.033    549.475    557.496    550.946    549.475    549.475
 45.570    562.879    559.111      3.768    549.480    557.620    550.970    549.480    549.480
 45.670    568.000    559.281      8.719    549.485    557.767    550.998    549.485    549.485
 45.770    596.000    559.476     36.524    549.492    557.937    551.030    549.492    549.492
 45.870    531.000    559.698    -28.698    549.500    558.131    551.067    549.500    549.500
 45.970    579.000    559.948     19.052    549.509    558.349    551.107    549.509    549.509
 46.070    577.623    560.228     17.395    549.519    558.594    551.152    549.519    549.519
 46.170    556.000    560.541     -4.541    549.530    558.868    551.202    549.530    549.530
 46.270    569.000    560.891      8.109    549.542    559.174    551.257    549.542    549.542
 46.370    551.000    561.281    -10.281    549.555    559.516    551.319    549.555    549.555
 46.470    603.000    561.717     41.283    549.569    559.898    551.386    549.569    549.569
 46.570    600.935    562.206     38.729    549.584    560.327    551.462    549.584    549.584
 46.670    517.592    562.757    -45.165    549.600    560.810    551.545    549.600    549.600
 46.770    574.902    563.383     11.519    549.617    561.360    551.638    549.617    549.617
 46.870    599.987    564.102     35.885    549.635    561.992    551.743    549.635    549.635
 46.970    552.000    564.944    -12.944    549.654    562.734    551.861    549.654    549.654
 47.070    603.205    565.962     37.243    549.673    563.634    551.999    549.673    549.673
 47.170    549.000    567.261    -18.261    549.694    564.786    552.166    549.694    549.694
 47.270    572.000    569.029      2.971    549.716    566.363    552.377    549.716    549.716
 47.370    560.000    571.593    -11.593    549.738    568.662    552.663    549.738    549.738
 47.470    590.000    575.452     14.548    549.762    572.139    553.066    549.762    549.762
 47.570    610.000    581.248     28.752    549.786    577.380    553.643    549.786    549.786
 47.670    623.580    589.628     33.952    549.812    584.973    554.449    549.812    549.812
 47.770    621.000    600.965     20.035    549.838    595.257    555.519    549.838    549.838
 47.870    613.004    614.974     -1.971    549.865    607.975    556.828    549.865    549.865
 47.970    610.000    630.300    -20.300    549.893    621.885    558.262    549.893    549.893
 48.070    635.000    644.179     -9.179    549.921    634.463    559.584    549.921    549.921
 48.170    632.055    652.816    -20.761    549.951    642.240    560.469    549.951    549.951
 48.270    688.665    653.358     35.307    549.981    642.610    560.674    549.981    549.981
 48.370    665.000    646.225     18.775    550.013    635.951    560.238    550.013    550.013
 48.470    621.983    634.722    -12.740    550.044    625.278    559.449    550.044    550.044
 48.570    614.000    622.571     -8.571    550.077    613.985    558.634    550.077    550.077
 48.670    618.000    612.311      5.689    550.111    604.385    558.015    550.111    550.111
 48.770    615.000    605.143      9.857    550.145    597.568    557.705    550.145    550.145
 48.870    599.000    601.292     -2.292    550.180    593.728    557.733    550.180    550.180
 48.970    576.000    600.434    -24.434    550.216    592.559    558.084    550.216    550.216
 49.070    560.000    602.079    -42.079    550.252    593.593    558.733    550.252    550.252
 49.170    602.000    605.861     -3.861    550.290    596.469    559.677    550.290    550.290
 49.270    619.656    611.752      7.903    550.328    601.114    560.961    550.328    550.328
 49.370    586.000    620.343    -34.343    550.366    607.970    562.734    550.366    550.366
 49.470    599.000    633.436    -34.436    550.406    618.463    565.370    550.406    550.406
 49.570    664.000    655.279      8.721    550.446    635.992    569.721    550.446    550.446
 49.670    683.000    694.579    -11.579    550.486    667.533    577.512    550.486    550.486
 49.770    712.000    766.707    -54.707    550.528    725.411    591.788    550.528    550.528
 49.870    879.000    894.162    -15.162    550.570    827.671    617.000    550.570    550.570
 49.970   1039.000   1102.235    -63.235    550.612    994.595    658.153    550.612    550.612
 50.070   1376.000   1407.661    -31.661    550.656   1239.614    718.560    550.656    550.656
 50.170   1701.000   1802.010   -101.010    550.700   1555.979    796.553    550.700    550.700
 50.270   2241.000   2236.158      4.842    550.744   1904.307    882.408    550.744    550.744
 50.370   2659.516   2614.683     44.833    550.789   2208.085    957.239    550.789    550.789
 50.470   2719.000   2816.534    -97.534    550.835   2370.238    997.074    550.835    550.835
 50.570   2755.557   2761.473     -5.916    550.881   2326.421    985.995    550.881    550.881
 50.670   2538.000   2474.763     63.237    550.928   2096.946    928.900    550.928    550.928
 50.770   2048.232   2063.751    -15.518    550.975   1767.899    847.021    550.975    550.975
 50.870   1640.000   1643.110     -3.110    551.023   1431.290    763.030    551.023    551.023
 50.970   1315.037   1289.340     25.697    551.072   1148.596    691.969    551.072    551.072
 51.070    976.000   1033.236    -57.236    551.121    944.549    639.921    551.121    551.121
 51.170    842.000    870.471    -28.471    551.170    815.618    606.102    551.170    551.170
 51.270    829.144    778.330     50.814    551.220    743.392    586.215    551.220    551.220
 51.370    731.000    730.452      0.548    551.271    706.379    575.386    551.271    551.271
 51.470    713.000    705.336      7.664    551.322    686.873    569.821    551.322    551.322
 51.570    727.000    689.209     37.791    551.373    673.433    567.181    551.373    551.373
 51.670    674.526    675.587     -1.062    551.425    660.763    566.275    551.425    551.425
 51.770    620.012    662.936    -42.924    551.477    647.873    566.560    551.477    551.477
 51.870    635.000    651.788    -16.788    551.530    635.606    567.727    551.530    551.530
 51.970    615.000    642.813    -27.813    551.583    624.973    569.432    551.583    551.583
 52.070    634.104    636.104     -2.000    551.637    616.580    571.165    551.637    551.637
 52.170    608.747    631.146    -22.399    551.691    610.586    572.252    551.691    551.691
 52.270    661.000    627.186     33.814    551.745    606.842    572.090    551.745    551.745
 52.370    661.000    623.779     37.221    551.800    605.047    570.531    551.800    551.800
 52.470    642.000    621.071     20.929    551.855    604.922    568.003    551.855    551.855
 52.570    589.000    619.591    -30.591    551.911    606.342    565.160    551.911    551.911
 52.670    615.618    620.031     -4.413    551.967    609.460    562.537    551.967    551.967
 52.770    634.000    623.285     10.715    552.023    614.868    560.441    552.023    552.023
 52.870    584.361    630.697    -46.336    552.080    623.795    558.981    552.080    552.080
 52.970    646.000    644.355      1.645    552.137    638.350    558.140    552.137    552.137
 53.070    659.000    667.313     -8.313    552.194    661.652    557.852    552.194    552.194
 53.170    663.000    703.463    -40.463    552.251    697.650    558.059    552.251    552.251
 53.270    778.658    756.820     21.838    552.309    750.389    558.732    552.309    552.309
 53.370    797.000    830.125    -33.125    552.367    822.627    559.854    552.367    552.367
 53.470    894.000    922.921    -28.921    552.426    913.955    561.378    552.426    552.426
 53.570   1003.131   1029.449    -26.318    552.484   1018.742    563.177    552.484    552.484
 53.670   1139.000   1136.641      2.359    552.543   1124.194    564.976    552.543    552.543
 53.770   1229.000   1223.479      5.521    552.602   1209.645    566.427    552.602    552.602
 53.870   1191.000   1265.578    -74.578    552.661   1251.110    567.129    552.661    552.661
 53.970   1213.806   1248.427    -34.621    552.721   1234.370    566.788    552.721    552.721
 54.070   1196.000   1178.618     17.382    552.781   1165.901    565.514    552.781    552.781
 54.170   1024.000   1078.162    -54.162    552.841   1067.322    563.701    552.841    552.841
 54.270    925.000    970.316    -45.316    552.901    961.473    561.763    552.901    552.901
 54.370    814.746    871.523    -56.776    552.961    864.508    559.993    552.961    552.961
 54.470    757.000    790.433    -33.433    553.022    784.925    558.544    553.022    553.022
 54.570    724.000    729.508     -5.508    553.082    725.141    557.460    553.082    553.082
 54.670    692.000    687.093      4.907    553.143    683.533    556.709    553.143    553.143
 54.770    651.816    659.450     -7.633    553.204    656.432    556.226    553.204    553.204
 54.870    610.640    642.412    -31.772    553.265    639.745    555.935    553.265    553.265
 54.970    648.892    632.405     16.487    553.326    629.963    555.771    553.326    553.326
 55.070    588.086    626.838    -38.752    553.387    624.540    555.687    553.387    553.387
 55.170    574.375    624.064    -49.689    553.449    621.860    555.653    553.449    553.449
 55.270    620.000    623.144     -3.144    553.510    621.002    555.652    553.510    553.510
 55.370    654.602    623.604     30.999    553.572    621.500    555.675    553.572    553.572
 55.470    604.596    625.243    -20.647    553.633    623.160    555.716    553.633    553.633
 55.570    670.220    628.029     42.191    553.695    625.950    555.774    553.695    553.695
 55.670    678.000    632.055     45.945    553.757    629.962    555.849    553.757    553.757
 55.770    608.012    637.562    -29.550    553.818    635.438    555.941    553.818    553.818
 55.870    679.614    645.044     34.570    553.880    642.867    556.055    553.880    553.880
 55.970    663.000    655.474      7.526    553.942    653.215    556.199    553.942    553.942
 56.070    673.000    670.732      2.268    554.004    668.345    556.386    554.004    554.004
 56.170    718.000    694.249     23.751    554.065    691.660    556.647    554.065    554.065
 56.270    740.000    731.821      8.179    554.127    728.906    557.028    554.127    554.127
 56.370    791.000    792.257     -1.257    554.189    788.820    557.602    554.189    554.189
 56.470    869.000    887.261    -18.261    554.251    883.008    558.466    554.251    554.251
 56.570   1001.000   1029.785    -28.785    554.312   1024.318    559.727    554.312    554.312
 56.670   1232.911   1230.323      2.587    554.374   1223.157    561.471    554.374    554.374
 56.770   1428.000   1491.410    -63.410    554.435   1482.044    563.720    554.435    554.435
 56.870   1785.943   1801.443    -15.499    554.497   1789.477    566.380    554.497    554.497
 56.970   2240.000   2129.296    110.704    554.558   2114.594    569.196    554.558    554.558
 57.070   2389.044   2421.889    -32.844    554.619   2404.757    571.732    554.619    554.619
 57.170   2688.241   2611.180     77.061    554.680   2592.479    573.429    554.680    554.680
 57.270   2681.000   2640.289     40.711    554.741   2621.329    573.823    554.741    554.741
 57.370   2528.000   2499.328     28.672    554.802   2481.471    572.835    554.802    554.802
 57.470   2279.000   2233.423     45.577    554.863   2217.643    570.839    554.863    554.863
 57.570   1930.000   1911.607     18.393    554.924   1898.306    568.412    554.924    554.924
 57.670   1604.877   1593.632     11.246    554.984   1582.720    566.056    554.984    554.984
 57.770   1224.000   1317.677    -93.677    555.044   1308.736    564.110    555.044    555.044
 57.870   1129.000   1101.194     27.806    555.105   1093.617    562.771    555.105    555.105
 57.970    903.000    945.851    -42.851    555.165    938.925    562.150    555.165    555.165
 58.070    831.000    843.787    -12.787    555.224    836.682    562.365    555.224    555.224
 58.170    779.000    783.674     -4.674    555.284    775.353    563.622    555.284    555.284
 58.270    753.000    755.228     -2.228    555.343    744.299    566.275    555.343    555.343
 58.370    715.000    751.470    -36.470    555.402    736.066    570.798    555.402    555.402
 58.470    814.724    768.901     45.823    555.461    746.681    577.660    555.461    555.461
 58.570    796.000    806.263    -10.263    555.520    774.665    587.086    555.520    555.520
 58.670    850.000    862.672    -12.672    555.578    819.444    598.764    555.578    555.578
 58.770    908.000    935.715    -27.715    555.636    879.695    611.608    555.636    555.636
 58.870   1039.300   1019.935     19.365    555.694    951.911    623.670    555.694    555.694
 58.970   1118.000   1106.265     11.735    555.752   1029.626    632.350    555.752    555.752
 59.070   1283.000   1183.753     99.247    555.809   1104.322    635.215    555.809    555.809
 59.170   1299.000   1243.746     55.254    555.866   1168.248    631.358    555.866    555.866
 59.270   1250.397   1282.118    -31.720    555.922   1215.964    622.090    555.922    555.922
 59.370   1241.518   1296.702    -55.185    555.979   1242.709    610.004    555.979    555.979
 59.470   1342.404   1286.198     56.206    556.035   1244.660    597.616    556.035    556.035
 59.570   1279.528   1254.384     25.144    556.091   1223.821    586.695    556.091    556.091
 59.670   1203.834   1212.722     -8.888    556.146   1190.760    578.132    556.146    556.146
 59.770   1203.000   1175.894     27.106    556.201   1160.027    572.063    556.201    556.201
 59.870   1223.117   1155.886     67.231    556.255   1143.977    568.119    556.255    556.255
 59.970   1236.000   1160.064     75.936    556.310   1150.565    565.718    556.310    556.310
 60.070   1208.000   1192.204     15.796    556.364   1184.127    564.301    556.364    556.364
 60.170   1285.751   1252.881     32.870    556.417   1245.652    563.458    556.417    556.417
 60.270   1366.996   1337.299     29.698    556.470   1330.593    562.944    556.470    556.470
 60.370   1509.149   1432.502     76.648    556.523   1426.135    562.626    556.523    556.523
 60.470   1477.933   1516.856    -38.922    556.575   1510.723    562.433    556.575    556.575
 60.570   1614.000   1563.916     50.084    556.627   1557.958    562.323    556.627    556.627
 60.670   1534.448   1552.569    -18.121    556.678   1546.749    562.272    556.678    556.678
 60.770   1486.000   1479.095      6.905    556.729   1473.374    562.272    556.729    556.729
 60.870   1409.000   1359.344     49.656    556.779   1353.661    562.332    556.779    556.779
 60.970   1246.000   1218.377     27.623    556.829   1212.644    562.472    556.829    556.829
 61.070   1096.000   1079.134     16.866    556.879   1073.232    562.720    556.879    556.879
 61.170    985.000    957.495     27.505    556.928    951.262    563.120    556.928    556.928
 61.270    883.000    861.902     21.098    556.977    855.104    563.745    556.977    556.977
 61.370    793.000    794.847     -1.847    557.025    787.123    564.722    557.025    557.025
 61.470    792.000    755.228     36.772    557.072    746.002    566.269    557.072    557.072
 61.570    775.000    740.874     34.126    557.119    729.232    568.724    557.119    557.119
 61.670    755.000    750.517      4.483    557.166    735.066    572.567    557.166    557.166
 61.770    817.000    784.654     32.346    557.212    763.410    578.386    557.212    557.212
 61.870    902.000    845.088     56.912    557.257    815.474    586.778    557.257    557.257
 61.970    919.000    933.332    -14.332    557.302    892.341    598.170    557.302    557.302
 62.070   1091.000   1048.313     42.687    557.346    992.928    612.577    557.346    557.346
 62.170   1186.492   1184.047      2.445    557.390   1111.893    629.360    557.390    557.390
 62.270   1311.141   1327.853    -16.712    557.433   1238.041    647.041    557.433    557.433
 62.370   1459.370   1459.611     -0.241    557.476   1353.649    663.228    557.476    557.476
 62.470   1519.000   1553.482    -34.482    557.518   1435.967    674.836    557.518    557.518
 62.570   1527.000   1585.277    -58.277    557.559   1463.700    678.971    557.559    557.559
 62.670   1544.341   1545.198     -0.857    557.600   1428.209    674.462    557.600    557.600
 62.770   1445.000   1444.659      0.341    557.640   1339.525    662.685    557.640    557.640
 62.870   1342.000   1308.476     33.524    557.679   1219.476    646.621    557.679    557.679
 62.970   1196.000   1162.121     33.879    557.718   1090.471    629.331    557.718    557.718
 63.070    972.000   1024.917    -52.917    557.757    969.511    613.141    557.757    557.757
 63.170    878.000    908.508    -30.508    557.794    866.838    599.450    557.794    557.794
 63.270    783.000    817.663    -34.663    557.831    786.645    588.838    557.831    557.831
 63.370    758.000    751.898      6.102    557.867    728.505    581.250    557.867    557.867
 63.470    661.846    707.530    -45.684    557.903    689.172    576.251    557.903    557.903
 63.570    715.000    679.674     35.326    557.938    664.340    573.261    557.938    557.938
 63.670    658.000    663.759     -5.759    557.972    649.977    571.742    557.972    557.972
 63.770    628.462    656.390    -27.927    558.005    643.073    571.308    558.005    558.005
 63.870    667.000    655.655     11.345    558.038    641.904    571.773    558.038    558.038
 63.970    642.000    661.104    -19.104    558.070    645.980    573.173    558.070    558.070
 64.070    694.000    673.547     20.453    558.101    655.844    575.777    558.101    558.101
 64.170    690.000    694.772     -4.772    558.132    672.773    580.094    558.132    558.132
 64.270    742.000    727.128     14.872    558.162    698.386    586.853    558.162    558.162
 64.370    876.000    772.944    103.056    558.191    734.127    596.940    558.191    558.191
 64.470    831.763    833.737     -1.975    558.219    780.631    611.235    558.219    558.219
 64.570    921.000    909.266     11.734    558.247    837.037    630.362    558.247    558.247
 64.670    960.622    996.553    -35.930    558.274    900.327    654.360    558.274    558.274
 64.770   1120.040   1089.045     30.995    558.300    964.834    682.350    558.300    558.300
 64.870   1227.000   1176.385     50.615    558.325   1022.266    712.267    558.325    558.325
 64.970   1353.000   1245.668    107.332    558.349   1063.097    740.741    558.349    558.349
 65.070   1233.855   1284.835    -50.980    558.373   1079.721    763.319    558.373    558.373
 65.170   1289.122   1286.834      2.288    558.396   1069.701    775.385    558.396    558.396
 65.270   1236.026   1252.180    -16.155    558.418   1036.522    773.963    558.418    558.418
 65.370   1226.000   1188.695     37.305    558.439    987.699    759.355    558.439    558.439
 65.470   1102.000   1108.531     -6.531    558.459    931.944    734.997    558.459    558.459
 65.570   1049.449   1023.945     25.504    558.479    876.745    705.655    558.479    558.479
 65.670    954.000    944.208      9.792    558.498    827.028    675.673    558.498    558.498
 65.770    912.007    874.622     37.385    558.515    784.972    648.174    558.515    558.515
 65.870    813.000    817.048     -4.048    558.532    750.634    624.963    558.532    558.532
 65.970    769.287    771.120     -1.833    558.548    722.992    606.696    558.548    558.548
 66.070    769.527    735.450     34.077    558.564    700.861    593.171    558.564    558.564
 66.170    741.050    708.355     32.695    558.578    683.279    583.670    558.578    558.578
 66.270    645.585    688.174    -42.589    558.591    669.509    577.267    558.591    558.591
 66.370    658.000    673.431    -15.431    558.604    658.974    573.069    558.604    558.604
 66.470    625.000    662.955    -37.955    558.616    651.237    570.338    558.616    558.616
 66.570    595.000    655.901    -60.901    558.626    645.994    568.534    558.626    558.626
 66.670    607.000    651.719    -44.719    558.636    643.054    567.301    558.636    558.636
 66.770    702.000    650.092     51.908    558.645    642.317    566.419    558.645    558.645
 66.870    620.430    650.916    -30.485    558.653    643.805    565.763    558.653    558.653
 66.970    621.000    654.348    -33.348    558.660    647.742    565.264    558.660    558.660
 67.070    619.000    660.944    -41.944    558.666    654.714    564.894    558.666    558.666
 67.170    700.468    671.869     28.599    558.671    665.891    564.645    558.671    558.671
 67.270    630.000    689.177    -59.177    558.675    683.316    564.532    558.675    558.675
 67.370    718.000    716.112      1.888    558.679    710.195    564.588    558.679    558.679
 67.470    729.000    757.313    -28.313    558.681    751.114    564.868    558.681    558.681
 67.570    862.332    818.767     43.565    558.682    811.986    565.445    558.682    558.682
 67.670    882.000    907.305    -25.305    558.682    899.558    566.405    558.682    558.682
 67.770    968.557   1029.474    -60.917    558.682   1020.293    567.832    558.682    558.682
 67.870   1165.000   1189.783    -24.783    558.680   1178.649    569.781    558.680    558.680
 67.970   1400.000   1388.539     11.461    558.677   1374.933    572.253    558.677    558.677
 68.070   1664.000   1619.658     44.342    558.673   1603.145    575.168    558.673    558.673
 68.170   1918.000   1868.856     49.144    558.669   1849.197    578.334    558.669    558.669
 68.270   2136.000   2112.596     23.404    558.663   2089.865    581.438    558.663    558.663
 68.370   2255.486   2318.698    -63.213    558.656   2293.396    584.055    558.656    558.656
 68.470   2471.304   2451.078     20.227    558.648   2424.177    585.708    558.648    558.648
 68.570   2486.000   2481.092      4.908    558.639   2453.932    586.016    558.639    558.639
 68.670   2452.620   2401.389     51.231    558.630   2375.393    584.883    558.630    558.630
 68.770   2149.873   2230.325    -80.452    558.619   2206.668    582.548    558.619    558.619
 68.870   2046.498   2001.963     44.534    558.607   1981.372    579.462    558.607    558.607
 68.970   1718.000   1751.810    -33.810    558.593   1734.549    576.093    558.593    558.593
 69.070   1592.000   1508.381     83.619    558.579   1494.347    572.816    558.579    558.579
 69.170   1285.000   1290.853     -5.853    558.564   1279.700    569.881    558.564    558.564
 69.270   1144.000   1109.506     34.494    558.548   1100.750    567.430    558.548    558.548
 69.370    982.000    967.180     14.820    558.530    960.305    565.498    558.530    558.530
 69.470    813.804    861.305    -47.501    558.512    855.832    564.050    558.512    558.512
 69.570    741.994    786.135    -44.141    558.492    781.662    563.010    558.492    558.492
 69.670    708.193    734.761    -26.567    558.472    730.976    562.287    558.472    558.472
 69.770    703.000    700.588      2.412    558.450    697.265    561.794    558.450    558.450
 69.870    693.000    678.157     14.843    558.427    675.141    561.457    558.427    558.427
 69.970    677.000    663.403     13.597    558.403    660.591    561.224    558.403    558.403
 70.070    666.000    653.550     12.450    558.378    650.876    561.058    558.378    558.378
 70.170    698.000    646.839     51.161    558.352    644.259    560.935    558.352    558.352
 70.270    667.000    642.219     24.781    558.325    639.703    560.843    558.325    558.325
 70.370    646.767    639.100      7.667    558.296    636.624    560.772    558.296    558.296
 70.470    617.220    637.172    -19.951    558.266    634.717    560.720    558.266    558.266
 70.570    651.000    636.302     14.698    558.236    633.851    560.684    558.236    558.236
 70.670    633.000    636.491     -3.491    558.204    634.024    560.666    558.204    558.204
 70.770    647.000    637.865      9.135    558.171    635.362    560.669    558.171    558.171
 70.870    667.000    640.727     26.273    558.136    638.159    560.697    558.136    558.136
 70.970    621.000    645.632    -24.632    558.101    642.961    560.763    558.101    558.101
 71.070    658.718    653.511      5.207    558.064    650.680    560.882    558.064    558.064
 71.170    702.000    665.818     36.182    558.027    662.745    561.081    558.027    558.027
 71.270    712.675    684.679     27.996    557.988    681.239    561.401    557.988    557.988
 71.370    720.000    712.972      7.028    557.948    708.990    561.894    557.948    557.948
 71.470    741.000    754.277    -13.277    557.906    749.507    562.625    557.906    557.906
 71.570    813.000    812.581      0.419    557.864    806.706    563.668    557.864    557.864
 71.670    925.000    891.703     33.297    557.820    884.333    565.094    557.820    557.820
 71.770    935.458    994.409    -58.951    557.775    985.105    566.954    557.775    557.775
 71.870   1133.000   1121.337     11.663    557.729   1109.648    569.259    557.729    557.729
 71.970   1305.000   1269.886     35.114    557.682   1255.408    571.964    557.682    557.682
 72.070   1409.000   1433.249    -24.249    557.633   1415.708    574.946    557.633    557.633
 72.170   1556.605   1599.753    -43.148    557.583   1579.089    577.992    557.583    557.583
 72.270   1746.792   1752.729     -5.937    557.533   1729.191    580.798    557.533    557.533
 72.370   1816.026   1871.753    -55.728    557.480   1845.968    582.994    557.480    557.480
 72.470   2041.000   1936.701    104.299    557.427   1909.663    584.211    557.427    557.427
 72.570   1960.000   1934.704     25.296    557.372   1907.641    584.216    557.372    557.372
 72.670   1877.788   1866.124     11.664    557.316   1840.247    583.015    557.316    557.316
 72.770   1703.000   1744.355    -41.355    557.259   1720.626    580.853    557.259    557.259
 72.870   1592.000   1589.658      2.342    557.201   1568.664    578.098    557.201    557.201
 72.970   1386.000   1422.309    -36.309    557.141   1404.269    575.115    557.141    557.141
 73.070   1218.333   1258.720    -40.387    557.081   1243.559    572.199    557.081    557.081
 73.170   1152.943   1110.292     42.651    557.018   1097.735    569.548    557.018    557.018
 73.270    966.582    983.575    -16.993    556.955    973.240    567.273    556.955    556.955
 73.370    848.845    880.970    -32.126    556.891    872.439    565.412    556.891    556.891
 73.470    812.000    801.709     10.291    556.825    794.576    563.951    556.825    556.825
 73.570    738.000    742.971     -4.971    556.758    736.875    562.848    556.758    556.758
 73.670    727.173    700.959     26.215    556.689    695.593    562.050    556.689    556.689
 73.770    731.000    671.748     59.252    556.619    666.857    561.506    556.619    556.619
 73.870    655.579    651.857      3.722    556.549    647.228    561.174    556.549    556.549
 73.970    679.000    638.516     40.484    556.476    633.961    561.028    556.476    556.476
 74.070    665.562    629.710     35.852    556.403    625.056    561.055    556.403    556.403
 74.170    644.442    624.082     20.360    556.328    619.156    561.255    556.328    556.328
 74.270    636.987    620.773     16.214    556.252    615.397    561.631    556.252    556.252
 74.370    586.833    619.250    -32.418    556.175    613.244    562.189    556.175    556.175
 74.470    631.000    619.165     11.835    556.096    612.350    562.923    556.096    556.096
 74.570    695.000    620.237     74.763    556.016    612.454    563.815    556.016    556.016
 74.670    653.168    622.178     30.991    555.935    613.307    564.827    555.935    555.935
 74.770    643.000    624.640     18.360    555.852    614.623    565.897    555.852    555.852
 74.870    651.574    627.191     24.382    555.768    616.057    566.937    555.768    555.768
 74.970    597.443    629.322    -31.880    555.683    617.205    567.839    555.683    555.683
 75.070    655.000    630.509     24.491    555.597    617.658    568.490    555.597    555.597
 75.170    691.000    630.358     60.642    555.509    617.101    568.809    555.509    555.509
 75.270    680.000    628.773     51.227    555.420    615.451    568.783    555.420    555.420
 75.370    608.719    626.028    -17.309    555.330    612.905    568.491    555.330    555.330
 75.470    590.059    622.686    -32.626    555.238    609.876    568.081    555.238    555.238
 75.570    671.000    619.442     51.558    555.145    606.872    567.743    555.145    555.145
 75.670    694.000    617.025     76.975    555.051    604.416    567.681    555.051    555.051
 75.770    649.000    616.165     32.835    554.955    603.020    568.114    554.955    554.955
 75.870    645.000    617.597     27.403    554.858    603.184    569.277    554.858    554.858
 75.970    663.000    622.054     40.946    554.760    605.397    571.414    554.760    554.760
 76.070    643.000    630.239     12.761    554.661    610.117    574.771    554.661    554.661
 76.170    603.384    642.762    -39.378    554.560    617.734    579.567    554.560    554.560
 76.270    615.277    660.040    -44.764    554.457    628.508    585.959    554.457    554.457
 76.370    722.000    682.164     39.836    554.354    642.485    593.992    554.354    554.354
 76.470    747.000    708.754     38.246    554.249    659.405    603.545    554.249    554.249
 76.570    757.000    738.848     18.152    554.143    678.636    614.290    554.143    554.143
 76.670    805.294    770.771     34.523    554.035    699.083    625.648    554.035    554.035
 76.770    778.911    802.097    -23.186    553.927    719.164    636.774    553.927    553.927
 76.870    822.000    829.690     -7.690    553.816    736.845    646.571    553.816    553.816
 76.970    881.000    850.013     30.987    553.705    749.826    653.798    553.705    553.705
 77.070    864.000    859.863      4.137    553.592    756.031    657.332    553.592    553.592
 77.170    837.773    857.442    -19.669    553.478    754.292    656.543    553.478    553.478
 77.270    850.000    843.115      6.885    553.362    744.842    651.560    553.362    553.362
 77.370    803.000    819.230    -16.230    553.246    729.203    643.209    553.246    553.246
 77.470    765.591    789.171    -23.580    553.127    709.565    632.681    553.127    553.127
 77.570    781.000    756.361     24.639    553.008    688.147    621.180    553.008    553.008
 77.670    714.000    723.674     -9.674    552.887    666.811    609.718    552.887    552.887
 77.770    707.037    693.231     13.806    552.765    646.931    599.041    552.765    552.765
 77.870    636.000    666.393    -30.393    552.642    629.388    589.628    552.642    552.642
 77.970    627.140    643.836    -16.696    552.517    614.620    581.719    552.517    552.517
 78.070    575.000    625.673    -50.673    552.391    602.701    575.353    552.391    552.391
 78.170    615.986    611.604      4.382    552.263    593.434    570.426    552.263    552.263
 78.270    583.000    601.074    -18.074    552.134    586.460    566.742    552.134    552.134
 78.370    630.808    593.421     37.387    552.004    581.349    564.071    552.004    552.004
 78.470    559.000    587.989    -28.989    551.873    577.675    562.182    551.873    551.873
 78.570    566.000    584.196    -18.196    551.740    575.061    560.871    551.740    551.740
 78.670    536.360    581.574    -45.214    551.606    573.202    559.975    551.606    551.606
 78.770    551.165    579.772    -28.607    551.470    571.869    559.370    551.470    551.470
 78.870    534.000    578.543    -44.543    551.333    570.902    558.971    551.333    551.333
 78.970    593.000    577.726     15.274    551.195    570.196    558.723    551.195    551.195
 79.070    558.000    577.224    -19.224    551.056    569.686    558.591    551.056    551.056
 79.170    536.000    576.986    -40.986    550.915    569.338    558.560    550.915    550.915
 79.270    578.393    576.994      1.398    550.773    569.139    558.625    550.773    550.773
 79.370    543.000    577.258    -34.258    550.629    569.090    558.795    550.629    550.629
 79.470    579.000    577.808      1.192    550.485    569.204    559.086    550.485    550.485
 79.570    559.000    578.698    -19.698    550.338    569.501    559.533    550.338    550.338
 79.670    540.709    580.012    -39.303    550.191    570.012    560.187    550.191    550.191
 79.770    536.000    581.874    -45.874    550.042    570.777    561.135    550.042    550.042
 79.870    539.719    584.465    -44.746    549.892    571.847    562.505    549.892    549.892
 79.970    583.028    588.048     -5.020    549.741    573.292    564.491    549.741    549.741
 80.070    582.000    592.990    -10.990    549.588    575.204    567.366    549.588    549.588
 80.170    570.000    599.787    -29.787    549.434    577.707    571.504    549.434    549.434
 80.270    577.064    609.077    -32.012    549.279    580.961    577.382    549.279    549.279
 80.370    618.000    621.627     -3.627    549.122    585.163    585.570    549.122    549.122
 80.470    591.000    638.293    -47.293    548.964    590.548    596.690    548.964    548.964
 80.570    639.905    659.939    -20.034    548.805    597.373    611.348    548.805    548.805
 80.670    663.000    687.327    -24.327    548.644    605.912    630.033    548.644    548.644
 80.770    698.000    720.962    -22.962    548.483    616.426    652.989    548.483    548.483
 80.870    784.000    760.924     23.076    548.319    629.123    680.087    548.319    548.319
 80.970    832.000    806.666     25.334    548.155    644.095    710.692    548.155    548.155
 81.070    814.425    856.846    -42.422    547.989    661.230    743.570    547.989    547.989
 81.170    900.878    909.216     -8.338    547.822    680.154    776.852    547.822    547.822
 81.270    933.181    960.650    -27.468    547.654    700.188    808.088    547.654    547.654
 81.370    972.720   1007.395    -34.675    547.484    720.383    834.478    547.484    547.484
 81.470   1049.000   1045.638      3.362    547.313    739.623    853.322    547.313    547.313
 81.570   1162.000   1072.264     89.736    547.141    756.799    862.613    547.141    547.141
 81.670   1163.000   1085.455     77.545    546.968    770.961    861.484    546.968    546.968
 81.770   1113.000   1084.834     28.166    546.793    781.398    850.266    546.793    546.793
 81.870   1100.000   1071.309     28.691    546.617    787.686    830.290    546.617    546.617
 81.970    996.352   1046.830    -50.478    546.439    789.711    803.620    546.439    546.439
 82.070   1067.000   1014.038     52.962    546.261    787.615    772.754    546.261    546.261
 82.170   1028.000    975.742     52.258    546.081    781.649    740.249    546.081    546.081
 82.270    961.000    934.625     26.375    545.900    772.224    708.379    545.900    545.900
 82.370    923.000    892.886     30.114    545.718    759.819    678.862    545.718    545.718
 82.470    809.000    852.287    -43.287    545.534    745.102    652.795    545.534    545.534
 82.570    813.891    814.168     -0.277    545.349    728.893    630.696    545.349    545.349
 82.670    783.000    779.360      3.640    545.163    711.979    612.611    545.163    545.163
 82.770    774.000    748.175     25.825    544.976    694.974    598.239    544.976    544.976
 82.870    693.000    720.544    -27.544    544.787    678.310    587.077    544.787    544.787
 82.970    685.000    696.236    -11.236    544.597    662.335    578.548    544.597    544.597
 83.070    691.000    675.048     15.952    544.406    647.399    572.099    544.406    544.406
 83.170    664.153    656.872      7.282    544.214    633.866    567.256    544.214    544.214
 83.270    598.844    641.662    -42.818    544.021    622.070    563.642    544.021    544.021
 83.370    643.921    629.394     14.527    543.826    612.264    560.977    543.826    543.826
 83.470    607.834    620.027    -12.193    543.630    604.609    559.061    543.630    543.630
 83.570    567.000    613.486    -46.486    543.433    599.166    557.758    543.433    543.433
 83.670    571.000    609.642    -38.642    543.234    595.900    556.974    543.234    543.234
 83.770    587.000    608.293    -21.293    543.035    594.682    556.636    543.035    543.035
 83.870    594.000    609.146    -15.146    542.834    595.285    556.677    542.834    542.834
 83.970    615.856    611.806      4.050    542.632    597.389    557.023    542.632    542.632
 84.070    576.000    615.773    -39.773    542.429    600.582    557.587    542.429    542.429
 84.170    579.000    620.447    -41.447    542.225    604.370    558.262    542.225    542.225
 84.270    641.986    625.142     16.844    542.019    608.190    558.925    542.019    542.019
 84.370    604.000    629.123    -25.123    541.813    611.442    559.444    541.813    541.813
 84.470    553.000    631.681    -78.681    541.605    613.547    559.688    541.605    541.605
 84.570    653.354    632.254     21.100    541.396    614.046    559.554    541.396    541.396
 84.670    655.535    630.566     24.970    541.186    612.712    558.991    541.186    541.186
 84.770    606.000    626.704    -20.704    540.975    609.612    558.021    540.975    540.975
 84.870    599.000    621.061    -22.061    540.763    605.060    556.723    540.763    540.763
 84.970    611.000    614.204     -3.204    540.549    599.507    555.211    540.549    540.549
 85.070    544.000    606.732    -62.732    540.334    593.428    553.609    540.334    540.334
 85.170    582.000    599.194    -17.194    540.119    587.256    552.032    540.119    540.119
 85.270    601.000    592.043      8.957    539.902    581.340    550.584    539.902    539.902
 85.370    597.000    585.623     11.377    539.684    575.938    549.352    539.684    539.684
 85.470    567.000    580.170    -13.170    539.465    571.213    548.408    539.465    539.465
 85.570    566.000    575.822     -9.822    539.245    567.245    547.810    539.245    539.245
 85.670    568.000    572.636     -4.636    539.023    564.042    547.606    539.023    539.023
 85.770    597.000    570.609     26.391    538.801    561.565    547.834    538.801    538.801
 85.870    531.598    569.696    -38.098    538.578    559.740    548.522    538.578    538.578
 85.970    548.000    569.829    -21.829    538.353    558.486    549.683    538.353    538.353
 86.070    559.445    570.928    -11.482    538.128    557.729    551.313    538.128    538.128
 86.170    587.000    572.907     14.093    537.901    557.409    553.383    537.901    537.901
 86.270    571.000    575.675     -4.675    537.673    557.498    555.832    537.673    537.673
 86.370    571.000    579.136     -8.136    537.445    557.996    558.563    537.445    537.445
 86.470    608.000    583.187     24.813    537.215    558.940    561.438    537.215    537.215
 86.570    578.000    587.714     -9.714    536.984    560.395    564.275    536.984    536.984
 86.670    582.000    592.594    -10.594    536.752    562.459    566.855    536.752    536.752
 86.770    565.000    597.702    -32.702    536.520    565.250    568.935    536.520    536.520
 86.870    582.926    602.929    -20.003    536.286    568.897    570.275    536.286    536.286
 86.970    628.000    608.215     19.785    536.051    573.528    570.690    536.051    536.051
 87.070    636.000    613.589     22.411    535.815    579.247    570.103    535.815    535.815
 87.170    623.000    619.164      3.836    535.578    586.117    568.562    535.578    535.578
 87.270    605.000    625.094    -20.094    535.341    594.133    566.230    535.341    535.341
 87.370    686.000    631.503     54.497    535.102    603.197    563.327    535.102    535.102
 87.470    641.000    638.409      2.591    534.862    613.099    560.081    534.862    534.862
 87.570    627.991    645.680    -17.689    534.622    623.498    556.702    534.622    534.622
 87.670    670.000    653.018     16.982    534.380    633.923    553.363    534.380    534.380
 87.770    669.000    659.952      9.048    534.138    643.769    550.200    534.138    534.138
 87.870    647.932    665.873    -17.940    533.894    652.332    547.308    533.894    533.894
 87.970    762.000    670.109     91.891    533.650    658.884    544.744    533.650    533.650
 88.070    655.126    672.063    -16.938    533.405    662.806    542.532    533.405    533.405
 88.170    675.000    671.377      3.623    533.159    663.745    540.664    533.159    533.159
 88.270    675.000    668.046      6.954    532.912    661.724    539.115    532.912    532.912
 88.370    717.000    662.426     54.574    532.664    657.134    537.848    532.664    532.664
 88.470    655.000    655.128     -0.128    532.415    650.627    536.822    532.415    532.415
 88.570    691.655    646.881     44.774    532.166    642.971    535.995    532.166    532.166
 88.670    608.000    638.422    -30.422    531.915    634.940    535.332    531.915    531.915
 88.770    645.063    630.433     14.630    531.664    627.245    534.801    531.664    531.664
 88.870    622.000    623.500     -1.500    531.412    620.496    534.379    531.412    531.412
 88.970    607.000    618.079    -11.079    531.159    615.168    534.045    531.159    531.159
 89.070    620.041    614.475      5.566    530.905    611.580    533.787    530.905    530.905
 89.170    613.000    612.823      0.177    530.651    609.882    533.589    530.651    530.651
 89.270    635.770    613.091     22.679    530.395    610.052    533.443    530.395    530.395
 89.370    624.000    615.082      8.918    530.139    611.905    533.334    530.139    530.139
 89.470    566.000    618.447    -52.447    529.883    615.106    533.251    529.883    529.883
 89.570    643.000    622.710     20.290    529.625    619.192    533.178    529.625    529.625
 89.670    664.671    627.286     37.385    529.367    623.597    533.099    529.367    529.367
 89.770    639.849    631.518      8.331    529.107    627.681    532.995    529.107    529.107
 89.870    634.000    634.736     -0.736    528.848    630.793    532.848    528.848    528.848
 89.970    673.502    636.343     37.159    528.587    632.351    532.640    528.587    528.587
 90.070    684.738    635.924     48.814    528.326    631.952    532.362    528.326    528.326
 90.170    641.000    633.338      7.662    528.064    629.457    532.009    528.064    528.064
 90.270    650.000    628.742     21.258    527.801    625.017    531.589    527.801    527.801
 90.370    650.959    622.517     28.442    527.538    618.999    531.115    527.538    527.538
 90.470    676.000    615.165     60.835    527.274    611.890    530.604    527.274    527.274
 90.570    585.000    607.204    -22.204    527.010    604.191    530.072    527.010    527.010
 90.670    618.707    599.109     19.599    526.744    596.360    529.535    526.744    526.744
 90.770    528.000    591.271    -63.271    526.479    588.779    529.007    526.479    526.479
 90.870    565.000    583.994    -18.994    526.212    581.740    528.496    526.212    526.212
 90.970    522.000    577.488    -55.488    525.945    575.446    528.010    525.945    525.945
 91.070    571.839    571.875     -0.037    525.678    570.018    527.553    525.678    525.678
 91.170    558.000    567.203     -9.203    525.409    565.501    527.126    525.409    525.409
 91.270    593.000    563.460     29.540    525.141    561.881    526.729    525.141    525.141
 91.370    535.194    560.588    -25.394    524.871    559.107    526.360    524.871    524.871
 91.470    580.000    558.512     21.488    524.601    557.101    526.016    524.601    524.601
 91.570    537.000    557.146    -20.146    524.331    555.784    525.695    524.331    524.331
 91.670    579.000    556.417     22.583    524.060    555.083    525.395    524.060    524.060
 91.770    535.000    556.275    -21.275    523.789    554.949    525.113    523.789    523.789
 91.870    546.127    556.697    -10.571    523.517    555.362    524.849    523.517    523.517
 91.970    570.781    557.699     13.082    523.245    556.335    524.604    523.245    523.245
 92.070    570.000    559.333     10.667    522.972    557.919    524.378    522.972    522.972
 92.170    537.000    561.689    -24.689    522.699    560.203    524.176    522.699    522.699
 92.270    531.000    564.892    -33.892    522.425    563.307    523.999    522.425    522.425
 92.370    536.000    569.093    -33.093    522.151    567.378    523.852    522.151    522.151
 92.470    566.000    574.463     -8.463    521.876    572.582    523.740    521.876    521.876
 92.570    590.489    581.177      9.313    521.601    579.090    523.667    521.601    521.601
 92.670    596.000    589.397      6.603    521.326    587.060    523.637    521.326    521.326
 92.770    602.000    599.258      2.742    521.050    596.627    523.651    521.050    521.050
 92.870    602.000    610.848     -8.848    520.774    607.876    523.709    520.774    520.774
 92.970    660.405    624.188     36.217    520.498    620.833    523.809    520.498    520.498
 93.070    626.000    639.217    -13.217    520.222    635.440    523.946    520.222    520.222
 93.170    670.850    655.781     15.069    519.945    651.552    524.113    519.945    519.945
 93.270    718.000    673.620     44.380    519.667    668.920    524.300    519.667    519.667
 93.370    691.000    692.368     -1.368    519.390    687.188    524.494    519.390    519.390
 93.470    664.000    711.558    -47.558    519.112    705.903    524.686    519.112    519.112
 93.570    757.750    730.660     27.090    518.834    724.541    524.865    518.834    518.834
 93.670    736.000    749.143    -13.143    518.556    742.581    525.027    518.556    518.556
 93.770    812.869    766.592     46.277    518.277    759.599    525.176    518.277    518.277
 93.870    817.000    782.805     34.195    517.999    775.375    525.332    517.999    517.999
 93.970    750.809    797.837    -47.028    517.720    789.931    525.528    517.720    517.720
 94.070    833.912    812.020     21.891    517.441    803.551    525.813    517.441    517.441
 94.170    771.000    825.760    -54.760    517.162    816.582    526.243    517.162    517.162
 94.270    840.000    839.430      0.570    516.882    829.344    526.872    516.882    516.882
 94.370    865.000    853.281     11.719    516.603    842.038    527.751    516.603    516.603
 94.470    844.000    867.416    -23.416    516.323    854.730    528.915    516.323    516.323
 94.570    937.135    881.818     55.317    516.044    867.389    530.382    516.044    516.044
 94.670    881.044    896.419    -15.375    515.764    879.951    532.142    515.764    515.764
 94.770    868.479    911.115    -42.636    515.484    892.351    534.161    515.484    515.484
 94.870    906.687    925.723    -19.036    515.204    904.472    536.373    515.204    515.204
 94.970    959.000    939.886     19.114    514.924    916.051    538.681    514.924    514.924
 95.070    885.000    952.979    -67.979    514.645    926.589    540.961    514.645    514.645
 95.170    998.059    964.077     33.982    514.365    935.307    543.067    514.365    514.365
 95.270    986.000    972.006     13.994    514.085    941.195    544.836    514.085    514.085
 95.370    920.351    975.492    -55.142    513.805    943.136    546.110    513.805    513.805
 95.470    961.822    973.404    -11.582    513.525    940.136    546.752    513.525    513.525
 95.570    974.000    965.036      8.964    513.246    931.577    546.673    513.246    513.246
 95.670    984.000    950.343     33.657    512.966    917.432    545.854    512.966    512.966
 95.770    951.000    930.008     20.992    512.687    898.332    544.349    512.687    512.687
 95.870    940.388    905.328     35.060    512.408    875.457    542.271    512.408    512.408
 95.970    906.958    877.997     28.961    512.128    850.350    539.772    512.128    512.128
 96.070    863.000    849.850     13.150    511.849    824.685    537.014    511.849    511.849
 96.170    800.000    822.713    -22.713    511.571    800.133    534.150    511.571    511.571
 96.270    819.947    798.310     21.637    511.292    778.280    531.321    511.292    511.292
 96.370    786.000    778.210      7.790    511.014    760.579    528.640    511.014    511.014
 96.470    774.000    763.799     10.201    510.735    748.329    526.197    510.735    510.735
 96.570    783.000    756.255     26.745    510.458    742.643    524.053    510.458    510.458
 96.670    794.153    756.584     37.570    510.180    744.494    522.246    510.180    510.180
 96.770    778.000    765.645     12.355    509.903    754.724    520.790    509.903    509.903
 96.870    806.000    783.979     22.021    509.626    773.880    519.681    509.626    509.626
 96.970    872.000    811.928     60.072    509.349    802.318    518.904    509.349    509.349
 97.070    846.000    849.568     -3.568    509.073    840.142    518.431    509.073    509.073
 97.170    943.000    896.667     46.333    508.797    887.150    518.234    508.797    508.797
 97.270    983.000    952.628     30.372    508.521    942.780    518.276    508.521    508.521
 97.370   1067.000   1016.430     50.570    508.246   1006.052    518.520    508.246    508.246
 97.470   1100.000   1086.579     13.421    507.971   1075.512    518.924    507.971    507.971
 97.570   1205.000   1161.060     43.940    507.697   1149.193    519.442    507.697    507.697
 97.670   1259.000   1237.318     21.682    507.423   1224.591    520.022    507.423    507.423
 97.770   1367.158   1312.284     54.874    507.150   1298.695    520.608    507.150    507.150
 97.870   1413.259   1382.391     30.868    506.877   1368.000    521.139    506.877    506.877
 97.970   1422.000   1443.763    -21.763    506.605   1428.696    521.550    506.605    506.605
 98.070   1532.000   1492.522     39.478    506.333   1476.965    521.779    506.333    506.333
 98.170   1519.000   1525.262     -6.262    506.062   1509.457    521.772    506.062    506.062
 98.270   1578.000   1539.634     38.366    505.791   1523.856    521.492    505.791    505.791
 98.370   1520.000   1534.814    -14.814    505.522   1519.350    520.929    505.522    505.522
 98.470   1549.000   1511.671     37.329    505.252   1496.790    520.097    505.252    505.252
 98.570   1482.000   1472.543      9.457    504.984   1458.474    519.035    504.984    504.984
 98.670   1446.000   1420.762     25.238    504.716   1407.680    517.794    504.716    504.716
 98.770   1320.000   1360.130    -40.130    504.448   1348.155    516.433    504.448    504.448
 98.870   1337.000   1294.519     42.481    504.182   1283.711    515.008    504.182    504.182
 98.970   1208.000   1227.593    -19.593    503.916   1217.961    513.572    503.916    503.916
 99.070   1109.525   1162.661    -53.136    503.651   1154.170    512.167    503.651    503.651
 99.170   1210.000   1102.598    107.402    503.387   1095.180    510.829    503.387    503.387
 99.270   1071.000   1049.825     21.175    503.123   1043.382    509.586    503.123    503.123
 99.370    964.000   1006.315    -42.315    502.861   1000.734    508.457    502.861    502.861
 99.470    956.554    973.625    -17.071    502.599    968.780    507.452    502.599    502.599
 99.570    904.000    952.926    -48.926    502.338    948.689    506.576    502.338    502.338
 99.670    924.000    945.039    -21.039    502.078    941.283    505.827    502.078    502.078
 99.770    999.307    950.455     48.852    501.819    947.058    505.200    501.819    501.819
 99.870    950.000    969.355    -19.355    501.561    966.208    504.685    501.561    501.561
 99.970   1018.000   1001.619     16.381    501.304    998.623    504.271    501.304    501.304
100.070   1003.615   1046.825    -43.209    501.047   1043.896    503.943    501.047    501.047
100.170   1100.000   1104.236     -4.236    500.792   1101.304    503.689    500.792    500.792
100.270   1204.000   1172.779     31.221    500.538   1169.788    503.494    500.538    500.538
100.370   1211.217   1251.010    -39.793    500.285   1247.917    503.345    500.285    500.285
100.470   1391.000   1337.074     53.926    500.033   1333.851    503.227    500.033    500.033
100.570   1525.000   1428.702     96.298    499.782   1425.337    503.127    499.782    499.782
100.670   1483.448   1523.221    -39.773    499.532   1519.713    503.032    499.532    499.532
100.770   1625.000   1617.553      7.447    499.284   1613.912    502.930    499.284    499.284
100.870   1741.433   1708.423     33.010    499.036   1704.672    502.810    499.036    499.036
100.970   1882.000   1792.604     89.396    498.790   1788.772    502.664    498.790    498.790
101.070   1941.383   1867.227     74.156    498.545   1863.348    502.487    498.545    498.545
101.170   1940.498   1930.044     10.454    498.302   1926.151    502.278    498.302    498.302
101.270   1981.000   1979.515      1.485    498.059   1975.637    502.040    498.059    498.059
101.370   2037.102   2014.698     22.405    497.818   2010.853    501.782    497.818    497.818
101.470   2099.000   2035.019     63.981    497.578   2031.220    501.512    497.578    497.578
101.570   1954.848   2040.106    -85.259    497.340   2036.352    501.242    497.340    497.340
101.670   2001.343   2029.792    -28.449    497.103   2026.071    500.981    497.103    497.103
101.770   2081.664   2004.308     77.356    496.867   2000.603    500.738    496.867    496.867
101.870   1927.000   1964.582    -37.582    496.633   1960.865    500.520    496.633    496.633
101.970   1938.000   1912.431     25.569    496.400   1908.671    500.331    496.400    496.400
102.070   1866.000   1850.545     15.455    496.168   1846.711    500.172    496.168    496.168
102.170   1668.000   1782.215   -114.215    495.939   1778.276    500.042    495.939    495.939
102.270   1658.180   1710.916    -52.736    495.710   1706.845    499.938    495.710    495.710
102.370   1532.000   1639.901   -107.901    495.484   1635.679    499.854    495.484    495.484
102.470   1514.000   1571.902    -57.902    495.258   1567.518    499.780    495.258    495.258
102.570   1523.920   1508.964     14.957    495.035   1504.418    499.707    495.035    495.035
102.670   1445.000   1452.391     -7.391    494.813   1447.694    499.627    494.813    494.813
102.770   1338.000   1402.758    -64.758    494.593   1397.929    499.529    494.593    494.593
102.870   1270.000   1359.958    -89.958    494.374   1355.025    499.406    494.374    494.374
102.970   1389.575   1323.270     66.304    494.157   1318.268    499.253    494.157    494.157
103.070   1184.000   1291.455   -107.455    493.942   1286.421    499.063    493.942    493.942
103.170   1254.565   1262.883     -8.317    493.729   1257.862    498.834    493.729    493.729
103.270   1225.000   1235.723    -10.723    493.517   1230.762    498.561    493.517    493.517
103.370   1181.000   1208.178    -27.178    493.308   1203.326    498.243    493.308    493.308
103.470   1141.000   1178.744    -37.744    493.100   1174.049    497.877    493.100    493.100
103.570   1123.000   1146.421    -23.421    492.894   1141.931    497.468    492.894    492.894
103.670   1079.000   1110.822    -31.822    492.690   1106.575    497.019    492.690    492.690
103.770   1109.429   1072.131     37.298    492.488   1068.159    496.541    492.488    492.488
103.870   1028.766   1030.962     -2.195    492.288   1027.287    496.041    492.288    492.288
103.970    959.000    988.182    -29.182    492.090    984.816    495.531    492.090    492.090
104.070    940.000    944.755     -4.755    491.894    941.699    495.020    491.894    491.894
104.170    914.535    901.627     12.908    491.700    898.877    494.516    491.700    491.700
104.270    868.853    859.661      9.192    491.508    857.203    494.026    491.508    491.508
104.370    834.619    819.617     15.002    491.318    817.434    493.555    491.318    491.318
104.470    779.000    782.099     -3.099    491.130    780.170    493.108    491.130    491.130
104.570    785.185    747.547     37.639    490.945    745.850    492.684    490.945    490.945
104.670    708.000    716.321     -8.321    490.761    714.828    492.291    490.761    490.761
104.770    692.000    688.559      3.441    490.580    687.245    491.926    490.580    490.580
104.870    696.000    664.285     31.715    490.401    663.123    491.589    490.401    490.401
104.970    654.000    643.407     10.593    490.225    642.375    491.279    490.225    490.225
105.070    623.000    625.745     -2.745    490.051    624.820    490.993    490.051    490.051
105.170    676.000    611.050     64.950    489.879    610.213    490.729    489.879    489.879
105.270    633.000    599.038     33.962    489.709    598.271    490.486    489.709    489.709
105.370    557.804    589.408    -31.603    489.542    588.695    490.262    489.542    489.542
105.470    628.000    581.866     46.134    489.378    581.194    490.054    489.378    489.378
105.570    598.488    576.141     22.347    489.216    575.498    489.861    489.216    489.216
105.670    578.000    571.997      6.003    489.056    571.371    489.682    489.056    489.056
105.770    626.000    569.238     56.762    488.899    568.620    489.515    488.899    488.899
105.870    523.778    567.711    -43.933    488.744    567.092    489.360    488.744    488.744
105.970    556.918    567.309    -10.391    488.593    566.679    489.217    488.593    488.593
106.070    550.811    567.964    -17.153    488.443    567.315    489.085    488.443    488.443
106.170    574.000    569.642      4.358    488.297    568.964    488.965    488.297    488.297
106.270    552.990    572.339    -19.349    488.153    571.622    488.857    488.153    488.153
106.370    591.000    576.070     14.930    488.012    575.305    488.762    488.012    488.012
106.470    612.460    580.865     31.596    487.873    580.040    488.680    487.873    487.873
106.570    603.641    586.754     16.887    487.737    585.859    488.612    487.737    487.737
106.670    658.000    593.766     64.234    487.605    592.788    488.559    487.605    487.605
106.770    591.000    601.909    -10.909    487.475    600.836    488.520    487.475    487.475
106.870    638.000    611.169     26.831    487.348    609.990    488.495    487.348    487.348
106.970    635.000    621.493     13.507    487.223    620.197    488.484    487.223    487.223
107.070    626.000    632.786     -6.786    487.102    631.364    488.485    487.102    487.102
107.170    648.000    644.905      3.095    486.984    643.349    488.497    486.984    486.984
107.270    643.000    657.653    -14.653    486.869    655.958    488.517    486.869    486.869
107.370    646.331    670.780    -24.448    486.757    668.944    488.543    486.757    486.757
107.470    699.000    683.986     15.014    486.648    682.012    488.569    486.648    486.648
107.570    731.072    696.928     34.144    486.542    694.822    488.593    486.542    486.542
107.670    705.491    709.225     -3.733    486.439    706.998    488.610    486.439    486.439
107.770    686.372    720.482    -34.110    486.340    718.151    488.614    486.340    486.340
107.870    763.000    730.318     32.682    486.243    727.904    488.600    486.243    486.243
107.970    742.000    738.405      3.595    486.150    735.934    488.566    486.150    486.150
108.070    769.668    744.517     25.151    486.061    742.018    488.506    486.061    486.061
108.170    743.000    748.570     -5.570    485.974    746.073    488.421    485.974    485.974
108.270    736.000    750.644    -14.644    485.891    748.179    488.310    485.891    485.891
108.370    750.000    750.973     -0.973    485.812    748.568    488.175    485.812    485.812
108.470    769.000    749.913     19.087    485.735    747.591    488.020    485.735    485.735
108.570    705.000    747.886    -42.886    485.663    745.667    487.849    485.663    485.663
108.670    720.852    745.332    -24.479    485.593    743.228    487.668    485.593    485.593
108.770    714.000    742.656    -28.656    485.528    740.678    487.481    485.528    485.528
108.870    729.000    740.202    -11.202    485.466    738.354    487.294    485.466    485.466
108.970    734.016    738.232     -4.217    485.407    736.514    487.109    485.407    485.407
109.070    720.000    736.911    -16.911    485.352    735.319    486.931    485.352    485.352
109.170    702.000    736.301    -34.301    485.301    734.831    486.763    485.301    485.301
109.270    779.000    736.366     42.634    485.254    735.008    486.606    485.254    485.254
109.370    691.301    736.965    -45.664    485.210    735.711    486.461    485.210    485.210
109.470    703.373    737.869    -34.495    485.170    736.710    486.330    485.170    485.170
109.570    783.651    738.770     44.880    485.134    737.696    486.212    485.134    485.134
109.670    728.000    739.304    -11.304    485.102    738.309    486.103    485.102    485.102
109.770    743.000    739.095      3.905    485.074    738.170    486.007    485.074    485.074
109.870    743.348    737.791      5.557    485.050    736.927    485.925    485.050    485.050
109.970    712.000    735.100    -23.100    485.030    734.289    485.853    485.030    485.030
110.070    715.000    730.839    -15.839    485.013    730.076    485.790    485.013    485.013
110.170    680.177    724.956    -44.779    485.001    724.238    485.736    485.001    485.001
110.270    652.000    717.529    -65.529    484.993    716.852    485.688    484.993    484.993
110.370    757.468    708.744     48.725    484.989    708.104    485.647    484.989    484.989
110.470    677.000    698.858    -21.858    484.989    698.253    485.612    484.989    484.989
110.570    647.000    688.166    -41.166    484.994    687.593    485.584    484.994    484.994
110.670    656.000    676.986    -20.986    485.003    676.443    485.562    485.003    485.003
110.770    703.294    665.618     37.676    485.016    665.103    485.547    485.016    485.016
110.870    685.000    654.332     30.668    485.033    653.842    485.537    485.033    485.033
110.970    693.055    643.370     49.686    485.055    642.902    485.535    485.055    485.055
111.070    637.750    632.937      4.813    485.081    632.490    485.539    485.081    485.081
111.170    605.767    623.202    -17.435    485.111    622.773    485.550    485.111    485.111
111.270    572.887    614.294    -41.407    485.146    613.881    485.567    485.146    485.146
111.370    641.000    606.304     34.696    485.186    605.905    485.591    485.186    485.186
111.470    635.000    599.290     35.710    485.230    598.902    485.623    485.230    485.230
111.570    610.306    593.273     17.033    485.279    592.894    485.661    485.279    485.279
111.670    594.000    588.248      5.752    485.333    587.875    485.706    485.333    485.333
111.770    591.000    584.183      6.817    485.391    583.816    485.757    485.391    485.391
111.870    567.820    581.030    -13.210    485.454    580.665    485.815    485.454    485.454
111.970    563.000    578.723    -15.723    485.521    578.360    485.880    485.521    485.521
112.070    548.378    577.189    -28.812    485.594    576.827    485.951    485.594    485.594
112.170    605.000    576.351     28.649    485.671    575.987    486.028    485.671    485.671
112.270    601.000    576.129     24.871    485.753    575.763    486.111    485.753    485.753
112.370    584.000    576.446      7.554    485.841    576.078    486.200    485.841    485.841
112.470    585.951    577.232      8.719    485.933    576.861    486.294    485.933    485.933
112.570    624.000    578.423     45.577    486.030    578.049    486.394    486.030    486.030
112.670    589.033    579.965      9.068    486.132    579.587    486.499    486.132    486.132
112.770    620.011    581.816     38.195    486.240    581.435    486.610    486.240    486.240
112.870    610.000    583.947     26.053    486.352    583.562    486.725    486.352    486.352
112.970    607.000    586.341     20.659    486.470    585.952    486.846    486.470    486.470
113.070    549.000    588.996    -39.996    486.593    588.603    486.973    486.593    486.593
113.170    626.000    591.926     34.074    486.721    591.528    487.105    486.721    486.721
113.270    560.248    595.158    -34.909    486.855    594.755    487.244    486.855    486.855
113.370    546.000    598.735    -52.735    486.994    598.327    487.388    486.994    486.994
113.470    594.099    602.719     -8.620    487.138    602.304    487.540    487.138    487.138
113.570    625.000    607.192     17.808    487.288    606.767    487.698    487.288    487.288
113.670    642.208    612.258     29.949    487.443    611.822    487.864    487.443    487.443
113.770    578.000    618.057    -40.057    487.604    617.606    488.038    487.604    487.604
113.870    619.000    624.765     -5.765    487.771    624.296    488.222    487.771    487.771
113.970    663.000    632.608     30.392    487.943    632.117    488.414    487.943    487.943
114.070    632.680    641.875     -9.195    488.121    641.356    488.618    488.121    488.121
114.170    594.000    652.929    -58.929    488.304    652.377    488.832    488.304    488.304
114.270    686.743    666.227     20.515    488.493    665.635    489.058    488.493    488.493
114.370    637.000    682.335    -45.335    488.688    681.694    489.297    488.688    488.688
114.470    694.000    701.946     -7.946    488.889    701.247    489.549    488.889    488.889
114.570    717.000    725.904     -8.904    489.096    725.137    489.816    489.096    489.096
114.670    765.000    755.215      9.785    489.309    754.369    490.099    489.309    489.309
114.770    788.000    791.064     -3.064    489.528    790.126    490.398    489.528    489.528
114.870    796.604    834.827    -38.223    489.753    833.784    490.714    489.753    489.753
114.970    879.000    888.071     -9.071    489.984    886.908    491.048    489.984    489.984
115.070    893.000    952.548    -59.548    490.221    951.251    491.399    490.221    490.221
115.170   1008.000   1030.178    -22.178    490.464   1028.730    491.770    490.464    490.464
115.270   1108.000   1123.014    -15.014    490.713   1121.399    492.159    490.713    490.713
115.370   1240.000   1233.191      6.809    490.969   1231.394    492.566    490.969    490.969
115.470   1420.769   1362.864     57.905    491.231   1360.868    492.992    491.231    491.231
115.570   1561.000   1514.117     46.883    491.500   1511.908    493.435    491.500    491.500
115.670   1764.000   1688.865     75.135    491.774   1686.428    493.895    491.774    491.774
115.770   1803.507   1888.734    -85.227    492.056   1886.057    494.371    492.056    492.056
115.870   2094.634   2114.922    -20.288    492.343   2111.996    494.861    492.343    492.343
115.970   2280.473   2368.084    -87.611    492.638   2364.902    495.362    492.638    492.638
116.070   2643.000   2648.281     -5.281    492.939   2644.837    495.874    492.939    492.939
116.170   3069.000   2954.659    114.341    493.246   2950.954    496.393    493.246    493.246
116.270   3328.000   3285.493     42.507    493.561   3281.531    496.918    493.561    493.561
116.370   3819.000   3638.067    180.933    493.882   3633.856    497.445    493.882    493.882
116.470   4030.000   4008.618     21.382    494.210   4004.169    497.974    494.210    494.210
116.570   4376.000   4392.311    -16.311    494.544   4387.640    498.501    494.544    494.544
116.670   4665.000   4783.247   -118.247    494.886   4778.373    499.025    494.886    494.886
116.770   5266.677   5174.518     92.158    495.235   5169.461    499.547    495.235    495.235
116.870   5463.059   5558.287    -95.228    495.590   5553.070    500.066    495.590    495.590
116.970   5833.342   5925.930    -92.588    495.953   5920.577    500.582    495.953    495.953
117.070   6346.000   6268.233     77.767    496.323   6262.769    501.095    496.323    496.323
117.170   6638.000   6575.686     62.314    496.699   6570.135    501.605    496.699    496.699
117.270   6978.704   6838.879    139.825    497.083   6833.269    502.113    497.083    497.083
117.370   7143.246   7049.035     94.211    497.475   7043.390    502.617    497.475    497.475
117.470   7245.000   7198.637     46.363    497.873   7192.981    503.117    497.873    497.873
117.570   7295.094   7282.088     13.006    498.279   7276.442    503.610    498.279    498.279
117.670   7271.989   7296.276    -24.287    498.693   7290.661    504.097    498.693    498.693
117.770   7356.000   7240.923    115.077    499.114   7235.355    504.574    499.114    499.114
117.870   6955.372   7118.611   -163.239    499.542   7113.103    505.042    499.542    499.542
117.970   7003.250   6934.483     68.767    499.978   6929.047    505.498    499.978    499.978
118.070   6508.000   6695.702   -187.702    500.421   6690.347    505.940    500.421    500.421
118.170   6168.000   6410.792   -242.792    500.872   6405.529    506.368    500.872    500.872
118.270   5992.000   6089.000    -97.000    501.331   6083.838    506.780    501.331    501.331
118.370   5836.923   5739.741     97.183    501.798   5734.692    507.175    501.798    501.798
118.470   5467.908   5372.178     95.730    502.272   5367.254    507.552    502.272    502.272
118.570   4952.481   4994.914    -42.433    502.754   4990.128    507.912    502.754    502.754
118.670   4818.000   4615.779    202.221    503.245   4611.143    508.256    503.245    503.245
118.770   4363.094   4241.684    121.410    503.743   4237.210    508.586    503.743    503.743
118.870   4004.000   3878.534    125.466    504.249   3874.231    508.906    504.249    504.249
118.970   3641.822   3531.177    110.645    504.763   3527.054    509.219    504.763    504.763
119.070   3288.000   3203.400     84.600    505.286   3199.461    509.530    505.286    505.286
119.170   2791.005   2897.958   -106.954    505.816   2894.206    509.844    505.816    505.816
119.270   2647.000   2616.643     30.357    506.355   2613.077    510.164    506.355    506.355
119.370   2394.956   2360.372     34.584    506.902   2356.989    510.495    506.902    506.902
119.470   2061.000   2129.301    -68.301    507.458   2126.095    510.841    507.458    507.458
119.570   1945.000   1922.948     22.052    508.021   1919.911    511.206    508.021    508.021
119.670   1708.000   1740.321    -32.321    508.594   1737.440    511.592    508.594    508.594
119.770   1586.000   1580.034      5.966    509.175   1577.298    512.003    509.175    509.175
119.870   1468.000   1440.430     27.570    509.764   1437.822    512.441    509.764    509.764
119.970   1445.000   1319.678    125.322    510.362   1317.181    512.908    510.362    510.362
120.070   1239.000   1215.868     23.132    510.969   1213.463    513.406    510.969    510.969
120.170   1114.912   1127.089    -12.177    511.584   1124.757    513.935    511.584    511.584
120.270   1015.578   1051.492    -35.914    512.208   1049.210    514.498    512.208    512.208
120.370    983.000    987.334     -4.334    512.841    985.081    515.094    512.841    512.841
120.470    986.000    933.016     52.984    513.483    930.768    515.725    513.483    513.483
120.570    921.936    887.099     34.836    514.134    884.833    516.391    514.134    514.134
120.670    912.000    848.317     63.683    514.794    846.007    517.092    514.794    514.794
120.770    821.000    815.568      5.432    515.463    813.189    517.828    515.463    515.463
120.870    765.000    787.914    -22.914    516.141    785.441    518.601    516.141    516.141
120.970    737.947    764.565    -26.618    516.829    761.969    519.411    516.829    516.829
121.070    746.000    744.861      1.139    517.525    742.116    520.258    517.525    517.525
121.170    706.000    728.260    -22.260    518.231    725.337    521.143    518.231    518.231
121.270    721.000    714.316      6.684    518.946    711.186    522.068    518.946    518.946
121.370    664.000    702.669    -38.669    519.671    699.301    523.032    519.671    519.671
121.470    683.000    693.025    -10.025    520.405    689.386    524.038    520.405    520.405
121.570    668.010    685.144    -17.135    521.149    681.203    525.086    521.149    521.149
121.670    693.803    678.833     14.969    521.902    674.555    526.178    521.902    521.902
121.770    646.964    673.932    -26.968    522.665    669.281    527.316    522.665    522.665
121.870    655.000    670.307    -15.307    523.437    665.245    528.500    523.437    523.437
121.970    671.000    667.844      3.156    524.220    662.335    529.732    524.220    524.220
122.070    656.000    666.446    -10.446    525.012    660.449    531.013    525.012    525.012
122.170    643.232    666.023    -22.792    525.814    659.499    532.345    525.814    525.814
122.270    614.847    666.495    -51.647    526.626    659.401    533.727    526.626    526.626
122.370    667.000    667.780     -0.780    527.448    660.077    535.161    527.448    527.448
122.470    657.000    669.802    -12.802    528.280    661.450    536.644    528.280    528.280
122.570    683.508    672.480     11.028    529.122    663.441    538.175    529.122    529.122
122.670    685.000    675.731      9.269    529.975    665.971    539.751    529.975    529.975
122.770    731.651    679.467     52.183    530.837    668.956    541.367    530.837    530.837
122.870    698.000    683.595     14.405    531.710    672.308    543.017    531.710    531.710
122.970    729.000    688.013     40.987    532.594    675.936    544.695    532.594    532.594
123.070    671.000    692.617    -21.617    533.487    679.740    546.390    533.487    533.487
123.170    717.497    697.293     20.204    534.391    683.620    548.093    534.391    534.391
123.270    681.651    701.922    -20.271    535.306    687.467    549.793    535.306    535.306
123.370    740.103    706.380     33.723    536.232    691.170    551.476    536.232    536.232
123.470    689.584    710.521    -20.937    537.168    694.597    553.128    537.168    537.168
123.570    667.607    714.245    -46.639    538.114    697.662    554.737    538.114    538.114
123.670    718.834    717.453      1.381    539.072    700.279    556.288    539.072    539.072
123.770    682.000    720.018    -38.018    540.040    702.335    557.767    540.040    540.040
123.870    716.000    721.848     -5.848    541.020    703.749    559.164    541.020    541.020
123.970    752.000    722.874     29.126    542.010    704.463    560.469    542.010    542.010
124.070    701.135    723.054    -21.918    543.012    704.439    561.675    543.012    543.012
124.170    676.000    722.373    -46.373    544.024    703.670    562.778    544.024    544.024
124.270    739.000    720.847     18.153    545.048    702.168    563.777    545.048    545.048
124.370    687.277    718.514    -31.237    546.083    699.973    564.674    546.083    546.083
124.470    751.000    715.433     35.567    547.129    697.138    565.473    547.129    547.129
124.570    664.130    711.680    -47.550    548.187    693.734    566.181    548.187    548.187
124.670    713.000    707.339      5.661    549.256    689.837    566.805    549.256    549.256
124.770    662.431    702.502    -40.071    550.336    685.531    567.354    550.336    550.336
124.870    667.205    697.264    -30.059    551.428    680.900    567.837    551.428    551.428
124.970    742.429    691.720     50.709    552.532    676.029    568.265    552.532    552.532
