neutron_powder_diffraction_0173
R_wp: 3.852
Temperature (K): 1074.000
Counts: 83415.00
Wavelength (Ã…): 2.52098
COMMENTS
Test file for demonstrating the .xyy file format in Reel1.0
END OF HEADER
   tth       Y_obs     Y_calc      Y_res    Background    Phase_1_Nuc    Phase_1_Mag    Phase_2_Nuc    Phase_2_Mag
  9.970    576.000    570.801      5.199    570.044    570.744    570.044    570.101    570.044
 10.070    564.508    570.925     -6.417    570.108    570.868    570.108    570.164    570.108
 10.170    552.080    571.053    -18.973    570.165    570.995    570.165    570.222    570.165
 10.270    530.000    571.186    -41.186    570.218    571.128    570.218    570.275    570.218
 10.370    572.000    571.326      0.674    570.265    571.268    570.265    570.322    570.265
 10.470    581.119    571.478      9.641    570.306    571.419    570.306    570.364    570.306
 10.570    614.606    571.644     42.962    570.343    571.585    570.343    570.401    570.343
 10.670    582.000    571.830     10.170    570.374    571.771    570.374    570.432    570.374
 10.770    576.000    572.043      3.957    570.400    571.984    570.400    570.459    570.400
 10.870    618.000    572.292     45.708    570.421    572.232    570.421    570.480    570.421
 10.970    584.000    572.591     11.409    570.437    572.531    570.437    570.496    570.437
 11.070    619.000    572.959     46.041    570.448    572.898    570.448    570.508    570.448
 11.170    601.000    573.421     27.579    570.454    573.360    570.454    570.514    570.454
 11.270    571.000    574.022     -3.022    570.456    573.960    570.456    570.516    570.456
 11.370    536.870    574.836    -37.966    570.452    574.773    570.452    570.512    570.452
 11.470    586.000    576.027      9.973    570.444    575.964    570.444    570.504    570.444
 11.570    580.223    578.044      2.179    570.431    577.979    570.431    570.491    570.431
 11.670    591.000    582.084      8.916    570.413    582.016    570.413    570.474    570.413
 11.770    591.572    590.746      0.826    570.390    590.673    570.390    570.452    570.390
 11.870    592.609    607.954    -15.345    570.363    607.870    570.363    570.426    570.363
 11.970    601.983    636.445    -34.462    570.332    636.345    570.332    570.395    570.332
 12.070    696.336    672.341     23.995    570.295    672.220    570.295    570.359    570.295
 12.170    664.881    700.259    -35.378    570.255    700.123    570.255    570.319    570.255
 12.270    660.000    701.122    -41.122    570.210    700.985    570.210    570.274    570.210
 12.370    678.000    674.126      3.874    570.160    674.004    570.160    570.225    570.160
 12.470    592.000    638.012    -46.012    570.107    637.909    570.107    570.172    570.107
 12.570    575.000    608.828    -33.828    570.049    608.741    570.049    570.114    570.049
 12.670    580.155    590.979    -10.823    569.987    590.901    569.987    570.052    569.987
 12.770    578.122    581.897     -3.775    569.920    581.825    569.920    569.986    569.920
 12.870    597.000    577.620     19.380    569.850    577.549    569.850    569.916    569.850
 12.970    562.856    575.456    -12.600    569.775    575.387    569.775    569.842    569.775
 13.070    600.648    574.154     26.494    569.697    574.085    569.697    569.764    569.697
 13.170    561.580    573.243    -11.663    569.614    573.174    569.614    569.681    569.614
 13.270    518.000    572.550    -54.550    569.528    572.481    569.528    569.595    569.528
 13.370    610.290    572.000     38.290    569.437    571.931    569.437    569.505    569.437
 13.470    591.539    571.548     19.991    569.343    571.478    569.343    569.411    569.343
 13.570    573.000    571.166      1.834    569.245    571.097    569.245    569.313    569.245
 13.670    572.000    570.836      1.164    569.143    570.767    569.143    569.212    569.143
 13.770    567.000    570.545     -3.545    569.037    570.475    569.037    569.106    569.037
 13.870    541.474    570.282    -28.808    568.928    570.212    568.928    568.997    568.928
 13.970    535.732    570.041    -34.308    568.815    569.970    568.815    568.885    568.815
 14.070    586.266    569.816     16.450    568.698    569.745    568.698    568.769    568.698
 14.170    543.000    569.604    -26.604    568.578    569.533    568.578    568.649    568.578
 14.270    544.000    569.402    -25.402    568.454    569.331    568.454    568.526    568.454
 14.370    551.000    569.210    -18.210    568.327    569.138    568.327    568.399    568.327
 14.470    558.000    569.022    -11.022    568.197    568.950    568.197    568.269    568.197
 14.570    585.972    568.837     17.134    568.063    568.765    568.063    568.135    568.063
 14.670    540.000    568.655    -28.655    567.926    568.582    567.926    567.998    567.926
 14.770    589.587    568.475     21.112    567.785    568.402    567.785    567.858    567.785
 14.870    553.000    568.297    -15.297    567.641    568.223    567.641    567.715    567.641
 14.970    548.829    568.123    -19.294    567.494    568.044    567.494    567.572    567.494
 15.070    595.328    567.947     27.382    567.344    567.866    567.344    567.424    567.344
 15.170    580.700    567.769     12.931    567.190    567.688    567.190    567.271    567.190
 15.270    571.152    567.591      3.561    567.034    567.509    567.034    567.115    567.034
 15.370    545.947    567.412    -21.465    566.874    567.329    566.874    566.956    566.874
 15.470    589.000    567.231     21.769    566.712    567.149    566.712    566.794    566.712
 15.570    594.254    567.051     27.203    566.546    566.968    566.546    566.629    566.546
 15.670    620.000    566.870     53.130    566.377    566.787    566.377    566.461    566.377
 15.770    592.000    566.686     25.314    566.206    566.602    566.206    566.290    566.206
 15.870    580.158    566.500     13.657    566.032    566.416    566.032    566.116    566.032
 15.970    547.000    566.313    -19.313    565.855    566.228    565.855    565.939    565.855
 16.070    579.768    566.124     13.644    565.675    566.038    565.675    565.760    565.675
 16.170    521.000    565.933    -44.933    565.492    565.847    565.492    565.578    565.492
 16.270    597.000    565.740     31.260    565.307    565.654    565.307    565.393    565.307
 16.370    543.000    565.545    -22.545    565.119    565.458    565.119    565.205    565.119
 16.470    603.826    565.349     38.478    564.928    565.261    564.928    565.015    564.928
 16.570    534.000    565.150    -31.150    564.735    565.062    564.735    564.822    564.735
 16.670    528.000    564.950    -36.950    564.539    564.861    564.539    564.627    564.539
 16.770    567.000    564.748      2.252    564.340    564.659    564.340    564.429    564.340
 16.870    551.902    564.543    -12.641    564.139    564.454    564.139    564.229    564.139
 16.970    601.655    564.337     37.318    563.936    564.247    563.936    564.026    563.936
 17.070    587.000    564.131     22.869    563.730    564.040    563.730    563.821    563.730
 17.170    551.000    563.921    -12.921    563.522    563.830    563.522    563.614    563.522
 17.270    620.000    563.709     56.291    563.312    563.618    563.312    563.404    563.312
 17.370    559.000    563.495     -4.495    563.099    563.403    563.099    563.192    563.099
 17.470    553.000    563.279    -10.279    562.884    563.186    562.884    562.977    562.884
 17.570    529.000    563.062    -34.062    562.667    562.968    562.667    562.761    562.667
 17.670    589.000    562.842     26.158    562.448    562.748    562.448    562.542    562.448
 17.770    555.000    562.621     -7.621    562.226    562.526    562.226    562.321    562.226
 17.870    587.000    562.398     24.602    562.002    562.302    562.002    562.098    562.002
 17.970    597.829    562.173     35.656    561.777    562.076    561.777    561.873    561.777
 18.070    602.613    561.946     40.667    561.549    561.849    561.549    561.646    561.549
 18.170    547.000    561.717    -14.717    561.319    561.620    561.319    561.416    561.319
 18.270    560.000    561.487     -1.487    561.087    561.389    561.087    561.185    561.087
 18.370    582.051    561.256     20.795    560.853    561.157    560.853    560.952    560.853
 18.470    523.763    561.023    -37.260    560.618    560.924    560.618    560.717    560.618
 18.570    546.000    560.789    -14.789    560.380    560.689    560.380    560.480    560.380
 18.670    558.000    560.553     -2.553    560.140    560.452    560.140    560.242    560.140
 18.770    542.000    560.315    -18.315    559.899    560.213    559.899    560.001    559.899
 18.870    578.191    560.076     18.116    559.656    559.973    559.656    559.759    559.656
 18.970    571.000    559.835     11.165    559.411    559.731    559.411    559.515    559.411
 19.070    527.000    559.593    -32.593    559.165    559.488    559.165    559.269    559.165
 19.170    548.303    559.349    -11.046    558.917    559.244    558.917    559.022    558.917
 19.270    552.000    559.104     -7.104    558.667    558.998    558.667    558.773    558.667
 19.370    585.398    558.857     26.541    558.415    558.750    558.415    558.522    558.415
 19.470    505.000    558.610    -53.610    558.162    558.502    558.162    558.270    558.162
 19.570    559.000    558.362      0.638    557.908    558.253    557.908    558.016    557.908
 19.670    569.000    558.126     10.874    557.651    558.016    557.651    557.761    557.651
 19.770    586.000    557.885     28.115    557.394    557.774    557.394    557.504    557.394
 19.870    555.535    557.636     -2.101    557.135    557.522    557.135    557.248    557.135
 19.970    610.000    557.384     52.616    556.874    557.268    556.874    556.989    556.874
 20.070    557.693    557.130      0.564    556.612    557.013    556.612    556.729    556.612
 20.170    544.255    556.875    -12.620    556.349    556.757    556.349    556.466    556.349
 20.270    536.000    556.619    -20.619    556.084    556.501    556.084    556.203    556.084
 20.370    597.000    556.363     40.637    555.818    556.243    555.818    555.938    555.818
 20.470    512.000    556.106    -44.106    555.551    555.985    555.551    555.672    555.551
 20.570    550.269    555.848     -5.579    555.282    555.726    555.282    555.404    555.282
 20.670    531.000    555.589    -24.589    555.013    555.466    555.013    555.136    555.013
 20.770    526.000    555.330    -29.330    554.742    555.206    554.742    554.866    554.742
 20.870    600.000    555.071     44.929    554.470    554.946    554.470    554.595    554.470
 20.970    545.281    554.812     -9.530    554.197    554.685    554.197    554.323    554.197
 21.070    577.437    554.552     22.885    553.922    554.424    553.922    554.050    553.922
 21.170    526.971    554.292    -27.321    553.647    554.162    553.647    553.776    553.647
 21.270    520.000    554.032    -34.032    553.370    553.901    553.370    553.501    553.370
 21.370    565.000    553.772     11.228    553.093    553.640    553.093    553.225    553.093
 21.470    522.620    553.513    -30.893    552.815    553.379    552.815    552.948    552.815
 21.570    554.000    553.254      0.746    552.535    553.119    552.535    552.670    552.535
 21.670    562.000    552.995      9.005    552.255    552.859    552.255    552.392    552.255
 21.770    547.000    552.738     -5.738    551.974    552.600    551.974    552.112    551.974
 21.870    574.764    552.481     22.282    551.691    552.342    551.691    551.831    551.691
 21.970    603.000    552.234     50.766    551.409    552.093    551.409    551.550    551.409
 22.070    527.571    552.061    -24.490    551.125    551.917    551.125    551.268    551.125
 22.170    539.000    551.832    -12.832    550.840    551.687    550.840    550.985    550.840
 22.270    560.762    551.588      9.174    550.555    551.442    550.555    550.702    550.555
 22.370    506.000    551.343    -45.343    550.269    551.194    550.269    550.418    550.269
 22.470    586.000    551.107     34.893    549.982    550.956    549.982    550.133    549.982
 22.570    516.000    550.934    -34.934    549.694    550.781    549.694    549.847    549.694
 22.670    567.000    550.746     16.254    549.406    550.591    549.406    549.561    549.406
 22.770    570.212    550.525     19.687    549.117    550.368    549.117    549.275    549.117
 22.870    564.000    550.307     13.693    548.828    550.148    548.828    548.988    548.828
 22.970    573.502    550.099     23.403    548.538    549.937    548.538    548.700    548.538
 23.070    583.000    549.904     33.096    548.247    549.740    548.247    548.412    548.247
 23.170    570.285    549.725     20.560    547.956    549.559    547.956    548.123    547.956
 23.270    539.000    549.562    -10.562    547.665    549.393    547.665    547.834    547.665
 23.370    578.000    549.423     28.577    547.373    549.252    547.373    547.545    547.373
 23.470    552.725    549.315      3.410    547.080    549.140    547.080    547.255    547.080
 23.570    508.476    549.247    -40.771    546.787    549.070    546.787    546.966    546.787
 23.670    572.908    549.234     23.674    546.494    549.053    546.494    546.675    546.494
 23.770    526.000    549.296    -23.296    546.200    549.112    546.200    546.385    546.200
 23.870    596.000    549.465     46.535    545.906    549.279    545.906    546.094    545.906
 23.970    583.451    549.803     33.648    545.611    549.614    545.611    545.803    545.611
 24.070    555.392    550.454      4.938    545.317    550.262    545.317    545.512    545.317
 24.170    552.000    551.811      0.189    545.021    551.615    545.021    545.221    545.021
 24.270    557.000    554.858      2.142    544.726    554.660    544.726    544.930    544.726
 24.370    618.000    561.523     56.477    544.430    561.326    544.430    544.638    544.430
 24.470    567.000    574.304     -7.304    544.135    574.112    544.135    544.347    544.135
 24.570    633.000    594.240     38.760    543.839    594.058    543.839    544.056    543.839
 24.670    556.000    617.398    -61.398    543.542    617.227    543.542    543.765    543.542
 24.770    598.000    632.605    -34.605    543.246    632.441    543.246    543.474    543.246
 24.870    625.000    628.873     -3.873    542.949    628.701    542.949    543.183    542.949
 24.970    643.000    609.184     33.816    542.653    608.991    542.653    542.893    542.653
 25.070    598.086    585.880     12.207    542.356    585.664    542.356    542.602    542.356
 25.170    615.000    567.713     47.287    542.059    567.477    542.059    542.312    542.059
 25.270    556.000    556.652     -0.652    541.762    556.402    541.762    542.023    541.762
 25.370    568.876    550.895     17.981    541.466    550.632    541.466    541.733    541.466
 25.470    531.000    548.029    -17.029    541.169    547.757    541.169    541.445    541.169
 25.570    560.000    546.467     13.533    540.872    546.185    540.872    541.157    540.872
 25.670    559.000    545.461     13.539    540.575    545.169    540.575    540.869    540.575
 25.770    523.936    544.714    -20.778    540.278    544.411    540.278    540.583    540.278
 25.870    564.000    544.119     19.881    539.982    543.805    539.982    540.297    539.982
 25.970    560.000    543.631     16.369    539.685    543.305    539.685    540.012    539.685
 26.070    538.000    543.223     -5.223    539.389    542.884    539.389    539.728    539.389
 26.170    545.985    542.882      3.103    539.092    542.529    539.092    539.446    539.092
 26.270    553.000    542.621     10.379    538.796    542.254    538.796    539.164    538.796
 26.370    572.414    542.410     30.005    538.500    542.026    538.500    538.884    538.500
 26.470    523.217    542.228    -19.012    538.205    541.827    538.205    538.606    538.205
 26.570    547.793    542.094      5.698    537.909    541.674    537.909    538.330    537.909
 26.670    581.000    542.013     38.987    537.614    541.571    537.614    538.056    537.614
 26.770    521.998    541.999    -20.001    537.319    541.534    537.319    537.784    537.319
 26.870    536.000    542.041     -6.041    537.024    541.551    537.024    537.514    537.024
 26.970    509.050    542.169    -33.119    536.730    541.650    536.730    537.248    536.730
 27.070    556.000    542.416     13.584    536.435    541.866    536.435    536.986    536.435
 27.170    580.000    542.816     37.184    536.142    542.231    536.142    536.727    536.142
 27.270    543.000    543.384     -0.384    535.848    542.758    535.848    536.473    535.848
 27.370    547.000    544.212      2.788    535.555    543.542    535.555    536.224    535.555
 27.470    514.821    545.440    -30.619    535.262    544.719    535.262    535.981    535.262
 27.570    518.000    547.417    -29.417    534.970    546.638    534.970    535.746    534.970
 27.670    540.000    551.425    -11.425    534.678    550.580    534.678    535.520    534.678
 27.770    593.763    562.012     31.751    534.387    561.089    534.387    535.303    534.387
 27.870    614.964    591.193     23.771    534.096    590.173    534.096    535.100    534.096
 27.970    642.000    658.393    -16.393    533.805    657.249    533.805    534.911    533.805
 28.070    815.872    773.052     42.821    533.515    771.754    533.515    534.741    533.515
 28.170    906.402    902.496      3.906    533.226    901.027    533.226    534.595    533.226
 28.270    956.000    966.352    -10.352    532.937    964.714    532.937    534.477    532.937
 28.370    920.000    911.763      8.237    532.649    909.953    532.649    534.399    532.649
 28.470    749.000    794.588    -45.588    532.361    792.554    532.361    534.371    532.361
 28.570    701.000    704.399     -3.399    532.074    702.047    532.074    534.416    532.074
 28.670    706.000    686.597     19.403    531.787    683.803    531.787    534.568    531.787
 28.770    761.601    734.970     26.632    531.501    731.567    531.501    534.885    531.501
 28.870    836.000    807.143     28.857    531.215    802.888    531.215    535.459    531.215
 28.970    759.000    841.379    -82.379    530.931    835.889    530.931    536.423    530.931
 29.070    835.985    801.548     34.437    530.646    794.259    530.646    537.949    530.646
 29.170    721.000    719.571      1.429    530.363    709.730    530.363    540.217    530.363
 29.270    644.945    644.691      0.254    530.080    631.422    530.080    543.358    530.080
 29.370    607.000    598.938      8.062    529.798    581.399    529.798    547.340    529.798
 29.470    570.000    579.013     -9.013    529.517    556.777    529.517    551.753    529.517
 29.570    639.000    572.679     66.321    529.236    546.382    529.236    555.531    529.236
 29.670    578.000    570.017      7.983    528.956    541.881    528.956    557.090    528.956
 29.770    606.075    566.302     39.772    528.677    539.489    528.677    555.489    528.677
 29.870    588.000    560.977     27.023    528.399    537.936    528.399    551.438    528.399
 29.970    598.000    555.227     42.773    528.121    536.847    528.121    546.499    528.121
 30.070    544.576    550.109     -5.533    527.845    536.104    527.845    541.848    527.845
 30.170    534.150    546.113    -11.963    527.569    535.688    527.569    537.992    527.569
 30.270    559.000    543.435     15.565    527.294    535.709    527.294    535.017    527.294
 30.370    584.000    542.407     41.593    527.019    536.610    527.019    532.812    527.019
 30.470    588.000    544.032     43.968    526.746    539.571    526.746    531.201    526.746
 30.570    575.000    550.356     24.644    526.474    546.808    526.474    530.010    526.474
 30.670    536.000    563.691    -27.691    526.202    560.774    526.202    529.097    526.202
 30.770    599.075    583.904     15.171    525.931    581.434    525.931    528.363    525.931
 30.870    649.461    604.933     44.528    525.662    602.796    525.662    527.746    525.662
 30.970    588.000    614.539    -26.539    525.393    612.668    525.393    527.207    525.393
 31.070    623.000    604.643     18.357    525.125    602.999    525.125    526.724    525.125
 31.170    571.541    582.734    -11.192    524.858    581.282    524.858    526.280    524.858
 31.270    575.717    561.044     14.673    524.592    559.752    524.592    525.868    524.592
 31.370    576.651    545.890     30.761    524.327    544.728    524.327    525.481    524.327
 31.470    549.746    537.526     12.220    524.063    536.471    524.063    525.114    524.063
 31.570    565.230    533.547     31.683    523.800    532.582    523.800    524.762    523.800
 31.670    517.000    531.683    -14.683    523.538    530.794    523.538    524.425    523.538
 31.770    534.055    530.681      3.374    523.277    529.858    523.277    524.099    523.277
 31.870    508.408    530.040    -21.632    523.017    529.273    523.017    523.782    523.017
 31.970    533.000    529.591      3.409    522.758    528.874    522.758    523.473    522.758
 32.070    525.000    529.278     -4.278    522.500    528.605    522.500    523.172    522.500
 32.170    546.000    529.079     16.921    522.243    528.445    522.243    522.877    522.243
 32.270    563.000    528.987     34.013    521.988    528.386    521.988    522.587    521.988
 32.370    513.417    529.004    -15.587    521.733    528.434    521.733    522.302    521.733
 32.470    486.752    529.136    -42.384    521.479    528.593    521.479    522.021    521.479
 32.570    552.199    529.396     22.803    521.227    528.878    521.227    521.745    521.227
 32.670    575.000    529.813     45.187    520.976    529.316    520.976    521.472    520.976
 32.770    532.611    530.423      2.188    520.726    529.946    520.726    521.202    520.726
 32.870    534.000    531.282      2.718    520.477    530.822    520.477    520.935    520.477
 32.970    505.390    532.470    -27.080    520.229    532.026    520.229    520.671    520.229
 33.070    531.857    534.113     -2.256    519.982    533.683    519.982    520.410    519.982
 33.170    541.000    536.438      4.562    519.737    536.022    519.737    520.151    519.737
 33.270    566.427    539.975     26.453    519.492    539.570    519.492    519.895    519.492
 33.370    528.000    546.164    -18.164    519.249    545.769    519.249    519.641    519.249
 33.470    566.000    558.809      7.191    519.007    558.422    519.007    519.389    519.007
 33.570    577.000    586.159     -9.159    518.767    585.775    518.767    519.139    518.767
 33.670    654.000    641.262     12.738    518.527    640.877    518.527    518.891    518.527
 33.770    740.000    735.924      4.076    518.289    735.532    518.289    518.646    518.289
 33.870    824.359    866.339    -41.980    518.052    865.937    518.052    518.402    518.052
 33.970   1010.577    997.012     13.565    517.816    996.607    517.816    518.159    517.816
 34.070   1056.164   1060.998     -4.833    517.582   1060.608    517.582    517.919    517.582
 34.170   1011.000   1012.949     -1.949    517.349   1012.591    517.349    517.680    517.349
 34.270    882.000    888.387     -6.387    517.117    888.057    517.117    517.444    517.117
 34.370    722.130    754.662    -32.531    516.886    754.348    516.886    517.208    516.886
 34.470    661.000    652.881      8.119    516.657    652.572    516.657    516.975    516.657
 34.570    566.000    591.213    -25.213    516.429    590.904    516.429    516.743    516.429
 34.670    571.188    559.487     11.701    516.202    559.178    516.202    516.513    516.202
 34.770    535.000    544.391     -9.391    515.976    544.083    515.976    516.284    515.976
 34.870    559.000    536.849     22.151    515.752    536.543    515.752    516.057    515.752
 34.970    539.000    532.440      6.560    515.529    532.137    515.529    515.832    515.529
 35.070    521.000    529.422     -8.422    515.308    529.121    515.308    515.608    515.308
 35.170    555.000    527.150     27.850    515.088    526.851    515.088    515.386    515.088
 35.270    551.000    525.358     25.642    514.869    525.061    514.869    515.166    514.869
 35.370    528.000    523.906      4.094    514.652    523.611    514.652    514.947    514.652
 35.470    573.000    522.704     50.296    514.436    522.410    514.436    514.729    514.436
 35.570    561.538    521.691     39.847    514.221    521.399    514.221    514.513    514.221
 35.670    506.381    520.826    -14.445    514.008    520.535    514.008    514.299    514.008
 35.770    505.000    520.075    -15.075    513.796    519.785    513.796    514.086    513.796
 35.870    530.000    519.417     10.583    513.586    519.127    513.586    513.875    513.586
 35.970    522.895    518.834      4.062    513.376    518.545    513.376    513.665    513.376
 36.070    523.000    518.313      4.687    513.169    518.025    513.169    513.457    513.169
 36.170    533.000    517.845     15.155    512.963    517.557    512.963    513.250    512.963
 36.270    542.383    517.423     24.960    512.758    517.135    512.758    513.045    512.758
 36.370    536.639    517.042     19.597    512.554    516.754    512.554    512.842    512.554
 36.470    521.142    516.699      4.443    512.352    516.411    512.352    512.640    512.352
 36.570    508.000    516.393     -8.393    512.152    516.105    512.152    512.440    512.152
 36.670    494.000    516.126    -22.126    511.953    515.838    511.953    512.241    511.953
 36.770    520.000    515.904      4.096    511.755    515.615    511.755    512.043    511.755
 36.870    492.000    515.748    -23.748    511.559    515.459    511.559    511.848    511.559
 36.970    556.829    515.712     41.117    511.364    515.423    511.364    511.654    511.364
 37.070    523.000    515.920      7.080    511.171    515.630    511.171    511.461    511.171
 37.170    555.649    516.602     39.047    510.979    516.311    510.979    511.270    510.979
 37.270    477.195    518.072    -40.877    510.789    517.781    510.789    511.081    510.789
 37.370    523.000    520.581      2.419    510.600    520.289    510.600    510.893    510.600
 37.470    543.000    524.022     18.978    510.412    523.730    510.412    510.706    510.412
 37.570    522.000    527.615     -5.615    510.226    527.323    510.226    510.522    510.226
 37.670    497.000    529.862    -32.862    510.042    529.570    510.042    510.339    510.042
 37.770    524.000    529.512     -5.512    509.859    529.220    509.859    510.157    509.859
 37.870    495.900    526.885    -30.985    509.678    526.594    509.678    509.977    509.678
 37.970    561.302    523.348     37.953    509.498    523.058    509.498    509.799    509.498
 38.070    491.383    519.973    -28.590    509.319    519.680    509.319    509.622    509.319
 38.170    516.000    517.196     -1.196    509.142    516.901    509.142    509.447    509.142
 38.270    484.444    515.130    -30.687    508.967    514.831    508.967    509.273    508.967
 38.370    481.000    513.706    -32.706    508.793    513.402    508.793    509.101    508.793
 38.470    494.772    512.763    -17.992    508.621    512.456    508.621    508.931    508.621
 38.570    478.000    512.141    -34.141    508.450    511.831    508.450    508.762    508.450
 38.670    513.000    511.713      1.287    508.281    511.400    508.281    508.595    508.281
 38.770    511.000    511.394     -0.394    508.113    511.078    508.113    508.430    508.113
 38.870    473.638    511.133    -37.495    507.947    510.815    507.947    508.266    507.947
 38.970    497.424    510.906    -13.482    507.782    510.585    507.782    508.103    507.782
 39.070    491.463    510.700    -19.237    507.619    510.376    507.619    507.943    507.619
 39.170    522.923    510.509     12.414    507.457    510.183    507.457    507.784    507.457
 39.270    505.000    510.331     -5.331    507.297    510.002    507.297    507.627    507.297
 39.370    493.000    510.164    -17.164    507.139    509.832    507.139    507.471    507.139
 39.470    452.000    510.007    -58.007    506.982    509.672    506.982    507.317    506.982
 39.570    519.000    509.858      9.142    506.826    509.520    506.826    507.165    506.826
 39.670    518.874    509.717      9.156    506.672    509.376    506.672    507.014    506.672
 39.770    554.000    509.585     44.415    506.520    509.240    506.520    506.865    506.520
 39.870    539.000    509.460     29.540    506.369    509.112    506.369    506.717    506.369
 39.970    503.000    509.344     -6.344    506.220    508.992    506.220    506.572    506.220
 40.070    511.000    509.235      1.765    506.073    508.880    506.073    506.428    506.073
 40.170    487.000    509.135    -22.135    505.927    508.777    505.927    506.285    505.927
 40.270    496.000    509.045    -13.045    505.782    508.682    505.782    506.145    505.782
 40.370    511.000    508.964      2.036    505.639    508.598    505.639    506.006    505.639
 40.470    483.000    508.894    -25.894    505.498    508.524    505.498    505.869    505.498
 40.570    529.639    508.837     20.802    505.358    508.462    505.358    505.733    505.358
 40.670    513.000    508.793      4.207    505.220    508.414    505.220    505.599    505.220
 40.770    480.000    508.765    -28.765    505.083    508.382    505.083    505.467    505.083
 40.870    512.344    508.757      3.587    504.948    508.369    504.948    505.337    504.948
 40.970    514.000    508.770      5.230    504.815    508.378    504.815    505.208    504.815
 41.070    518.052    508.811      9.241    504.683    508.413    504.683    505.081    504.683
 41.170    543.474    508.884     34.589    504.552    508.482    504.552    504.956    504.552
 41.270    471.000    508.999    -37.999    504.424    508.591    504.424    504.832    504.424
 41.370    475.000    509.166    -34.166    504.297    508.753    504.297    504.711    504.297
 41.470    531.000    509.401     21.599    504.171    508.983    504.171    504.591    504.171
 41.570    474.000    509.729    -35.729    504.047    509.305    504.047    504.472    504.047
 41.670    519.000    510.195      8.805    503.925    509.765    503.925    504.356    503.925
 41.770    477.000    510.900    -33.900    503.804    510.465    503.804    504.241    503.804
 41.870    552.144    512.085     40.059    503.684    511.644    503.684    504.128    503.684
 41.970    479.458    514.302    -34.844    503.567    513.855    503.567    504.017    503.567
 42.070    504.000    518.638    -14.638    503.451    518.186    503.451    503.908    503.451
 42.170    506.000    526.813    -20.813    503.336    526.358    503.336    503.801    503.336
 42.270    580.487    540.777     39.711    503.223    540.320    503.223    503.695    503.223
 42.370    571.000    561.511      9.489    503.112    561.057    503.112    503.591    503.112
 42.470    623.678    587.282     36.396    503.002    586.834    503.002    503.490    503.002
 42.570    567.959    612.107    -44.149    502.894    611.665    502.894    503.390    502.894
 42.670    617.000    626.293     -9.293    502.787    625.852    502.787    503.292    502.787
 42.770    624.275    622.447      1.829    502.682    621.998    502.682    503.195    502.682
 42.870    597.000    602.818     -5.818    502.578    602.352    502.578    503.101    502.578
 42.970    593.000    576.632     16.368    502.476    576.143    502.476    503.009    502.476
 43.070    519.000    552.331    -33.331    502.376    551.818    502.376    502.918    502.376
 43.170    501.000    534.117    -33.117    502.277    533.583    502.277    502.830    502.277
 43.270    552.344    522.467     29.876    502.180    521.915    502.180    502.743    502.180
 43.370    551.901    515.859     36.042    502.084    515.291    502.084    502.659    502.084
 43.470    550.000    512.360     37.640    501.990    511.777    501.990    502.577    501.990
 43.570    499.000    510.495    -11.495    501.898    509.899    501.898    502.496    501.898
 43.670    496.000    509.409    -13.409    501.807    508.799    501.807    502.418    501.807
 43.770    483.000    508.692    -25.692    501.717    508.069    501.717    502.342    501.717
 43.870    501.000    508.169     -7.169    501.630    507.532    501.630    502.268    501.630
 43.970    479.213    507.766    -28.553    501.543    507.114    501.543    502.197    501.543
 44.070    495.802    507.448    -11.646    501.459    506.780    501.459    502.127    501.459
 44.170    525.858    507.193     18.665    501.375    506.509    501.375    502.060    501.375
 44.270    500.000    506.988     -6.988    501.294    506.288    501.294    501.995    501.294
 44.370    495.386    506.825    -11.438    501.214    506.106    501.214    501.933    501.214
 44.470    531.413    506.695     24.719    501.135    505.957    501.135    501.873    501.135
 44.570    486.000    506.593    -20.593    501.058    505.836    501.058    501.816    501.058
 44.670    499.000    506.517     -7.517    500.983    505.739    500.983    501.761    500.983
 44.770    510.000    506.462      3.538    500.909    505.662    500.909    501.709    500.909
 44.870    510.000    506.427      3.573    500.837    505.604    500.837    501.660    500.837
 44.970    470.484    506.411    -35.927    500.766    505.563    500.766    501.613    500.766
 45.070    484.000    506.412    -22.412    500.696    505.539    500.696    501.570    500.696
 45.170    533.410    506.430     26.980    500.629    505.529    500.629    501.530    500.629
 45.270    500.000    506.465     -6.465    500.563    505.535    500.563    501.492    500.563
 45.370    503.000    506.517     -3.517    500.498    505.556    500.498    501.459    500.498
 45.470    545.067    506.585     38.482    500.435    505.591    500.435    501.429    500.435
 45.570    499.149    506.672     -7.523    500.373    505.643    500.373    501.402    500.373
 45.670    496.212    506.778    -10.566    500.313    505.710    500.313    501.380    500.313
 45.770    546.073    506.903     39.170    500.254    505.795    500.254    501.362    500.254
 45.870    536.000    507.051     28.949    500.197    505.900    500.197    501.348    500.197
 45.970    533.764    507.223     26.541    500.142    506.025    500.142    501.339    500.142
 46.070    514.000    507.422      6.578    500.087    506.173    500.087    501.336    500.087
 46.170    516.000    507.651      8.349    500.035    506.348    500.035    501.338    500.035
 46.270    517.000    507.916      9.084    499.984    506.553    499.984    501.345    499.984
 46.370    471.845    508.222    -36.376    499.934    506.795    499.934    501.360    499.934
 46.470    490.735    508.576    -17.841    499.886    507.079    499.886    501.382    499.886
 46.570    494.768    508.990    -14.222    499.839    507.416    499.839    501.412    499.839
 46.670    509.000    509.478     -0.478    499.794    507.821    499.794    501.450    499.794
 46.770    478.539    510.069    -31.529    499.750    508.319    499.750    501.498    499.750
 46.870    523.000    510.818     12.182    499.708    508.966    499.708    501.557    499.708
 46.970    496.000    511.849    -15.849    499.667    509.884    499.667    501.629    499.667
 47.070    477.123    513.428    -36.305    499.628    511.338    499.628    501.715    499.628
 47.170    537.000    516.064     20.936    499.590    513.833    499.590    501.816    499.590
 47.270    495.170    520.565    -25.394    499.554    518.174    499.554    501.936    499.554
 47.370    492.310    527.964    -35.654    499.519    525.392    499.519    502.077    499.519
 47.470    493.000    539.059    -46.059    499.485    536.280    499.485    502.243    499.485
 47.570    572.000    553.744     18.256    499.453    550.728    499.453    502.437    499.453
 47.670    566.884    570.253     -3.368    499.423    566.965    499.423    502.666    499.423
 47.770    578.000    584.726     -6.726    499.393    581.129    499.393    502.937    499.393
 47.870    650.000    592.016     57.984    499.366    588.067    499.366    503.258    499.366
 47.970    585.208    589.076     -3.868    499.339    584.722    499.339    503.641    499.339
 48.070    540.247    577.985    -37.738    499.314    573.154    499.314    504.103    499.314
 48.170    558.000    563.773     -5.773    499.291    558.362    499.291    504.672    499.291
 48.270    522.000    550.797    -28.797    499.269    544.658    499.269    505.387    499.269
 48.370    511.000    541.421    -30.421    499.248    534.340    499.248    506.316    499.248
 48.470    523.000    536.249    -13.249    499.229    527.903    499.229    507.567    499.229
 48.570    536.000    534.854      1.146    499.211    524.755    499.211    509.304    499.211
 48.670    516.000    536.533    -20.533    499.194    523.953    499.194    511.770    499.194
 48.770    515.000    540.806    -25.806    499.179    524.697    499.179    515.284    499.179
 48.870    504.000    547.575    -43.575    499.165    526.513    499.165    520.223    499.165
 48.970    582.000    557.054     24.946    499.153    529.246    499.153    526.956    499.153
 49.070    549.000    569.634    -20.634    499.142    533.031    499.142    535.739    499.142
 49.170    573.000    585.891    -12.891    499.132    538.461    499.132    546.555    499.132
 49.270    567.435    606.989    -39.554    499.124    547.215    499.124    558.888    499.124
 49.370    671.603    635.950     35.654    499.117    563.617    499.117    571.435    499.117
 49.470    713.303    680.282     33.021    499.111    597.485    499.111    581.883    499.111
 49.570    758.000    755.834      2.166    499.106    667.534    499.106    587.361    499.106
 49.670    946.000    889.089     56.911    499.103    802.134    499.103    585.980    499.103
 49.770   1143.000   1111.185     31.815    499.102   1031.892    499.102    578.274    499.102
 49.870   1410.611   1438.346    -27.735    499.101   1370.553    499.101    566.732    499.101
 49.970   1909.000   1844.640     64.360    499.102   1789.468    499.102    554.097    499.102
 50.070   2240.222   2244.950     -4.728    499.105   2201.636    499.105    542.278    499.105
 50.170   2518.000   2509.300      8.700    499.108   2476.123    499.108    532.241    499.108
 50.270   2494.000   2525.787    -31.787    499.113   2500.698    499.113    524.281    499.113
 50.370   2298.000   2283.449     14.551    499.119   2264.449    499.119    518.292    499.119
 50.470   1898.000   1883.031     14.969    499.126   1868.401    499.126    513.960    499.126
 50.570   1405.000   1459.180    -54.180    499.135   1447.596    499.135    510.904    499.135
 50.670   1115.591   1108.799      6.792    499.145   1099.319    499.145    508.765    499.145
 50.770    870.791    869.406      1.385    499.156    861.404    499.156    507.254    499.156
 50.870    724.000    731.309     -7.309    499.168    724.383    499.168    506.159    499.168
 50.970    668.000    662.673      5.327    499.182    656.564    499.182    505.339    499.182
 51.070    642.000    630.773     11.227    499.197    625.305    499.197    504.704    499.197
 51.170    633.000    612.677     20.323    499.213    607.725    499.213    504.199    499.213
 51.270    627.000    597.265     29.735    499.231    592.735    499.231    503.789    499.231
 51.370    583.000    581.947      1.053    499.249    577.768    499.249    503.452    499.249
 51.470    604.234    567.719     36.515    499.269    563.833    499.269    503.172    499.269
 51.570    572.000    555.931     16.069    499.290    552.293    499.290    502.939    499.290
 51.670    553.658    547.208      6.450    499.312    543.783    499.312    502.746    499.312
 51.770    578.000    541.424     36.576    499.335    538.180    499.335    502.585    499.335
 51.870    550.000    538.010     11.990    499.360    534.922    499.360    502.452    499.360
 51.970    572.001    536.308     35.693    499.386    533.354    499.386    502.343    499.386
 52.070    514.000    535.809    -21.809    499.413    532.970    499.413    502.254    499.413
 52.170    559.000    536.239     22.761    499.441    533.498    499.441    502.184    499.441
 52.270    553.000    537.564     15.436    499.470    534.906    499.470    502.130    499.470
 52.370    543.000    540.019      2.981    499.500    537.430    499.500    502.090    499.500
 52.470    530.000    544.263    -14.263    499.532    541.733    499.532    502.063    499.532
 52.570    531.859    551.738    -19.878    499.564    549.255    499.564    502.047    499.564
 52.670    590.000    565.190     24.810    499.598    562.745    499.598    502.042    499.598
 52.770    571.000    589.165    -18.165    499.633    586.750    499.633    502.047    499.633
 52.870    626.000    629.935     -3.935    499.669    627.541    499.669    502.061    499.669
 52.970    703.157    694.164      8.993    499.706    691.784    499.706    502.083    499.706
 53.070    826.000    785.928     40.072    499.744    783.556    499.744    502.113    499.744
 53.170    946.000    902.580     43.420    499.783    900.210    499.783    502.150    499.783
 53.270   1046.000   1030.804     15.196    499.824   1028.434    499.824    502.195    499.824
 53.370   1164.633   1144.762     19.871    499.865   1142.391    499.865    502.247    499.865
 53.470   1224.411   1210.672     13.739    499.907   1208.297    499.907    502.306    499.907
 53.570   1155.000   1203.739    -48.739    499.951   1201.354    499.951    502.372    499.951
 53.670   1150.000   1127.092     22.908    499.995   1124.685    499.995    502.444    499.995
 53.770    985.000   1008.855    -23.855    500.041   1006.414    500.041    502.523    500.041
 53.870    859.000    881.983    -22.983    500.088    879.497    500.088    502.609    500.088
 53.970    751.000    770.002    -19.002    500.135    767.463    500.135    502.702    500.135
 54.070    681.000    684.033     -3.033    500.184    681.434    500.184    502.802    500.184
 54.170    615.000    625.179    -10.179    500.233    622.516    500.233    502.909    500.233
 54.270    591.247    588.624      2.624    500.284    585.892    500.284    503.024    500.284
 54.370    577.589    567.627      9.962    500.336    564.822    500.336    503.146    500.336
 54.470    570.000    556.199     13.801    500.388    553.313    500.388    503.276    500.388
 54.570    575.000    550.145     24.855    500.442    547.174    500.442    503.416    500.442
 54.670    559.000    546.995     12.005    500.496    543.929    500.496    503.564    500.496
 54.770    577.000    545.473     31.527    500.552    542.304    500.552    503.722    500.552
 54.870    565.000    544.986     20.014    500.608    541.705    500.608    503.890    500.608
 54.970    585.908    545.282     40.626    500.665    541.879    500.665    504.069    500.665
 55.070    535.740    546.267    -10.527    500.724    542.731    500.724    504.261    500.724
 55.170    567.000    547.926     19.074    500.783    544.245    500.783    504.465    500.783
 55.270    570.000    550.297     19.703    500.843    546.458    500.843    504.683    500.843
 55.370    537.000    553.468    -16.468    500.904    549.456    500.904    504.917    500.904
 55.470    563.000    557.605      5.395    500.966    553.404    500.966    505.168    500.966
 55.570    573.000    563.029      9.971    501.029    558.621    501.029    505.437    501.029
 55.670    603.000    570.406     32.594    501.092    565.772    501.092    505.727    501.092
 55.770    607.464    581.190     26.274    501.157    576.307    501.157    506.040    501.157
 55.870    613.000    598.451     14.549    501.222    593.292    501.222    506.378    501.222
 55.970    668.925    628.195     40.730    501.288    622.733    501.288    506.746    501.288
 56.070    724.283    680.888     43.395    501.355    675.087    501.355    507.145    501.355
 56.170    761.000    772.213    -11.213    501.423    766.034    501.423    507.581    501.423
 56.270    903.000    921.406    -18.406    501.492    914.805    501.492    508.059    501.492
 56.370   1121.000   1145.534    -24.534    501.561   1138.463    501.561    508.584    501.561
 56.470   1430.000   1449.714    -19.714    501.632   1442.125    501.632    509.164    501.632
 56.570   1720.000   1815.985    -95.985    501.703   1807.829    501.703    509.806    501.703
 56.670   2128.277   2195.324    -67.047    501.775   2186.553    501.775    510.522    501.775
 56.770   2516.000   2508.104      7.896    501.847   2498.662    501.847    511.323    501.847
 56.870   2578.000   2663.566    -85.566    501.921   2653.378    501.921    512.225    501.921
 56.970   2631.000   2607.340     23.660    501.995   2596.289    501.995    513.246    501.995
 57.070   2415.927   2361.607     54.320    502.070   2349.517    502.070    514.413    502.070
 57.170   2043.331   2006.581     36.750    502.146   1993.231    502.146    515.757    502.146
 57.270   1680.742   1630.407     50.334    502.222   1615.533    502.222    517.329    502.222
 57.370   1279.633   1297.251    -17.618    502.299   1280.536    502.299    519.199    502.299
 57.470   1028.000   1039.291    -11.291    502.377   1020.319    502.377    521.482    502.377
 57.570    835.115    861.388    -26.273    502.456    839.576    502.456    524.354    502.456
 57.670    767.000    751.427     15.573    502.535    725.920    502.535    528.093    502.535
 57.770    739.724    691.364     48.360    502.615    660.893    502.615    533.113    502.615
 57.870    692.000    665.211     26.789    502.695    627.915    502.695    540.004    502.695
 57.970    637.896    662.720    -24.824    502.776    615.953    502.776    549.545    502.776
 58.070    684.366    679.647      4.719    502.858    619.823    502.858    562.673    502.858
 58.170    699.000    716.140    -17.140    502.941    638.669    502.941    580.392    502.941
 58.270    803.300    774.369     28.931    503.024    673.775    503.024    603.587    503.024
 58.370    821.000    856.015    -35.015    503.108    726.303    503.108    632.778    503.108
 58.470    959.000    960.070     -1.070    503.192    795.416    503.192    667.795    503.192
 58.570    993.000   1081.023    -88.023    503.277    876.861    503.277    707.384    503.277
 58.670   1226.000   1208.201     17.799    503.363    962.817    503.363    748.694    503.363
 58.770   1318.000   1327.067     -9.067    503.449   1043.716    503.449    786.759    503.449
 58.870   1333.000   1422.374    -89.374    503.536   1111.269    503.536    814.616    503.536
 58.970   1415.224   1480.811    -65.587    503.623   1159.104    503.623    825.326    503.623
 59.070   1580.000   1493.152     86.848    503.711   1181.118    503.711    815.760    503.711
 59.170   1516.000   1458.403     57.597    503.799   1173.439    503.799    788.794    503.799
 59.270   1498.000   1387.132    110.868    503.888   1139.788    503.888    751.267    503.888
 59.370   1360.000   1298.344     61.656    503.978   1092.156    503.978    710.188    503.978
 59.470   1218.679   1212.079      6.600    504.068   1045.514    504.068    670.631    504.068
 59.570   1160.000   1145.496     14.504    504.158   1014.077    504.158    635.540    504.158
 59.670   1084.000   1113.340    -29.340    504.250   1011.268    504.250    606.240    504.250
 59.770   1118.000   1126.969     -8.969    504.341   1048.233    504.341    582.944    504.341
 59.870   1254.000   1189.536     64.464    504.433   1128.617    504.433    565.162    504.433
 59.970   1355.000   1291.249     63.751    504.525   1243.513    504.525    552.020    504.525
 60.070   1343.078   1408.019    -64.940    504.618   1369.839    504.618    542.518    504.618
 60.170   1563.000   1504.296     58.704    504.712   1473.002    504.712    535.713    504.712
 60.270   1517.000   1542.599    -25.599    504.806   1516.316    504.806    530.819    504.806
 60.370   1515.000   1501.181     13.819    504.900   1478.625    504.900    527.239    504.900
 60.470   1427.000   1387.186     39.814    504.994   1367.475    504.994    524.553    504.994
 60.570   1332.000   1229.760    102.240    505.089   1212.273    505.089    522.484    505.089
 60.670   1098.000   1062.623     35.377    505.185   1046.904    505.185    520.856    505.185
 60.770    907.461    912.073     -4.611    505.281    897.771    505.281    519.562    505.281
 60.870    786.000    792.848     -6.848    505.377    779.679    505.377    518.539    505.377
 60.970    678.692    708.935    -30.242    505.474    696.656    505.474    517.748    505.474
 61.070    630.365    657.193    -26.828    505.571    645.590    505.571    517.168    505.571
 61.170    605.946    631.921    -25.975    505.668    620.796    505.668    516.782    505.668
 61.270    663.600    628.631     34.969    505.765    617.804    505.765    516.573    505.765
 61.370    640.000    646.114     -6.114    505.863    635.424    505.863    516.522    505.863
 61.470    661.000    686.585    -25.585    505.962    675.901    505.962    516.597    505.962
 61.570    797.964    754.101     43.863    506.060    743.340    506.060    516.749    506.060
 61.670    859.000    851.610      7.390    506.159    840.759    506.159    516.908    506.159
 61.770    923.827    977.330    -53.503    506.258    966.472    506.258    516.982    506.258
 61.870   1127.000   1121.559      5.441    506.358   1110.872    506.358    516.882    506.358
 61.970   1243.690   1265.105    -21.415    506.457   1254.824    506.457    516.560    506.457
 62.070   1385.272   1380.587      4.684    506.557   1370.934    506.557    516.033    506.557
 62.170   1388.509   1438.990    -50.481    506.658   1430.122    506.658    515.373    506.658
 62.270   1365.000   1422.745    -57.745    506.758   1414.729    506.758    514.662    506.758
 62.370   1398.984   1336.649     62.335    506.859   1329.471    506.859    513.970    506.859
 62.470   1128.000   1204.448    -76.448    506.960   1198.039    506.960    513.340    506.960
 62.570   1076.000   1055.554     20.446    507.061   1049.818    507.061    512.794    507.061
 62.670    871.000    914.443    -43.443    507.162    909.275    507.162    512.341    507.162
 62.770    760.000    796.381    -36.381    507.264    791.682    507.264    511.977    507.264
 62.870    718.840    707.301     11.539    507.365    702.985    507.365    511.694    507.365
 62.970    655.000    645.948      9.052    507.467    641.943    507.467    511.480    507.467
 63.070    641.000    607.023     33.977    507.569    603.274    507.569    511.322    507.569
 63.170    630.000    584.124     45.876    507.671    580.588    507.671    511.207    507.671
 63.270    532.215    571.695    -39.479    507.773    568.339    507.773    511.126    507.773
 63.370    530.417    565.881    -35.464    507.876    562.681    507.876    511.071    507.876
 63.470    561.510    564.621     -3.112    507.978    561.557    507.978    511.036    507.978
 63.570    546.000    567.408    -21.408    508.081    564.464    508.081    511.016    508.081
 63.670    572.000    575.006     -3.006    508.184    572.167    508.184    511.009    508.184
 63.770    575.000    589.174    -14.174    508.286    586.428    508.286    511.012    508.286
 63.870    641.000    612.304     28.696    508.389    609.641    508.389    511.023    508.389
 63.970    673.000    646.824     26.176    508.492    644.230    508.492    511.043    508.492
 64.070    701.000    694.301      6.699    508.595    691.767    508.595    511.069    508.595
 64.170    768.000    754.365     13.635    508.698    751.882    508.698    511.101    508.698
 64.270    848.000    823.678     24.322    508.801    821.240    508.801    511.139    508.801
 64.370    894.000    895.272     -1.272    508.904    892.877    508.904    511.182    508.904
 64.470    949.000    958.750     -9.750    509.007    956.402    509.007    511.229    509.007
 64.570   1053.000   1002.458     50.542    509.110   1000.163    509.110    511.281    509.110
 64.670   1017.000   1017.965     -0.965    509.213   1015.731    509.213    511.337    509.213
 64.770   1029.000   1003.780     25.220    509.316   1001.613    509.316    511.396    509.316
 64.870    916.000    964.992    -48.992    509.420    962.893    509.420    511.459    509.420
 64.970    916.494    910.510      5.984    509.523    908.476    509.523    511.524    509.523
 65.070    887.374    850.126     37.249    509.625    848.149    509.625    511.593    509.625
 65.170    762.000    791.825    -29.825    509.728    789.898    509.728    511.665    509.728
 65.270    709.000    740.244    -31.244    509.831    738.356    509.831    511.740    509.831
 65.370    696.926    696.876      0.050    509.934    695.020    509.934    511.816    509.934
 65.470    646.000    661.435    -15.435    510.037    659.603    510.037    511.896    510.037
 65.570    666.000    633.106     32.894    510.139    631.291    510.139    511.977    510.139
 65.670    629.906    611.012     18.894    510.242    609.211    510.242    512.061    510.242
 65.770    621.554    594.248     27.306    510.344    592.458    510.344    512.147    510.344
 65.870    607.604    581.937     25.667    510.446    580.156    510.446    512.235    510.446
 65.970    539.000    573.296    -34.296    510.548    571.524    510.548    512.325    510.548
 66.070    573.000    567.650      5.350    510.650    565.885    510.650    512.417    510.650
 66.170    566.000    564.426      1.574    510.752    562.668    510.752    512.510    510.752
 66.270    537.000    563.154    -26.154    510.853    561.402    510.853    512.606    510.853
 66.370    542.200    563.485    -21.286    510.955    561.737    510.955    512.703    510.955
 66.470    569.000    565.230      3.770    511.056    563.484    511.056    512.803    511.056
 66.570    576.818    568.423      8.394    511.157    566.678    511.157    512.904    511.157
 66.670    561.000    573.439    -12.439    511.258    571.691    511.258    513.006    511.258
 66.770    539.480    581.195    -41.715    511.358    579.443    511.358    513.111    511.358
 66.870    594.000    593.497      0.503    511.459    591.738    511.459    513.217    511.459
 66.970    599.453    613.506    -14.053    511.559    611.738    511.559    513.326    511.559
 67.070    633.000    646.247    -13.247    511.659    644.466    511.659    513.436    511.659
 67.170    708.000    698.902      9.098    511.758    697.104    511.758    513.548    511.758
 67.270    819.000    780.520     38.480    511.858    778.703    511.858    513.663    511.858
 67.370    865.000    900.715    -35.715    511.957    898.876    511.957    513.779    511.957
 67.470   1084.000   1067.126     16.874    512.055   1065.266    512.055    513.897    512.055
 67.570   1281.858   1281.887     -0.029    512.154   1280.012    512.154    514.018    512.154
 67.670   1509.035   1537.899    -28.863    512.252   1536.016    512.252    514.141    512.252
 67.770   1804.000   1816.001    -12.001    512.350   1814.123    512.350    514.267    512.350
 67.870   2096.000   2084.129     11.871    512.447   2082.270    512.447    514.395    512.447
 67.970   2372.791   2299.875     72.916    512.544   2298.046    512.544    514.527    512.544
 68.070   2446.000   2419.420     26.580    512.641   2417.625    512.641    514.661    512.641
 68.170   2508.000   2414.085     93.915    512.738   2412.314    512.738    514.798    512.738
 68.270   2286.000   2285.333      0.667    512.834   2283.555    512.834    514.939    512.834
 68.370   2105.000   2063.856     41.144    512.930   2062.035    512.930    515.084    512.930
 68.470   1867.000   1793.840     73.160    513.025   1791.941    513.025    515.233    513.025
 68.570   1535.000   1517.006     17.994    513.120   1515.006    513.120    515.386    513.120
 68.670   1230.000   1264.356    -34.356    513.214   1262.242    513.214    515.544    513.214
 68.770   1007.398   1053.965    -46.568    513.308   1051.730    513.308    515.707    513.308
 68.870    854.000    892.030    -38.030    513.402    889.674    513.402    515.875    513.402
 68.970    803.000    775.810     27.190    513.495    773.335    513.495    516.050    513.495
 69.070    677.000    697.381    -20.381    513.588    694.789    513.588    516.232    513.588
 69.170    675.371    647.102     28.269    513.681    644.395    513.681    516.422    513.681
 69.270    659.000    616.050     42.950    513.772    613.224    513.772    516.620    513.772
 69.370    571.000    597.214    -26.214    513.864    594.265    513.864    516.827    513.864
 69.470    618.000    585.725     32.275    513.955    582.644    513.955    517.045    513.955
 69.570    610.000    578.520     31.480    514.045    575.298    514.045    517.274    514.045
 69.670    581.785    573.825      7.960    514.135    570.449    514.135    517.516    514.135
 69.770    637.000    570.681     66.319    514.225    567.136    514.225    517.773    514.225
 69.870    576.568    568.593      7.975    514.314    564.863    514.314    518.047    514.314
 69.970    595.000    567.316     27.684    514.402    563.381    514.402    518.339    514.402
 70.070    553.000    566.737    -13.737    514.490    562.577    514.490    518.651    514.490
 70.170    582.000    566.823     15.177    514.577    562.412    514.577    518.988    514.577
 70.270    531.000    567.606    -36.606    514.664    562.916    514.664    519.353    514.664
 70.370    617.000    569.204     47.796    514.750    564.202    514.750    519.750    514.750
 70.470    605.238    571.874     33.364    514.836    566.522    514.836    520.185    514.836
 70.570    578.000    576.122      1.878    514.921    570.375    514.921    520.662    514.921
 70.670    546.830    582.861    -36.031    515.005    576.667    515.005    521.192    515.005
 70.770    561.000    593.646    -32.646    515.089    586.939    515.089    521.784    515.089
 70.870    652.890    610.931     41.959    515.172    603.632    515.172    522.453    515.172
 70.970    597.908    638.287    -40.380    515.255    630.291    515.255    523.223    515.255
 71.070    652.000    680.416    -28.416    515.337    671.584    515.337    524.127    515.337
 71.170    740.000    742.805     -2.805    515.418    732.943    515.418    525.220    515.418
 71.270    795.000    830.825    -35.825    515.499    819.656    515.499    526.583    515.499
 71.370    937.182    948.278    -11.096    515.579    935.400    515.579    528.344    515.579
 71.470   1092.000   1095.578     -3.578    515.658   1080.406    515.658    530.686    515.658
 71.570   1271.000   1267.965      3.035    515.737   1249.657    515.737    533.873    515.737
 71.670   1367.000   1454.237    -87.237    515.815   1431.607    515.815    538.249    515.815
 71.770   1572.596   1636.434    -63.838    515.892   1607.873    515.892    544.246    515.892
 71.870   1770.000   1791.064    -21.064    515.968   1754.479    515.968    552.351    515.968
 71.970   1900.000   1893.130      6.870    516.044   1845.933    516.044    563.061    516.044
 72.070   2012.000   1923.949     88.051    516.119   1863.130    516.119    576.793    516.119
 72.170   1967.000   1879.736     87.264    516.194   1802.047    516.194    593.777    516.194
 72.270   1773.837   1773.728      0.110    516.268   1675.994    516.268    613.932    516.268
 72.370   1637.000   1629.393      7.607    516.341   1508.959    516.341    636.735    516.341
 72.470   1472.000   1471.113      0.887    516.413   1326.407    516.413    661.099    516.413
 72.570   1281.224   1318.221    -36.997    516.484   1149.439    516.484    685.259    516.484
 72.670   1161.999   1182.741    -20.742    516.555    992.558    516.555    706.735    516.555
 72.770   1084.808   1069.385     15.423    516.625    863.460    516.625    722.548    516.625
 72.870    984.000    977.194      6.806    516.694    763.955    516.694    729.930    516.694
 72.970    866.000    902.261    -36.261    516.762    691.611    516.762    727.408    516.762
 73.070    854.364    840.343     14.021    516.830    641.635    516.830    715.534    516.830
 73.170    800.000    788.224     11.776    516.896    608.531    516.896    696.585    516.896
 73.270    788.409    743.843     44.566    516.962    587.258    516.962    673.543    516.962
 73.370    645.000    705.956    -60.956    517.027    573.811    517.027    649.169    517.027
 73.470    699.958    673.831     26.127    517.092    565.343    517.092    625.578    517.092
 73.570    592.000    647.045    -55.045    517.155    560.025    517.155    604.175    517.155
 73.670    590.000    625.304    -35.304    517.218    556.780    517.218    585.744    517.218
 73.770    647.053    608.308     38.745    517.279    555.024    517.279    570.569    517.279
 73.870    633.000    595.661     37.339    517.340    554.455    517.340    558.555    517.340
 73.970    605.540    586.845     18.695    517.400    554.895    517.400    549.364    517.400
 74.070    629.000    581.227     47.773    517.459    556.179    517.459    542.525    517.459
 74.170    642.000    578.093     63.907    517.517    558.094    517.517    537.540    517.517
 74.270    607.000    576.676     30.324    517.574    560.334    517.574    533.946    517.574
 74.370    618.311    576.189     42.122    517.631    562.501    517.631    531.354    517.631
 74.470    637.000    575.866     61.134    517.686    564.130    517.686    529.462    517.686
 74.570    642.000    575.042     66.958    517.741    564.775    517.741    528.051    517.741
 74.670    584.481    573.284     11.197    517.794    564.156    517.794    526.966    517.794
 74.770    599.824    570.501     29.323    517.847    562.284    517.847    526.105    517.847
 74.870    567.088    566.931      0.157    517.899    559.465    517.899    525.402    517.899
 74.970    589.000    563.009     25.991    517.949    556.176    517.949    524.814    517.949
 75.070    596.333    559.230     37.103    517.999    552.941    517.999    524.314    517.999
 75.170    557.000    556.080      0.920    518.048    550.265    518.048    523.882    518.048
 75.270    561.702    554.023      7.679    518.096    548.625    518.096    523.507    518.096
 75.370    529.000    553.517    -24.517    518.143    548.490    518.143    523.178    518.143
 75.470    568.000    555.041     12.959    518.189    550.343    518.189    522.889    518.189
 75.570    601.000    559.098     41.902    518.234    554.694    518.234    522.633    518.234
 75.670    593.000    566.189     26.811    518.277    562.050    518.277    522.407    518.277
 75.770    611.112    576.734     34.378    518.320    572.832    518.320    522.206    518.320
 75.870    570.470    590.939    -20.468    518.362    587.250    518.362    522.027    518.362
 75.970    653.738    608.637     45.101    518.403    605.140    518.403    521.867    518.403
 76.070    618.614    629.135    -10.521    518.443    625.812    518.443    521.724    518.443
 76.170    622.618    651.112    -28.494    518.482    647.948    518.482    521.596    518.482
 76.270    666.000    672.593     -6.593    518.519    669.574    518.519    521.481    518.519
 76.370    675.000    691.046    -16.046    518.556    688.162    518.556    521.378    518.556
 76.470    740.000    703.704     36.296    518.592    700.948    518.592    521.285    518.592
 76.570    672.354    708.248    -35.894    518.626    705.613    518.626    521.201    518.626
 76.670    729.000    703.713     25.287    518.660    701.192    518.660    521.125    518.660
 76.770    657.000    690.947    -33.947    518.692    688.536    518.692    521.056    518.692
 76.870    682.000    672.199      9.801    518.724    669.891    518.724    520.993    518.724
 76.970    655.000    650.213      4.787    518.754    648.000    518.754    520.936    518.754
 77.070    568.000    627.528    -59.528    518.783    625.404    518.783    520.885    518.783
 77.170    608.000    606.129      1.871    518.811    604.087    518.811    520.837    518.811
 77.270    569.000    587.338    -18.338    518.838    585.372    518.838    520.794    518.838
 77.370    561.694    571.826    -10.132    518.864    569.928    518.864    520.755    518.864
 77.470    552.908    559.708     -6.800    518.889    557.874    518.889    520.718    518.889
 77.570    513.000    550.701    -37.701    518.912    548.926    518.912    520.685    518.912
 77.670    541.000    544.293     -3.293    518.935    542.572    518.935    520.654    518.935
 77.770    529.828    539.896    -10.068    518.956    538.225    518.956    520.625    518.956
 77.870    579.201    536.940     42.260    518.976    535.317    518.976    520.598    518.976
 77.970    541.000    534.981      6.019    518.995    533.401    518.995    520.574    518.995
 78.070    554.000    533.704     20.296    519.013    532.165    519.013    520.550    519.013
 78.170    561.070    532.850     28.220    519.030    531.350    519.030    520.529    519.030
 78.270    471.000    532.265    -61.265    519.045    530.801    519.045    520.508    519.045
 78.370    533.000    531.858      1.142    519.060    530.428    519.060    520.489    519.060
 78.470    533.000    531.579      1.421    519.073    530.180    519.073    520.471    519.073
 78.570    457.000    531.406    -74.406    519.085    530.036    519.085    520.454    519.085
 78.670    566.000    531.334     34.666    519.096    529.992    519.096    520.437    519.096
 78.770    524.000    531.370     -7.370    519.105    530.053    519.105    520.422    519.105
 78.870    543.432    531.537     11.895    519.114    530.241    519.114    520.409    519.114
 78.970    553.001    531.857     21.143    519.121    530.581    519.121    520.396    519.121
 79.070    488.000    532.361    -44.361    519.127    531.101    519.127    520.386    519.127
 79.170    530.385    533.080     -2.695    519.132    531.833    519.132    520.378    519.132
 79.270    519.000    534.044    -15.044    519.136    532.805    519.136    520.372    519.136
 79.370    545.567    535.278     10.289    519.138    534.043    519.138    520.370    519.138
 79.470    547.000    536.807     10.193    519.139    535.570    519.139    520.373    519.139
 79.570    525.000    538.658    -13.658    519.139    537.413    519.139    520.380    519.139
 79.670    503.191    540.874    -37.683    519.138    539.614    519.138    520.393    519.138
 79.770    550.000    543.530      6.470    519.135    542.248    519.135    520.411    519.135
 79.870    524.000    546.753    -22.753    519.131    545.443    519.131    520.437    519.131
 79.970    591.498    550.753     40.745    519.126    549.407    519.126    520.467    519.126
 80.070    521.000    555.844    -34.844    519.120    554.456    519.120    520.503    519.120
 80.170    548.000    562.447    -14.447    519.112    561.014    519.112    520.542    519.112
 80.270    529.651    571.044    -41.393    519.104    569.565    519.104    520.581    519.104
 80.370    542.000    582.078    -40.078    519.094    580.555    519.094    520.617    519.094
 80.470    551.000    595.835    -44.835    519.082    594.277    519.082    520.645    519.082
 80.570    610.500    612.339     -1.839    519.070    610.757    519.070    520.660    519.070
 80.670    583.000    631.265    -48.265    519.056    629.678    519.056    520.656    519.056
 80.770    615.800    651.905    -36.106    519.040    650.334    519.040    520.631    519.040
 80.870    656.208    673.190    -16.982    519.024    671.655    519.024    520.585    519.024
 80.970    611.000    693.806    -82.806    519.006    692.324    519.006    520.520    519.006
 81.070    706.119    712.384     -6.265    518.987    710.969    518.987    520.441    518.987
 81.170    741.000    727.686     13.314    518.967    726.344    518.967    520.354    518.967
 81.270    811.000    738.710     72.290    518.945    737.444    518.945    520.264    518.945
 81.370    772.000    744.773     27.227    518.922    743.580    518.922    520.173    518.922
 81.470    778.000    745.574     32.426    518.898    744.449    518.898    520.085    518.898
 81.570    693.243    741.210    -47.967    518.872    740.145    518.872    520.002    518.872
 81.670    760.000    732.133     27.867    518.845    731.122    518.845    519.924    518.845
 81.770    769.000    719.138     49.862    518.817    718.171    518.817    519.851    518.817
 81.870    741.000    703.335     37.665    518.788    702.405    518.788    519.784    518.788
 81.970    718.000    685.997     32.003    518.757    685.096    518.757    519.722    518.757
 82.070    683.000    668.287     14.713    518.725    667.409    518.725    519.664    518.725
 82.170    646.685    651.048     -4.363    518.691    650.188    518.691    519.610    518.691
 82.270    594.000    634.751    -40.751    518.656    633.903    518.656    519.558    518.656
 82.370    612.932    619.597     -6.665    518.620    618.759    518.620    519.508    518.620
 82.470    582.168    605.684    -23.516    518.583    604.851    518.583    519.460    518.583
 82.570    578.332    593.125    -14.793    518.544    592.296    518.544    519.412    518.544
 82.670    577.000    582.077     -5.077    518.504    581.249    518.504    519.364    518.504
 82.770    549.946    572.703    -22.757    518.462    571.875    518.462    519.316    518.462
 82.870    533.414    565.149    -31.735    518.419    564.319    518.419    519.267    518.419
 82.970    516.806    559.517    -42.711    518.375    558.685    518.375    519.219    518.375
 83.070    564.000    555.862      8.138    518.329    555.026    518.329    519.169    518.329
 83.170    569.000    554.168     14.832    518.282    553.329    518.282    519.119    518.282
 83.270    537.000    554.336    -17.336    518.234    553.493    518.234    519.067    518.234
 83.370    533.000    556.163    -23.163    518.185    555.316    518.185    519.015    518.185
 83.470    555.000    559.335     -4.335    518.134    558.482    518.134    518.962    518.134
 83.570    520.163    563.424    -43.261    518.081    562.567    518.081    518.908    518.081
 83.670    573.000    567.904      5.096    518.028    567.043    518.028    518.853    518.028
 83.770    540.000    572.178    -32.178    517.972    571.313    517.972    518.797    517.972
 83.870    578.061    575.620      2.441    517.916    574.753    517.916    518.740    517.916
 83.970    563.000    577.665    -14.665    517.858    576.797    517.858    518.682    517.858
 84.070    614.601    577.911     36.690    517.799    577.044    517.799    518.623    517.799
 84.170    591.000    576.239     14.761    517.739    575.374    517.739    518.563    517.739
 84.270    560.000    572.834    -12.834    517.677    571.971    517.677    518.502    517.677
 84.370    550.273    568.109    -17.836    517.613    567.250    517.613    518.440    517.613
 84.470    508.000    562.583    -54.583    517.549    561.728    517.549    518.377    517.549
 84.570    552.000    556.765     -4.765    517.483    555.913    517.483    518.312    517.483
 84.670    527.000    551.091    -24.091    517.415    550.242    517.415    518.247    517.415
 84.770    545.578    545.894     -0.315    517.347    545.046    517.347    518.180    517.347
 84.870    567.000    541.385     25.615    517.277    540.537    517.277    518.113    517.277
 84.970    541.000    537.666      3.334    517.205    536.818    517.205    518.044    517.205
 85.070    514.000    534.745    -20.745    517.132    533.896    517.132    517.975    517.132
 85.170    507.000    532.563    -25.563    517.058    531.712    517.058    517.904    517.058
 85.270    518.732    531.025    -12.293    516.982    530.171    516.982    517.832    516.982
 85.370    539.000    530.021      8.979    516.905    529.164    516.905    517.759    516.905
 85.470    511.670    529.457    -17.787    516.827    528.595    516.827    517.685    516.827
 85.570    498.986    529.260    -30.274    516.747    528.392    516.747    517.610    516.747
 85.670    569.000    529.392     39.608    516.666    528.519    516.666    517.534    516.666
 85.770    517.574    529.857    -12.283    516.584    528.978    516.584    517.457    516.584
 85.870    540.000    530.699      9.301    516.500    529.813    516.500    517.379    516.500
 85.970    571.108    532.007     39.101    516.415    531.113    516.415    517.300    516.415
 86.070    579.000    533.912     45.088    516.328    533.009    516.328    517.220    516.328
 86.170    504.736    536.580    -31.844    516.240    535.666    516.240    517.138    516.240
 86.270    564.912    540.198     24.713    516.151    539.273    516.151    517.056    516.151
 86.370    534.000    544.960    -10.960    516.061    544.021    516.061    516.973    516.061
 86.470    568.000    551.031     16.969    515.969    550.077    515.969    516.889    515.969
 86.570    553.978    558.513     -4.535    515.875    557.541    515.875    516.804    515.875
 86.670    576.000    567.404      8.596    515.780    566.414    515.780    516.718    515.780
 86.770    592.000    577.561     14.439    515.684    576.549    515.684    516.631    515.684
 86.870    607.000    588.662     18.338    515.587    587.628    515.587    516.543    515.587
 86.970    598.000    600.198     -2.198    515.488    599.143    515.488    516.455    515.488
 87.070    607.000    611.473     -4.473    515.388    610.396    515.388    516.365    515.388
 87.170    600.837    621.636    -20.799    515.286    620.539    515.286    516.275    515.286
 87.270    611.000    629.756    -18.756    515.183    628.641    515.183    516.184    515.183
 87.370    686.000    634.958     51.042    515.079    633.829    515.079    516.092    515.079
 87.470    675.805    636.665     39.141    514.974    635.526    514.974    516.000    514.974
 87.570    669.774    634.730     35.044    514.867    633.584    514.867    515.906    514.867
 87.670    663.559    629.485     34.074    514.758    628.335    514.758    515.812    514.758
 87.770    590.000    621.650    -31.650    514.649    620.497    514.649    515.718    514.649
 87.870    669.000    612.151     56.849    514.538    610.995    514.538    515.623    514.538
 87.970    563.258    601.960    -38.701    514.426    600.802    514.426    515.527    514.426
 88.070    606.802    591.993     14.810    514.312    590.830    514.312    515.431    514.312
 88.170    557.207    583.038    -25.831    514.197    581.868    514.197    515.334    514.197
 88.270    598.000    575.713     22.287    514.081    574.535    514.081    515.238    514.081
 88.370    585.035    570.441     14.594    513.963    569.252    513.963    515.140    513.963
 88.470    550.000    567.446    -17.446    513.844    566.244    513.844    515.043    513.844
 88.570    537.670    566.754    -29.085    513.724    565.538    513.724    514.945    513.724
 88.670    595.000    568.215     26.785    513.602    566.982    513.602    514.848    513.602
 88.770    589.088    571.514     17.574    513.479    570.263    513.479    514.750    513.479
 88.870    612.000    576.199     35.801    513.355    574.929    513.355    514.653    513.355
 88.970    600.000    581.704     18.296    513.230    580.414    513.230    514.556    513.230
 89.070    605.000    587.381     17.619    513.103    586.067    513.103    514.459    513.103
 89.170    549.296    592.532    -43.236    512.975    591.193    512.975    514.362    512.975
 89.270    566.000    596.474    -30.474    512.846    595.107    512.846    514.267    512.846
 89.370    564.995    598.622    -33.627    512.715    597.224    512.715    514.172    512.715
 89.470    583.000    598.604    -15.604    512.583    597.169    512.583    514.078    512.583
 89.570    528.000    596.336    -68.336    512.450    594.861    512.450    513.986    512.450
 89.670    586.847    592.039     -5.193    512.315    590.519    512.315    513.895    512.315
 89.770    556.000    586.157    -30.157    512.180    584.586    512.180    513.806    512.180
 89.870    549.000    579.237    -30.237    512.042    577.611    512.042    513.719    512.042
 89.970    572.000    571.834      0.166    511.904    570.149    511.904    513.634    511.904
 90.070    544.000    564.442    -20.442    511.765    562.692    511.765    513.552    511.765
 90.170    548.105    557.459     -9.355    511.624    555.640    511.624    513.474    511.624
 90.270    557.507    551.173      6.334    511.482    549.280    511.482    513.399    511.482
 90.370    574.000    545.759     28.241    511.339    543.787    511.339    513.330    511.339
 90.470    583.789    541.292     42.497    511.194    539.235    511.194    513.266    511.194
 90.570    500.643    537.763    -37.120    511.048    535.613    511.048    513.209    511.048
 90.670    498.835    535.105    -36.270    510.901    532.852    510.901    513.161    510.901
 90.770    567.212    533.215     33.997    510.753    530.848    510.753    513.125    510.753
 90.870    535.000    531.983      3.017    510.604    529.487    510.604    513.102    510.604
 90.970    490.513    531.305    -40.792    510.453    528.661    510.453    513.098    510.453
 91.070    528.000    531.100     -3.100    510.301    528.284    510.301    513.118    510.301
 91.170    499.000    531.319    -32.319    510.148    528.298    510.148    513.169    510.148
 91.270    491.619    531.922    -40.303    509.994    528.654    509.994    513.261    509.994
 91.370    586.000    533.010     52.990    509.839    529.441    509.839    513.405    509.839
 91.470    515.000    534.652    -19.652    509.682    530.713    509.682    513.617    509.682
 91.570    505.000    536.958    -31.958    509.524    532.562    509.524    513.915    509.524
 91.670    573.444    540.094     33.350    509.366    535.135    509.366    514.317    509.366
 91.770    496.000    544.264    -48.264    509.206    538.611    509.206    514.849    509.206
 91.870    499.000    549.699    -50.699    509.044    543.197    509.044    515.535    509.044
 91.970    535.000    556.642    -21.642    508.882    549.108    508.882    516.399    508.882
 92.070    602.874    565.323     37.551    508.719    556.554    508.719    517.467    508.719
 92.170    548.909    575.937    -27.028    508.554    565.707    508.554    518.758    508.554
 92.270    576.780    588.616    -11.836    508.388    576.684    508.388    520.288    508.388
 92.370    618.245    603.397     14.847    508.222    589.515    508.222    522.066    508.222
 92.470    632.000    620.197     11.803    508.054    604.122    508.054    524.084    508.054
 92.570    669.000    638.792     30.208    507.885    620.300    507.885    526.325    507.885
 92.670    664.726    658.799      5.927    507.715    637.702    507.715    528.752    507.715
 92.770    684.386    679.686      4.701    507.543    655.854    507.543    531.310    507.543
 92.870    693.292    700.781     -7.489    507.371    674.161    507.371    533.921    507.371
 92.970    733.000    721.315     11.685    507.198    691.957    507.198    536.481    507.198
 93.070    719.000    740.527    -21.527    507.024    708.611    507.024    538.862    507.024
 93.170    790.600    757.789     32.811    506.848    723.646    506.848    540.913    506.848
 93.270    795.000    772.720     22.280    506.672    736.842    506.672    542.472    506.672
 93.370    807.000    785.219     21.781    506.494    748.244    506.494    543.393    506.494
 93.470    773.913    795.430    -21.517    506.316    758.100    506.316    543.571    506.316
 93.570    814.000    803.659     10.341    506.136    766.750    506.136    542.973    506.136
 93.670    821.000    810.318     10.682    505.956    774.561    505.956    541.643    505.956
 93.770    865.000    815.907     49.093    505.775    781.920    505.775    539.694    505.775
 93.870    836.000    821.025     14.975    505.592    789.276    505.592    537.276    505.592
 93.970    858.000    826.354     31.646    505.409    797.149    505.409    534.551    505.409
 94.070    854.798    832.557     22.241    505.224    806.053    505.224    531.666    505.224
 94.170    875.000    840.112     34.888    505.039    816.343    505.039    528.749    505.039
 94.270    914.000    849.140     64.860    504.853    828.038    504.853    525.897    504.853
 94.370    888.757    859.296     29.462    504.666    840.720    504.666    523.187    504.666
 94.470    902.000    869.744     32.256    504.477    853.500    504.477    520.670    504.477
 94.570    894.000    879.228     14.772    504.288    865.089    504.288    518.381    504.288
 94.670    923.000    886.213     36.787    504.099    873.935    504.099    516.335    504.099
 94.770    885.494    889.108     -3.615    503.908    878.445    503.908    514.537    503.908
 94.870    943.000    886.567     56.433    503.716    877.280    503.716    512.977    503.716
 94.970    892.000    877.796     14.204    503.524    869.662    503.524    511.641    503.524
 95.070    855.087    862.772     -7.685    503.330    855.587    503.330    510.507    503.330
 95.170    872.000    842.261     29.739    503.136    835.846    503.136    509.550    503.136
 95.270    832.000    817.649     14.351    502.941    811.850    502.941    508.745    502.941
 95.370    795.000    790.689      4.311    502.745    785.375    502.745    508.068    502.745
 95.470    774.000    763.329     10.671    502.548    758.392    502.548    507.495    502.548
 95.570    765.017    737.470     27.548    502.351    732.823    502.351    507.008    502.351
 95.670    713.000    714.899     -1.899    502.153    710.472    502.153    506.589    502.153
 95.770    683.000    697.234    -14.234    501.954    692.969    501.954    506.224    501.954
 95.870    688.461    685.886      2.574    501.754    681.739    501.754    505.901    501.754
 95.970    662.000    682.054    -20.054    501.553    677.988    501.553    505.612    501.553
 96.070    646.000    686.728    -40.728    501.352    682.715    501.352    505.350    501.352
 96.170    701.000    700.694      0.306    501.150    696.709    501.150    505.110    501.150
 96.270    681.439    724.519    -43.080    500.947    720.543    500.947    504.888    500.947
 96.370    772.000    758.512     13.488    500.744    754.529    500.744    504.681    500.744
 96.470    747.000    802.655    -55.655    500.540    798.649    500.540    504.489    500.540
 96.570    810.000    856.511    -46.511    500.335    852.469    500.335    504.309    500.335
 96.670    941.207    919.125     22.082    500.130    915.034    500.130    504.141    500.130
 96.770    973.000    988.935    -15.935    499.923    984.787    499.923    503.984    499.923
 96.870   1075.000   1063.720     11.280    499.717   1059.503    499.717    503.839    499.717
 96.970   1190.919   1140.576     50.343    499.510   1136.283    499.510    503.704    499.510
 97.070   1222.000   1215.973      6.027    499.302   1211.594    499.302    503.581    499.302
 97.170   1312.000   1285.847     26.153    499.093   1281.375    499.093    503.470    499.093
 97.270   1302.000   1345.862    -43.862    498.884   1341.288    498.884    503.372    498.884
 97.370   1348.000   1391.812    -43.812    498.674   1387.128    498.674    503.286    498.674
 97.470   1351.028   1420.212    -69.184    498.464   1415.407    498.464    503.215    498.464
 97.570   1463.000   1428.927     34.073    498.254   1423.987    498.254    503.160    498.254
 97.670   1433.000   1417.600     15.400    498.042   1412.510    498.042    503.119    498.042
 97.770   1483.000   1387.678     95.322    497.831   1382.417    497.831    503.100    497.831
 97.870   1440.000   1342.027     97.973    497.619   1336.568    497.619    503.103    497.619
 97.970   1291.000   1284.371      6.629    497.406   1278.684    497.406    503.133    497.406
 98.070   1253.000   1218.775     34.225    497.193   1212.823    497.193    503.194    497.193
 98.170   1177.056   1149.276     27.780    496.979   1143.017    496.979    503.294    496.979
 98.270   1151.000   1079.643     71.357    496.765   1073.026    496.765    503.440    496.765
 98.370   1013.254   1013.236      0.019    496.551   1006.197    496.551    503.645    496.551
 98.470    989.000    952.928     36.072    496.336    945.391    496.336    503.925    496.336
 98.570    838.000    901.091    -63.091    496.121    892.957    496.121    504.299    496.121
 98.670    839.000    859.604    -20.604    495.906    850.753    495.906    504.792    495.906
 98.770    780.000    829.908    -49.908    495.690    820.186    495.690    505.438    495.690
 98.870    794.000    813.068    -19.068    495.474    802.284    495.474    506.274    495.474
 98.970    835.000    809.846     25.154    495.257    797.762    495.257    507.347    495.257
 99.070    800.000    820.747    -20.747    495.041    807.071    495.041    508.714    495.041
 99.170    879.000    846.100     32.900    494.824    830.478    494.824    510.435    494.824
 99.270    917.625    885.998     31.626    494.606    868.006    494.606    512.582    494.606
 99.370    941.000    940.270      0.730    494.389    919.411    494.389    515.227    494.389
 99.470    997.273   1008.426    -11.152    494.171    984.126    494.171    518.446    494.171
 99.570   1112.000   1089.558     22.442    493.953   1061.175    493.953    522.312    493.953
 99.670   1179.000   1182.253     -3.253    493.735   1149.077    493.735    526.890    493.735
 99.770   1330.000   1284.499     45.501    493.517   1245.770    493.517    532.232    493.517
 99.870   1422.592   1393.629     28.963    493.298   1348.557    493.298    538.368    493.298
 99.970   1480.048   1506.314    -26.266    493.080   1454.104    493.080    545.302    493.080
100.070   1587.912   1618.629    -30.717    492.861   1558.518    492.861    553.004    492.861
100.170   1695.000   1726.255    -31.255    492.642   1657.548    492.642    561.404    492.642
100.270   1708.000   1824.791   -116.791    492.424   1746.911    492.424    570.383    492.424
100.370   1829.000   1910.145    -81.145    492.205   1822.683    492.205    579.773    492.205
100.470   2034.000   1978.870     55.130    491.986   1881.640    491.986    589.348    491.986
100.570   2076.000   2028.315     47.685    491.767   1921.418    491.767    598.821    491.767
100.670   2083.885   2056.614     27.271    491.548   1940.500    491.548    607.841    491.548
100.770   2067.000   2062.653      4.347    491.329   1938.175    491.329    616.004    491.329
100.870   2081.781   2046.167     35.614    491.110   1914.619    491.110    622.868    491.110
100.970   1956.108   2007.999    -51.890    490.891   1871.111    490.891    627.998    490.891
101.070   1941.000   1950.333     -9.333    490.673   1810.212    490.673    631.015    490.673
101.170   1827.000   1876.711    -49.711    490.454   1735.712    490.454    631.671    490.454
101.270   1751.211   1791.701    -40.490    490.236   1652.251    490.236    629.897    490.236
101.370   1686.000   1700.354    -14.354    490.017   1564.755    490.017    625.816    490.017
101.470   1579.000   1607.612    -28.612    489.799   1477.876    489.799    619.721    489.799
101.570   1536.000   1517.848     18.152    489.581   1395.586    489.581    612.013    489.581
101.670   1504.068   1434.561     69.507    489.363   1320.941    489.363    603.136    489.363
101.770   1298.530   1360.228    -61.698    489.146   1255.985    489.146    593.525    489.146
101.870   1302.000   1296.262      5.738    488.929   1201.743    488.929    583.570    488.929
101.970   1227.000   1243.050    -16.050    488.711   1158.268    488.711    573.602    488.711
102.070   1193.203   1200.043     -6.840    488.495   1124.743    488.495    563.892    488.495
102.170   1134.000   1165.892    -31.892    488.278   1099.610    488.278    554.649    488.278
102.270   1079.000   1138.621    -59.621    488.062   1080.741    488.062    546.026    488.062
102.370   1116.579   1115.849      0.730    487.847   1065.652    487.847    538.125    487.847
102.470   1068.000   1095.056    -27.056    487.631   1051.762    487.631    531.006    487.631
102.570   1041.905   1073.885    -31.980    487.416   1036.694    487.416    524.688    487.416
102.670   1056.000   1050.447      5.553    487.202   1018.572    487.202    519.158    487.202
102.770   1036.000   1023.544     12.456    486.988    996.235    486.988    514.380    486.988
102.870    978.286    992.745    -14.459    486.774    969.306    486.774    510.296    486.774
102.970    966.020    958.305      7.715    486.561    938.108    486.561    506.840    486.561
103.070    940.000    920.972     19.028    486.349    903.463    486.349    503.936    486.349
103.170    879.000    881.778     -2.778    486.137    866.480    486.137    501.510    486.137
103.270    827.024    841.861    -14.837    485.925    828.368    485.925    499.489    485.925
103.370    836.294    802.335     33.959    485.714    790.310    485.714    497.804    485.714
103.470    767.000    764.207      2.793    485.504    753.372    485.504    496.397    485.504
103.570    758.000    728.320     29.680    485.294    718.454    485.294    495.213    485.294
103.670    680.253    695.326    -15.073    485.086    686.248    485.086    494.208    485.086
103.770    653.000    665.664    -12.664    484.877    657.234    484.877    493.346    484.877
103.870    713.000    639.568     73.432    484.670    631.674    484.670    492.596    484.670
103.970    620.000    617.083      2.917    484.463    609.637    484.463    491.935    484.463
104.070    602.000    598.096      3.904    484.257    591.030    484.257    491.345    484.257
104.170    590.123    582.377      7.747    484.052    575.636    484.052    490.810    484.052
104.270    588.453    569.607     18.846    483.847    563.148    483.847    490.319    483.847
104.370    602.000    559.427     42.573    483.644    553.215    483.644    489.866    483.644
104.470    527.000    551.460    -24.460    483.441    545.465    483.441    489.443    483.441
104.570    505.276    545.363    -40.087    483.239    539.562    483.239    489.045    483.239
104.670    517.000    540.812    -23.812    483.038    535.184    483.038    488.669    483.038
104.770    531.000    537.529     -6.529    482.839    532.055    482.839    488.313    482.839
104.870    574.000    535.291     38.709    482.640    529.956    482.640    487.974    482.640
104.970    497.327    533.927    -36.600    482.442    528.717    482.442    487.650    482.442
105.070    552.000    533.321     18.679    482.245    528.222    482.245    487.340    482.245
105.170    573.015    533.401     39.613    482.049    528.402    482.049    487.043    482.049
105.270    510.664    534.143    -23.479    481.854    529.233    481.854    486.758    481.854
105.370    573.143    535.560     37.583    481.660    530.729    481.660    486.484    481.660
105.470    569.679    537.699     31.979    481.468    532.937    481.468    486.221    481.468
105.570    516.148    540.634    -24.486    481.276    535.932    481.276    485.967    481.276
105.670    574.000    544.455     29.545    481.086    539.804    481.086    485.723    481.086
105.770    570.000    549.256     20.744    480.897    544.649    480.897    485.488    480.897
105.870    540.000    555.125    -15.125    480.709    550.555    480.709    485.262    480.709
105.970    580.000    562.124     17.876    480.523    557.583    480.523    485.043    480.523
106.070    544.000    570.280    -26.280    480.338    565.761    480.338    484.833    480.338
106.170    621.992    579.569     42.424    480.154    575.065    480.154    484.630    480.154
106.270    566.000    589.909    -23.909    479.972    585.415    479.972    484.435    479.972
106.370    588.293    601.157    -12.864    479.791    596.666    479.791    484.247    479.791
106.470    630.000    613.102     16.898    479.611    608.609    479.611    484.067    479.611
106.570    593.000    625.470    -32.470    479.433    620.970    479.433    483.893    479.433
106.670    631.765    637.931     -6.166    479.256    633.418    479.256    483.727    479.256
106.770    660.097    650.107      9.990    479.081    645.577    479.081    483.568    479.081
106.870    680.837    661.594     19.243    478.907    657.043    478.907    483.415    478.907
106.970    665.000    671.984     -6.984    478.735    667.406    478.735    483.269    478.735
107.070    638.682    680.902    -42.221    478.565    676.294    478.565    483.131    478.565
107.170    712.000    688.054     23.946    478.396    683.410    478.396    482.999    478.396
107.270    717.592    693.273     24.319    478.229    688.589    478.229    482.874    478.229
107.370    683.000    696.559    -13.559    478.063    691.831    478.063    482.757    478.063
107.470    612.000    698.084    -86.084    477.900    693.307    477.900    482.646    477.900
107.570    739.273    698.168     41.105    477.738    693.336    477.738    482.543    477.738
107.670    697.405    697.222      0.182    477.578    692.330    477.578    482.447    477.578
107.770    729.965    695.691     34.274    477.419    690.732    477.419    482.359    477.419
107.870    672.000    693.991    -21.991    477.263    688.960    477.263    482.279    477.263
107.970    739.603    692.470     47.133    477.108    687.361    477.108    482.207    477.108
108.070    703.000    691.378     11.622    476.956    686.184    476.956    482.143    476.956
108.170    679.049    690.851    -11.802    476.805    685.565    476.805    482.088    476.805
108.270    682.000    690.897     -8.897    476.656    685.513    476.656    482.041    476.656
108.370    739.438    691.405     48.033    476.509    685.915    476.509    482.004    476.509
108.470    697.716    692.145      5.570    476.365    686.542    476.365    481.976    476.365
108.570    724.280    692.794     31.486    476.222    687.070    476.222    481.958    476.222
108.670    688.000    692.961     -4.961    476.082    687.107    476.082    481.950    476.082
108.770    684.060    692.234     -8.174    475.943    686.241    475.943    481.953    475.943
108.870    686.000    690.234     -4.234    475.807    684.093    475.807    481.968    475.807
108.970    657.709    686.673    -28.964    475.673    680.374    475.673    481.994    475.673
109.070    722.660    681.400     41.260    475.542    674.932    475.542    482.032    475.542
109.170    680.000    674.417      5.583    475.412    667.769    475.412    482.084    475.412
109.270    620.398    665.875    -45.477    475.286    659.035    475.286    482.149    475.286
109.370    649.000    656.034     -7.034    475.161    648.990    475.161    482.229    475.161
109.470    691.000    645.223     45.777    475.039    637.960    475.039    482.325    475.039
109.570    607.795    633.800    -26.005    474.919    626.304    474.919    482.437    474.919
109.670    649.000    622.121     26.879    474.801    614.376    474.801    482.567    474.801
109.770    598.000    610.519    -12.519    474.687    602.509    474.687    482.715    474.687
109.870    621.000    599.285     21.715    474.574    590.996    474.574    482.880    474.574
109.970    604.000    588.657     15.343    474.465    580.065    474.465    483.071    474.465
110.070    559.473    578.860    -19.387    474.358    569.942    474.358    483.288    474.358
110.170    584.000    570.061     13.939    474.253    560.792    474.253    483.531    474.253
110.270    570.944    562.334      8.611    474.151    552.688    474.151    483.805    474.151
110.370    587.000    555.725     31.275    474.052    545.670    474.052    484.114    474.052
110.470    580.150    550.238     29.912    473.956    539.737    473.956    484.461    473.956
110.570    559.438    545.841     13.597    473.863    534.852    473.863    484.854    473.863
110.670    541.000    542.477     -1.477    473.772    530.951    473.772    485.299    473.772
110.770    539.000    540.070     -1.070    473.684    527.948    473.684    485.806    473.684
110.870    579.000    538.533     40.467    473.599    525.745    473.599    486.386    473.599
110.970    549.886    537.779     12.107    473.517    524.241    473.517    487.052    473.517
111.070    585.000    537.714     47.286    473.439    523.334    473.439    487.815    473.439
111.170    515.000    538.282    -23.282    473.363    522.927    473.363    488.713    473.363
111.270    540.495    539.411      1.084    473.290    522.932    473.290    489.763    473.290
111.370    564.114    541.051     23.063    473.220    523.268    473.220    490.997    473.220
111.470    529.000    543.172    -14.172    473.154    523.868    473.154    492.450    473.154
111.570    546.000    545.757      0.243    473.090    524.674    473.090    494.166    473.090
111.670    514.000    548.809    -34.809    473.030    525.637    473.030    496.194    473.030
111.770    533.465    552.350    -18.884    472.973    526.722    472.973    498.592    472.973
111.870    522.000    556.416    -34.416    472.920    527.904    472.920    501.422    472.920
111.970    564.000    561.063      2.937    472.869    529.168    472.869    504.755    472.869
112.070    572.000    566.364      5.636    472.823    530.510    472.823    508.667    472.823
112.170    601.000    572.405     28.595    472.779    531.937    472.779    513.237    472.779
112.270    584.000    579.283      4.717    472.739    533.462    472.739    518.550    472.739
112.370    577.000    587.105    -10.105    472.703    535.109    472.703    524.688    472.703
112.470    576.000    595.983    -19.983    472.670    536.910    472.670    531.731    472.670
112.570    607.000    606.030      0.970    472.641    538.904    472.641    539.754    472.641
112.670    592.000    617.359    -25.359    472.615    541.141    472.615    548.821    472.615
112.770    655.000    630.084     24.916    472.593    543.684    472.593    558.981    472.593
112.870    623.000    644.315    -21.315    472.575    546.613    472.575    570.264    472.575
112.970    620.117    660.162    -40.045    472.560    550.032    472.560    582.676    472.560
113.070    694.109    677.741     16.369    472.549    554.079    472.549    596.196    472.549
113.170    737.757    697.176     40.582    472.543    558.933    472.543    610.769    472.543
113.270    742.482    718.612     23.870    472.540    564.831    472.540    626.303    472.540
113.370    765.000    742.229     22.771    472.541    572.083    472.541    642.666    472.541
113.470    817.668    768.255     49.413    472.546    581.095    472.546    659.682    472.546
113.570    812.000    796.987     15.013    472.555    592.388    472.555    677.127    472.555
113.670    811.375    828.819    -17.443    472.568    606.626    472.568    694.729    472.568
113.770    832.000    864.258    -32.258    472.585    624.644    472.585    712.162    472.585
113.870    923.000    903.961     19.039    472.606    647.472    472.606    729.051    472.606
113.970    942.000    948.761     -6.761    472.632    676.368    472.632    744.972    472.632
114.070   1034.586    999.696     34.890    472.661    712.831    472.661    759.462    472.661
114.170   1045.000   1058.041    -13.041    472.695    758.617    472.695    772.041    472.695
114.270   1097.000   1125.340    -28.340    472.734    815.741    472.734    782.238    472.734
114.370   1167.000   1203.426    -36.426    472.776    886.459    472.776    789.627    472.776
114.470   1281.000   1294.426    -13.426    472.824    973.232    472.824    793.877    472.824
114.570   1466.000   1400.743     65.257    472.875   1078.662    472.875    794.786    472.875
114.670   1528.823   1524.992      3.831    472.931   1205.408    472.931    792.313    472.931
114.770   1655.000   1669.890    -14.890    472.992   1356.062    472.992    786.579    472.992
114.870   1939.000   1838.089    100.911    473.057   1533.008    473.057    777.855    473.057
114.970   1969.208   2031.976    -62.767    473.127   1738.250    473.127    766.523    473.127
115.070   2299.000   2253.441     45.559    473.202   1973.224    473.202    753.039    473.202
115.170   2438.003   2503.637    -65.634    473.281   2238.606    473.281    737.881    473.281
115.270   2758.537   2782.761    -24.224    473.366   2534.116    473.366    721.526    473.366
115.370   3073.798   3089.848    -16.050    473.455   2858.349    473.455    704.419    473.455
115.470   3422.000   3422.624     -0.624    473.549   3208.629    473.549    686.959    473.549
115.570   3737.000   3777.396    -40.396    473.648   3580.916    473.648    669.500    473.648
115.670   4108.671   4149.010    -40.338    473.752   3969.758    473.752    652.339    473.752
115.770   4477.000   4530.873    -53.873    473.861   4368.318    473.861    635.726    473.861
115.870   4826.000   4915.044    -89.044    473.975   4768.454    473.975    619.860    473.975
115.970   5312.976   5292.391     20.585    474.094   5160.885    474.094    604.894    474.094
116.070   5767.709   5652.833    114.877    474.218   5535.419    474.218    590.942    474.218
116.170   5874.000   5985.657   -111.657    474.348   5881.272    474.348    578.075    474.348
116.270   6362.793   6279.949     82.844    474.483   6187.490    474.483    566.332    474.483
116.370   6451.631   6525.133    -73.502    474.623   6443.492    474.623    555.720    474.623
116.470   6794.000   6711.644     82.356    474.768   6639.729    474.768    546.222    474.768
116.570   6957.000   6831.682    125.318    474.919   6768.440    474.919    537.795    474.919
116.670   6848.398   6879.945    -31.547    475.076   6824.374    475.076    530.385    475.076
116.770   6768.970   6854.194    -85.224    475.238   6805.358    475.238    523.920    475.238
116.870   6850.000   6755.501     94.499    475.406   6712.537    475.406    518.324    475.406
116.970   6631.000   6588.098     42.902    475.579   6550.222    475.579    513.514    475.579
117.070   6262.000   6358.911    -96.911    475.758   6325.415    475.758    509.407    475.758
117.170   6020.000   6076.883    -56.883    475.943   6047.139    475.943    505.922    475.943
117.270   5843.279   5752.134     91.145    476.133   5725.591    476.133    502.979    476.133
117.370   5204.000   5395.340   -191.340    476.330   5371.517    476.330    500.506    476.330
117.470   4858.000   5017.143   -159.143    476.532   4995.628    476.532    498.437    476.532
117.570   4589.000   4627.699    -38.699    476.740   4608.141    476.740    496.710    476.740
117.670   4251.000   4236.340     14.660    476.954   4218.441    476.954    495.272    476.954
117.770   4012.000   3851.317    160.683    477.175   3834.828    477.175    494.079    477.175
117.870   3641.000   3479.639    161.361    477.401   3464.351    477.401    493.089    477.401
117.970   3113.498   3126.968    -13.470    477.634   3112.709    477.634    492.269    477.634
118.070   2927.000   2797.605    129.395    477.873   2784.233    477.873    491.591    477.873
118.170   2465.712   2494.523    -28.811    478.118   2481.922    478.118    491.031    478.118
118.270   2153.048   2219.466    -66.419    478.369   2207.541    478.369    490.571    478.369
118.370   1951.062   1973.081    -22.019    478.627   1961.753    478.627    490.195    478.627
118.470   1720.000   1755.079    -35.079    478.891   1744.285    478.891    489.889    478.891
118.570   1539.583   1564.410    -24.826    479.162   1554.098    479.162    489.644    479.162
118.670   1329.000   1399.440    -70.440    479.439   1389.566    479.439    489.452    479.439
118.770   1238.000   1258.125    -20.125    479.723   1248.653    479.723    489.306    479.723
118.870   1128.519   1138.172     -9.653    480.014   1129.071    480.014    489.201    480.014
118.970    995.000   1037.176    -42.176    480.311   1028.421    480.311    489.133    480.311
119.070    959.000    952.744      6.256    480.615    944.310    480.615    489.099    480.615
119.170    932.851    882.580     50.272    480.926    874.446    480.926    489.096    480.926
119.270    847.000    824.552     22.448    481.244    816.700    481.244    489.122    481.244
119.370    758.000    776.737    -18.737    481.568    769.148    481.568    489.175    481.568
119.470    694.000    737.435    -43.435    481.900    730.092    481.900    489.254    481.900
119.570    703.819    705.180     -1.361    482.239    698.067    482.239    489.359    482.239
119.670    663.000    678.725    -15.725    482.585    671.826    482.585    489.489    482.585
119.770    640.000    657.029    -17.029    482.938    650.328    482.938    489.642    482.938
119.870    663.000    639.235     23.765    483.298    632.716    483.298    489.819    483.298
119.970    623.237    624.645     -1.408    483.666    618.292    483.666    490.020    483.666
120.070    580.000    612.698    -32.698    484.041    606.495    484.041    490.245    484.041
120.170    597.000    602.944     -5.944    484.423    596.875    484.423    490.494    484.423
120.270    635.000    595.030     39.970    484.813    589.079    484.813    490.766    484.813
120.370    586.000    588.676     -2.676    485.210    582.825    485.210    491.063    485.210
120.470    611.142    583.664     27.479    485.615    577.896    485.615    491.386    485.615
120.570    563.000    579.822    -16.822    486.028    574.120    486.028    491.734    486.028
120.670    591.000    577.018     13.982    486.448    571.363    486.448    492.108    486.448
120.770    572.000    575.149     -3.149    486.876    569.522    486.876    492.508    486.876
120.870    546.000    574.133    -28.133    487.312    568.515    487.312    492.936    487.312
120.970    599.000    573.904     25.096    487.756    568.275    487.756    493.392    487.756
121.070    530.184    574.407    -44.224    488.207    568.747    488.207    493.875    488.207
121.170    553.798    575.595    -21.796    488.667    569.884    488.667    494.387    488.667
121.270    567.000    577.421    -10.421    489.135    571.639    489.135    494.927    489.135
121.370    577.909    579.840     -1.931    489.611    573.967    489.611    495.496    489.611
121.470    543.708    582.804    -39.096    490.095    576.821    490.095    496.092    490.095
121.570    594.724    586.259      8.466    490.587    580.146    490.587    496.715    490.587
121.670    611.000    590.143     20.857    491.088    583.884    491.088    497.365    491.088
121.770    580.000    594.390    -14.390    491.597    587.968    491.597    498.039    491.597
121.870    599.000    598.921      0.079    492.115    592.322    492.115    498.736    492.115
121.970    586.000    603.651    -17.651    492.641    596.864    492.641    499.454    492.641
122.070    620.000    608.487     11.513    493.176    601.501    493.176    500.190    493.176
122.170    609.858    613.327     -3.469    493.719    606.136    493.719    500.941    493.719
122.270    585.000    618.065    -33.065    494.271    610.666    494.271    501.703    494.271
122.370    630.796    622.591      8.205    494.832    614.985    494.832    502.473    494.832
122.470    626.000    626.793     -0.793    495.401    618.987    495.401    503.246    495.401
122.570    611.087    630.565    -19.478    495.980    622.568    495.980    504.017    495.980
122.670    648.000    633.808     14.192    496.568    625.637    496.568    504.781    496.568
122.770    627.000    636.438     -9.438    497.164    628.113    497.164    505.533    497.164
122.870    587.000    638.391    -51.391    497.770    629.940    497.770    506.266    497.770
122.970    628.000    639.625    -11.625    498.384    631.080    498.384    506.976    498.384
123.070    647.000    640.127      6.873    499.008    631.523    499.008    507.658    499.008
123.170    669.000    639.905     29.095    499.642    631.285    499.642    508.308    499.642
123.270    606.679    638.995    -32.317    500.284    630.401    500.284    508.924    500.284
123.370    662.782    637.450     25.331    500.937    628.926    500.937    509.505    500.937
123.470    623.000    635.338    -12.338    501.598    626.927    501.598    510.051    501.598
123.570    569.000    632.735    -63.735    502.269    624.479    502.269    510.566    502.269
123.670    583.992    629.725    -45.733    502.950    621.662    502.950    511.051    502.950
123.770    626.000    626.391     -0.391    503.641    618.554    503.641    511.513    503.641
123.870    655.000    622.817     32.183    504.341    615.235    504.341    511.956    504.341
123.970    599.000    619.079    -20.079    505.051    611.776    505.051    512.385    505.051
124.070    647.000    615.251     31.749    505.771    608.243    505.771    512.806    505.771
124.170    623.000    611.393     11.607    506.501    604.694    506.501    513.224    506.501
124.270    624.000    607.560     16.440    507.241    601.178    507.241    513.644    507.241
124.370    674.000    603.793     70.207    507.991    597.732    507.991    514.071    507.991
124.470    598.000    600.125     -2.125    508.752    594.384    508.752    514.509    508.752
124.570    573.000    596.578    -23.578    509.522    591.153    509.522    514.960    509.522
124.670    569.950    593.165    -23.215    510.303    588.050    510.303    515.430    510.303
124.770    583.000    589.893     -6.893    511.094    585.078    511.094    515.919    511.094
124.870    587.457    586.762      0.695    511.896    582.236    511.896    516.430    511.896
124.970    570.000    583.769    -13.769    512.708    579.519    512.708    516.965    512.708
