neutron_powder_diffraction_0140
R_wp: 4.059
Temperature (K): 1074.000
Counts: 84117.00
Wavelength (Ã…): 2.52098
COMMENTS
Test file for demonstrating the .xyy file format in Reel1.0
END OF HEADER
   tth       Y_obs     Y_calc      Y_res    Background    Phase_1_Nuc    Phase_1_Mag    Phase_2_Nuc    Phase_2_Mag
  9.970    571.000    569.921      1.079    569.034    569.843    569.034    569.111    569.034
 10.070    658.000    570.126     87.874    569.167    570.048    569.167    569.245    569.167
 10.170    563.000    570.335     -7.335    569.295    570.257    569.295    569.373    569.295
 10.270    562.000    570.550     -8.550    569.415    570.471    569.415    569.494    569.415
 10.370    563.000    570.775     -7.775    569.530    570.694    569.530    569.610    569.530
 10.470    546.000    571.011    -25.011    569.638    570.928    569.638    569.719    569.638
 10.570    585.451    571.263     14.188    569.740    571.180    569.740    569.822    569.740
 10.670    592.000    571.538     20.462    569.835    571.455    569.835    569.918    569.835
 10.770    576.000    571.845      4.155    569.925    571.761    569.925    570.008    569.925
 10.870    616.835    572.194     44.642    570.008    572.110    570.008    570.091    570.008
 10.970    555.538    572.598    -17.060    570.086    572.514    570.086    570.169    570.086
 11.070    577.000    573.080      3.920    570.157    572.995    570.157    570.241    570.157
 11.170    564.000    573.672     -9.672    570.223    573.587    570.223    570.307    570.223
 11.270    580.000    574.424      5.576    570.282    574.337    570.282    570.367    570.282
 11.370    603.000    575.424     27.576    570.336    575.337    570.336    570.421    570.336
 11.470    572.101    576.875     -4.774    570.384    576.786    570.384    570.469    570.384
 11.570    643.000    579.298     63.702    570.427    579.208    570.427    570.512    570.427
 11.670    627.000    583.966     43.034    570.463    583.873    570.463    570.549    570.463
 11.770    592.396    593.378     -0.982    570.495    593.280    570.495    570.581    570.495
 11.870    648.000    610.930     37.070    570.520    610.821    570.520    570.607    570.520
 11.970    644.887    638.582      6.305    570.540    638.457    570.540    570.627    570.540
 12.070    656.000    672.300    -16.300    570.555    672.157    570.555    570.642    570.555
 12.170    677.804    698.072    -20.268    570.564    697.914    570.564    570.652    570.564
 12.270    742.000    698.904     43.096    570.569    698.746    570.569    570.657    570.569
 12.370    656.000    674.090    -18.090    570.567    673.945    570.567    570.656    570.567
 12.470    658.053    640.306     17.748    570.561    640.179    570.561    570.650    570.561
 12.570    573.000    612.141    -39.141    570.550    612.029    570.550    570.639    570.550
 12.670    620.000    594.086     25.914    570.533    593.983    570.533    570.623    570.533
 12.770    588.000    584.355      3.645    570.511    584.257    570.511    570.601    570.511
 12.870    567.000    579.534    -12.534    570.485    579.439    570.485    570.575    570.485
 12.970    554.000    577.054    -23.054    570.453    576.959    570.453    570.544    570.453
 13.070    597.000    575.589     21.411    570.417    575.495    570.417    570.508    570.417
 13.170    587.000    574.590     12.410    570.375    574.496    570.375    570.467    570.375
 13.270    568.000    573.845     -5.845    570.329    573.751    570.329    570.421    570.329
 13.370    607.791    573.263     34.528    570.278    573.169    570.278    570.371    570.278
 13.470    528.404    572.795    -44.391    570.223    572.700    570.223    570.316    570.223
 13.570    555.000    572.407    -17.407    570.163    572.313    570.163    570.256    570.163
 13.670    541.000    572.079    -31.079    570.098    571.984    570.098    570.192    570.098
 13.770    540.000    571.794    -31.794    570.029    571.699    570.029    570.123    570.029
 13.870    570.000    571.543     -1.543    569.955    571.447    569.955    570.050    569.955
 13.970    547.782    571.316    -23.534    569.877    571.220    569.877    569.972    569.877
 14.070    577.000    571.108      5.892    569.794    571.012    569.794    569.890    569.794
 14.170    553.543    570.915    -17.372    569.708    570.818    569.708    569.804    569.708
 14.270    550.923    570.733    -19.810    569.616    570.635    569.616    569.713    569.616
 14.370    549.000    570.559    -21.559    569.521    570.461    569.521    569.618    569.521
 14.470    526.000    570.391    -44.391    569.421    570.293    569.421    569.519    569.421
 14.570    583.000    570.228     12.772    569.318    570.129    569.318    569.416    569.318
 14.670    585.000    570.068     14.932    569.210    569.969    569.210    569.309    569.210
 14.770    544.000    569.911    -25.911    569.098    569.811    569.098    569.198    569.098
 14.870    573.351    569.754      3.596    568.982    569.654    568.982    569.082    568.982
 14.970    568.000    569.599     -1.599    568.863    569.498    568.863    568.963    568.863
 15.070    516.000    569.443    -53.443    568.739    569.342    568.739    568.840    568.739
 15.170    568.000    569.287     -1.287    568.611    569.185    568.611    568.713    568.611
 15.270    605.329    569.130     36.198    568.480    569.028    568.480    568.582    568.480
 15.370    610.957    568.973     41.985    568.345    568.870    568.345    568.448    568.345
 15.470    589.000    568.816     20.184    568.206    568.712    568.206    568.309    568.206
 15.570    560.031    568.656     -8.625    568.064    568.552    568.064    568.168    568.064
 15.670    560.000    568.494     -8.494    567.918    568.390    567.918    568.022    567.918
 15.770    524.969    568.331    -43.362    567.768    568.226    567.768    567.873    567.768
 15.870    529.289    568.165    -38.875    567.615    568.059    567.615    567.720    567.615
 15.970    584.739    567.996     16.743    567.458    567.889    567.458    567.564    567.458
 16.070    548.000    567.825    -19.825    567.298    567.718    567.298    567.405    567.298
 16.170    524.305    567.652    -43.347    567.134    567.544    567.134    567.242    567.134
 16.270    581.000    567.476     13.524    566.968    567.368    566.968    567.076    566.968
 16.370    522.723    567.298    -44.576    566.797    567.189    566.797    566.906    566.797
 16.470    570.000    567.118      2.882    566.624    567.008    566.624    566.733    566.624
 16.570    582.000    566.935     15.065    566.447    566.825    566.447    566.557    566.447
 16.670    575.326    566.750      8.577    566.267    566.639    566.267    566.378    566.267
 16.770    628.000    566.562     61.438    566.084    566.451    566.084    566.196    566.084
 16.870    541.000    566.372    -25.372    565.898    566.260    565.898    566.010    565.898
 16.970    553.450    566.179    -12.729    565.709    566.066    565.709    565.822    565.709
 17.070    608.000    565.984     42.016    565.517    565.870    565.517    565.631    565.517
 17.170    547.000    565.786    -18.786    565.322    565.672    565.322    565.436    565.322
 17.270    558.000    565.587     -7.587    565.124    565.472    565.124    565.239    565.124
 17.370    546.000    565.385    -19.385    564.923    565.269    564.923    565.039    564.923
 17.470    581.170    565.180     15.990    564.719    565.063    564.719    564.836    564.719
 17.570    503.000    564.974    -61.974    564.513    564.857    564.513    564.630    564.513
 17.670    584.892    564.779     20.114    564.304    564.661    564.304    564.422    564.304
 17.770    535.000    564.577    -29.577    564.092    564.459    564.092    564.210    564.092
 17.870    604.612    564.364     40.247    563.877    564.245    563.877    563.997    563.877
 17.970    517.000    564.148    -47.148    563.660    564.028    563.660    563.780    563.660
 18.070    564.795    563.929      0.866    563.440    563.808    563.440    563.561    563.440
 18.170    558.000    563.709     -5.709    563.217    563.586    563.217    563.339    563.217
 18.270    560.000    563.486     -3.486    562.992    563.363    562.992    563.115    562.992
 18.370    581.000    563.261     17.739    562.765    563.137    562.765    562.889    562.765
 18.470    593.000    563.033     29.967    562.535    562.909    562.535    562.660    562.535
 18.570    531.000    562.804    -31.804    562.303    562.678    562.303    562.428    562.303
 18.670    578.000    562.573     15.427    562.068    562.446    562.068    562.195    562.068
 18.770    529.000    562.340    -33.340    561.831    562.212    561.831    561.959    561.831
 18.870    575.966    562.104     13.861    561.592    561.976    561.592    561.720    561.592
 18.970    559.000    561.867     -2.867    561.350    561.738    561.350    561.480    561.350
 19.070    507.000    561.629    -54.629    561.107    561.498    561.107    561.237    561.107
 19.170    581.000    561.388     19.612    560.861    561.256    560.861    560.992    560.861
 19.270    564.000    561.146      2.854    560.613    561.014    560.613    560.745    560.613
 19.370    532.000    560.905    -28.905    560.363    560.772    560.363    560.496    560.363
 19.470    544.000    560.660    -16.660    560.111    560.525    560.111    560.245    560.111
 19.570    589.000    560.412     28.588    559.857    560.277    559.857    559.992    559.857
 19.670    559.683    560.163     -0.480    559.600    560.026    559.600    559.737    559.600
 19.770    557.000    559.913     -2.913    559.342    559.775    559.342    559.480    559.342
 19.870    555.484    559.663     -4.179    559.082    559.524    559.082    559.222    559.082
 19.970    541.000    559.414    -18.414    558.821    559.274    558.821    558.961    558.821
 20.070    575.000    559.160     15.840    558.557    559.018    558.557    558.699    558.557
 20.170    565.000    558.904      6.096    558.291    558.761    558.291    558.434    558.291
 20.270    607.000    558.647     48.353    558.024    558.503    558.024    558.168    558.024
 20.370    533.000    558.389    -25.389    557.755    558.243    557.755    557.901    557.755
 20.470    541.000    558.130    -17.130    557.484    557.983    557.484    557.631    557.484
 20.570    547.000    557.878    -10.878    557.212    557.729    557.212    557.360    557.212
 20.670    603.851    557.699     46.152    556.938    557.549    556.938    557.088    556.938
 20.770    572.000    557.459     14.541    556.663    557.308    556.663    556.814    556.663
 20.870    555.000    557.199     -2.199    556.385    557.046    556.385    556.538    556.385
 20.970    519.000    556.937    -37.937    556.107    556.783    556.107    556.261    556.107
 21.070    558.000    556.674      1.326    555.827    556.518    555.827    555.983    555.827
 21.170    551.000    556.410     -5.410    555.545    556.253    555.545    555.703    555.545
 21.270    518.000    556.147    -38.147    555.262    555.987    555.262    555.421    555.262
 21.370    554.664    555.883     -1.218    554.978    555.722    554.978    555.139    554.978
 21.470    582.416    555.619     26.797    554.692    555.456    554.692    554.855    554.692
 21.570    532.370    555.360    -22.990    554.405    555.196    554.405    554.569    554.405
 21.670    539.512    555.144    -15.632    554.116    554.978    554.116    554.283    554.116
 21.770    550.957    554.902     -3.945    553.827    554.734    553.827    553.995    553.827
 21.870    557.336    554.643      2.693    553.536    554.473    553.536    553.706    553.536
 21.970    551.577    554.384     -2.807    553.244    554.211    553.244    553.416    553.244
 22.070    570.382    554.126     16.256    552.951    553.952    552.951    553.125    552.951
 22.170    525.000    553.873    -28.873    552.656    553.696    552.656    552.833    552.656
 22.270    571.881    553.640     18.241    552.361    553.462    552.361    552.540    552.361
 22.370    584.000    553.418     30.582    552.064    553.237    552.064    552.246    552.064
 22.470    526.000    553.175    -27.175    551.767    552.992    551.767    551.950    551.767
 22.570    574.000    552.936     21.064    551.468    552.750    551.468    551.654    551.468
 22.670    548.508    552.702     -4.193    551.168    552.513    551.168    551.357    551.168
 22.770    556.000    552.475      3.525    550.868    552.284    550.868    551.060    550.868
 22.870    594.509    552.257     42.252    550.566    552.063    550.566    550.761    550.566
 22.970    544.000    552.051     -8.051    550.264    551.854    550.264    550.461    550.264
 23.070    579.000    551.858     27.142    549.961    551.658    549.961    550.161    549.961
 23.170    526.000    551.682    -25.682    549.657    551.479    549.657    549.860    549.657
 23.270    545.000    551.528     -6.528    549.352    551.322    549.352    549.559    549.352
 23.370    588.000    551.402     36.598    549.047    551.192    549.047    549.257    549.047
 23.470    514.000    551.315    -37.315    548.740    551.103    548.740    548.954    548.740
 23.570    530.000    551.287    -21.287    548.433    551.071    548.433    548.651    548.433
 23.670    582.015    551.325     30.690    548.125    551.106    548.125    548.347    548.125
 23.770    562.000    551.435     10.565    547.817    551.212    547.817    548.042    547.817
 23.870    538.523    551.671    -13.148    547.508    551.444    547.508    547.737    547.508
 23.970    514.229    552.113    -37.884    547.198    551.882    547.198    547.432    547.198
 24.070    542.000    552.948    -10.948    546.888    552.713    546.888    547.127    546.888
 24.170    580.115    554.640     25.475    546.578    554.402    546.578    546.821    546.578
 24.270    520.364    558.209    -37.845    546.266    557.968    546.266    546.515    546.266
 24.370    560.567    565.388     -4.822    545.955    565.148    545.955    546.208    545.955
 24.470    616.313    578.104     38.209    545.642    577.867    545.642    545.901    545.642
 24.570    560.640    596.772    -36.131    545.330    596.543    545.330    545.595    545.330
 24.670    657.000    617.596     39.404    545.017    617.376    545.017    545.288    545.017
 24.770    643.000    630.937     12.063    544.703    630.721    544.703    544.981    544.703
 24.870    567.000    627.645    -60.645    544.389    627.420    544.389    544.674    544.389
 24.970    580.000    610.183    -30.183    544.075    609.938    544.075    544.367    544.075
 25.070    560.000    588.935    -28.935    543.761    588.667    543.761    544.061    543.761
 25.170    547.000    571.586    -24.586    543.446    571.297    543.446    543.754    543.446
 25.270    574.623    560.314     14.310    543.131    560.008    543.131    543.448    543.131
 25.370    573.000    553.983     19.017    542.816    553.664    542.816    543.142    542.816
 25.470    553.000    550.622      2.378    542.500    550.290    542.500    542.837    542.500
 25.570    557.000    548.749      8.251    542.185    548.405    542.185    542.532    542.185
 25.670    568.000    547.556     20.444    541.869    547.200    541.869    542.227    541.869
 25.770    563.000    546.692     16.308    541.553    546.324    541.553    541.924    541.553
 25.870    530.000    546.028    -16.028    541.237    545.646    541.237    541.621    541.237
 25.970    585.804    545.501     40.303    540.921    545.105    540.921    541.319    540.921
 26.070    532.000    545.041    -13.041    540.605    544.629    540.605    541.018    540.605
 26.170    526.366    544.651    -18.285    540.289    544.222    540.289    540.718    540.289
 26.270    583.179    544.324     38.856    539.973    543.877    539.973    540.420    539.973
 26.370    576.061    544.052     32.009    539.656    543.586    539.656    540.123    539.656
 26.470    564.000    543.837     20.163    539.340    543.350    539.340    539.828    539.340
 26.570    496.348    543.674    -47.326    539.024    543.163    539.024    539.535    539.024
 26.670    545.000    543.576      1.424    538.708    543.040    538.708    539.244    538.708
 26.770    534.427    543.541     -9.114    538.392    542.977    538.392    538.956    538.392
 26.870    561.000    543.570     17.430    538.076    542.975    538.076    538.671    538.076
 26.970    521.000    543.686    -22.686    537.761    543.058    537.761    538.389    537.761
 27.070    535.000    543.914     -8.914    537.445    543.248    537.445    538.111    537.445
 27.170    565.000    544.289     20.711    537.130    543.580    537.130    537.837    537.130
 27.270    590.108    544.862     45.246    536.815    544.107    536.815    537.569    536.815
 27.370    579.000    545.711     33.289    536.500    544.903    536.500    537.307    536.500
 27.470    595.000    546.963     48.037    536.185    546.096    536.185    537.051    536.185
 27.570    577.021    548.996     28.024    535.871    548.061    535.871    536.804    535.871
 27.670    553.000    553.160     -0.160    535.557    552.147    535.557    536.566    535.557
 27.770    582.000    564.133     17.867    535.243    563.029    535.243    536.340    535.243
 27.870    591.951    593.956     -2.005    534.930    592.742    534.930    536.128    534.930
 27.970    755.000    661.570     93.430    534.617    660.217    534.617    535.933    534.617
 28.070    813.000    775.471     37.529    534.304    773.949    534.304    535.758    534.304
 28.170    901.000    902.975     -1.975    533.992    901.262    533.992    535.610    533.992
 28.270    949.310    965.712    -16.402    533.680    963.804    533.680    535.496    533.680
 28.370    854.852    912.601    -57.748    533.369    910.487    533.369    535.427    533.369
 28.470    773.288    797.971    -24.682    533.058    795.590    533.058    535.418    533.058
 28.570    739.000    709.263     29.737    532.748    706.514    532.748    535.489    532.748
 28.670    699.656    691.161      8.494    532.438    687.919    532.438    535.668    532.438
 28.770    687.083    737.578    -50.496    532.128    733.699    532.128    535.991    532.128
 28.870    820.000    806.995     13.005    531.820    802.305    531.820    536.501    531.820
 28.970    808.000    839.613    -31.613    531.511    833.887    531.511    537.244    531.511
 29.070    815.172    800.533     14.639    531.203    793.486    531.203    538.266    531.203
 29.170    762.916    719.910     43.005    530.896    711.223    530.896    539.598    530.896
 29.270    598.308    644.803    -46.495    530.590    634.168    530.590    541.233    530.590
 29.370    612.624    596.830     15.794    530.284    584.040    530.284    543.077    530.284
 29.470    629.000    573.669     55.331    529.979    558.765    529.979    544.882    529.979
 29.570    583.000    564.386     18.614    529.674    547.835    529.674    546.223    529.674
 29.670    584.000    560.294     23.706    529.370    543.044    529.370    546.618    529.370
 29.770    542.000    557.261    -15.261    529.067    540.506    529.067    545.820    529.067
 29.870    520.438    554.119    -33.681    528.764    538.870    528.764    544.011    528.764
 29.970    583.840    550.921     32.920    528.463    537.728    528.463    541.653    528.463
 30.070    605.000    547.985     57.015    528.162    536.952    528.162    539.192    528.162
 30.170    575.732    545.574     30.159    527.861    536.526    527.861    536.907    527.861
 30.270    543.000    543.930     -0.930    527.562    536.576    527.562    534.913    527.562
 30.370    590.000    543.548     46.452    527.263    537.575    527.263    533.232    527.263
 30.470    550.000    545.602      4.398    526.965    540.723    526.965    531.837    526.965
 30.570    550.000    552.190     -2.190    526.668    548.162    526.668    530.684    526.668
 30.670    526.344    565.493    -39.149    526.372    562.115    526.372    529.727    526.372
 30.770    536.644    585.220    -48.576    526.077    582.338    526.077    528.921    526.077
 30.870    626.324    605.486     20.838    525.782    602.988    525.782    528.229    525.782
 30.970    647.000    614.643     32.357    525.489    612.454    525.489    527.623    525.489
 31.070    550.000    605.045    -55.045    525.196    603.116    525.196    527.081    525.196
 31.170    572.000    583.776    -11.776    524.904    582.065    524.904    526.586    524.904
 31.270    525.743    562.475    -36.732    524.614    560.945    524.614    526.127    524.614
 31.370    550.000    547.287      2.713    524.324    545.906    524.324    525.697    524.324
 31.470    573.000    538.668     34.332    524.035    537.409    524.035    525.289    524.035
 31.570    535.000    534.437      0.563    523.747    533.282    523.747    524.899    523.747
 31.670    541.000    532.408      8.592    523.460    531.342    523.460    524.525    523.460
 31.770    517.839    531.312    -13.474    523.174    530.323    523.174    524.162    523.174
 31.870    516.000    530.614    -14.614    522.890    529.691    522.890    523.811    522.890
 31.970    513.000    530.127    -17.127    522.606    529.263    522.606    523.469    522.606
 32.070    514.772    529.788    -15.017    522.323    528.976    522.323    523.135    522.323
 32.170    584.000    529.573     54.427    522.041    528.806    522.041    522.807    522.041
 32.270    547.000    529.473     17.527    521.761    528.747    521.761    522.486    521.761
 32.370    577.000    529.490     47.510    521.481    528.800    521.481    522.171    521.481
 32.470    538.228    529.632      8.596    521.203    528.974    521.203    521.860    521.203
 32.570    527.000    529.917     -2.917    520.926    529.288    520.926    521.554    520.926
 32.670    499.425    530.373    -30.948    520.650    529.770    520.650    521.251    520.650
 32.770    559.000    531.041     27.959    520.375    530.462    520.375    520.953    520.375
 32.870    555.000    531.980     23.020    520.101    531.422    520.101    520.658    520.101
 32.970    497.957    533.279    -35.322    519.828    532.740    519.828    520.366    519.828
 33.070    536.101    535.076      1.025    519.557    534.554    519.557    520.077    519.557
 33.170    520.000    537.632    -17.632    519.286    537.126    519.286    519.791    519.286
 33.270    513.000    541.554    -28.554    519.017    541.062    519.017    519.507    519.017
 33.370    513.000    548.453    -35.453    518.749    547.973    518.749    519.226    518.749
 33.470    564.000    562.355      1.645    518.483    561.885    518.483    518.947    518.483
 33.570    627.000    591.484     35.516    518.217    591.020    518.217    518.671    518.217
 33.670    667.000    648.082     18.918    517.953    647.619    517.953    518.397    517.953
 33.770    792.000    742.320     49.680    517.690    741.852    517.690    518.124    517.690
 33.870    846.567    869.278    -22.711    517.429    868.804    517.429    517.854    517.429
 33.970   1015.000    994.766     20.234    517.169    994.292    517.169    517.586    517.169
 34.070   1091.137   1055.780     35.357    516.910   1055.323    516.910    517.320    516.910
 34.170   1017.992   1009.952      8.040    516.652   1009.526    516.652    517.056    516.652
 34.270    884.000    890.438     -6.438    516.395    890.040    516.395    516.794    516.395
 34.370    758.000    760.529     -2.529    516.140    760.146    516.140    516.533    516.140
 34.470    678.049    659.574     18.475    515.887    659.196    515.887    516.274    515.887
 34.570    540.000    596.571    -56.571    515.634    596.195    515.634    516.017    515.634
 34.670    529.000    562.999    -33.999    515.383    562.623    515.383    515.762    515.383
 34.770    529.000    546.500    -17.500    515.134    546.126    515.134    515.509    515.134
 34.870    569.252    538.120     31.132    514.885    537.748    514.885    515.257    514.885
 34.970    482.000    533.232    -51.232    514.639    532.863    514.639    515.007    514.639
 35.070    503.000    529.909    -26.909    514.393    529.543    514.393    514.759    514.393
 35.170    488.893    527.419    -38.526    514.149    527.055    514.149    514.512    514.149
 35.270    529.000    525.456      3.544    513.906    525.094    513.906    514.267    513.906
 35.370    528.000    523.864      4.136    513.665    523.505    513.665    514.024    513.665
 35.470    460.000    522.545    -62.545    513.425    522.188    513.425    513.782    513.425
 35.570    502.000    521.434    -19.434    513.187    521.079    513.187    513.542    513.187
 35.670    495.174    520.483    -25.310    512.950    520.129    512.950    513.304    512.950
 35.770    555.000    519.659     35.341    512.714    519.306    512.714    513.067    512.714
 35.870    559.565    518.936     40.629    512.480    518.583    512.480    512.832    512.480
 35.970    558.604    518.295     40.309    512.248    517.943    512.248    512.599    512.248
 36.070    496.000    517.722    -21.722    512.017    517.372    512.017    512.367    512.017
 36.170    499.731    517.206    -17.475    511.787    516.856    511.787    512.137    511.787
 36.270    510.000    516.740     -6.740    511.559    516.390    511.559    511.909    511.559
 36.370    513.000    516.322     -3.322    511.333    515.972    511.333    511.682    511.333
 36.470    518.329    515.947      2.382    511.108    515.597    511.108    511.457    511.108
 36.570    528.000    515.614     12.386    510.884    515.264    510.884    511.234    510.884
 36.670    510.000    515.326     -5.326    510.662    514.976    510.662    511.012    510.662
 36.770    489.000    515.093    -26.093    510.442    514.742    510.442    510.792    510.442
 36.870    523.853    514.944      8.909    510.223    514.593    510.223    510.574    510.223
 36.970    508.538    514.943     -6.406    510.005    514.591    510.005    510.357    510.005
 37.070    537.000    515.222     21.778    509.789    514.869    509.789    510.142    509.789
 37.170    510.000    515.985     -5.985    509.575    515.632    509.575    509.929    509.575
 37.270    492.000    517.477    -25.477    509.362    517.122    509.362    509.717    509.362
 37.370    503.000    519.842    -16.842    509.151    519.487    509.151    509.507    509.151
 37.470    488.000    522.923    -34.923    508.942    522.567    508.942    509.299    508.942
 37.570    514.000    526.030    -12.030    508.734    525.674    508.734    509.093    508.734
 37.670    535.880    527.935      7.945    508.527    527.578    508.527    508.888    508.527
 37.770    542.149    527.635     14.514    508.322    527.279    508.322    508.685    508.322
 37.870    514.000    525.371    -11.371    508.119    525.015    508.119    508.483    508.119
 37.970    565.218    522.225     42.993    507.918    521.869    507.918    508.283    507.918
 38.070    491.000    519.075    -28.075    507.718    518.718    507.718    508.085    507.718
 38.170    483.024    516.339    -33.315    507.519    515.978    507.519    507.889    507.519
 38.270    554.716    514.196     40.520    507.322    513.831    507.322    507.695    507.322
 38.370    474.482    512.659    -38.177    507.127    512.289    507.127    507.502    507.127
 38.470    499.000    511.614    -12.614    506.934    511.240    506.934    507.311    506.934
 38.570    543.857    510.911     32.946    506.742    510.533    506.742    507.121    506.742
 38.670    502.706    510.423     -7.717    506.552    510.042    506.552    506.934    506.552
 38.770    518.168    510.057      8.111    506.363    509.672    506.363    506.748    506.363
 38.870    507.000    509.758     -2.758    506.176    509.371    506.176    506.564    506.176
 38.970    526.000    509.499     16.501    505.991    509.109    505.991    506.382    505.991
 39.070    535.070    509.264     25.806    505.807    508.871    505.807    506.201    505.807
 39.170    519.000    509.048      9.952    505.625    508.651    505.625    506.022    505.625
 39.270    508.000    508.846     -0.846    505.445    508.446    505.445    505.845    505.445
 39.370    523.438    508.656     14.782    505.266    508.253    505.266    505.670    505.266
 39.470    525.088    508.478     16.611    505.089    508.071    505.089    505.497    505.089
 39.570    465.013    508.309    -43.297    504.914    507.898    504.914    505.325    504.914
 39.670    510.000    508.150      1.850    504.740    507.735    504.740    505.155    504.740
 39.770    491.000    508.000    -17.000    504.568    507.581    504.568    504.987    504.568
 39.870    501.000    507.859     -6.859    504.398    507.436    504.398    504.821    504.398
 39.970    528.000    507.726     20.274    504.230    507.299    504.230    504.657    504.230
 40.070    484.832    507.603    -22.772    504.063    507.172    504.063    504.494    504.063
 40.170    529.760    507.490     22.270    503.898    507.054    503.898    504.334    503.898
 40.270    515.414    507.387      8.027    503.734    506.947    503.734    504.175    503.734
 40.370    496.000    507.296    -11.296    503.572    506.850    503.572    504.018    503.572
 40.470    553.204    507.216     45.988    503.412    506.766    503.412    503.863    503.412
 40.570    505.000    507.151     -2.151    503.254    506.696    503.254    503.709    503.254
 40.670    501.840    507.101     -5.261    503.097    506.641    503.097    503.558    503.097
 40.770    524.000    507.069     16.931    502.942    506.604    502.942    503.408    502.942
 40.870    520.740    507.059     13.681    502.789    506.588    502.789    503.261    502.789
 40.970    493.000    507.074    -14.074    502.637    506.597    502.637    503.115    502.637
 41.070    488.000    507.119    -19.119    502.487    506.636    502.487    502.971    502.487
 41.170    479.000    507.201    -28.201    502.339    506.712    502.339    502.829    502.339
 41.270    466.000    507.329    -41.329    502.193    506.834    502.193    502.689    502.193
 41.370    473.380    507.517    -34.137    502.048    507.015    502.048    502.551    502.048
 41.470    475.925    507.781    -31.856    501.905    507.273    501.905    502.415    501.905
 41.570    505.000    508.152     -3.152    501.764    507.637    501.764    502.281    501.764
 41.670    507.000    508.685     -1.685    501.624    508.163    501.624    502.149    501.624
 41.770    482.000    509.501    -27.501    501.487    508.972    501.487    502.018    501.487
 41.870    545.426    510.881     34.546    501.350    510.344    501.350    501.890    501.350
 41.970    526.000    513.418     12.582    501.216    512.875    501.216    501.764    501.216
 42.070    557.112    518.203     38.909    501.083    517.653    501.083    501.639    501.083
 42.170    523.000    526.827     -3.827    500.952    526.273    500.952    501.517    500.952
 42.270    530.000    540.945    -10.945    500.823    540.388    500.823    501.397    500.823
 42.370    603.544    561.196     42.348    500.696    560.641    500.696    501.279    500.696
 42.470    544.000    585.747    -41.747    500.570    585.195    500.570    501.162    500.570
 42.570    639.000    609.017     29.983    500.446    608.469    500.446    501.048    500.446
 42.670    661.670    622.190     39.480    500.324    621.641    500.324    500.936    500.324
 42.770    614.000    618.614     -4.614    500.203    618.055    500.203    500.827    500.203
 42.870    557.000    600.303    -43.303    500.084    599.725    500.084    500.719    500.084
 42.970    608.899    575.591     33.307    499.967    574.989    499.967    500.613    499.967
 43.070    558.000    552.208      5.792    499.852    551.581    499.852    500.510    499.852
 43.170    512.000    534.174    -22.174    499.738    533.522    499.738    500.409    499.738
 43.270    514.000    522.195     -8.195    499.626    521.523    499.626    500.310    499.626
 43.370    491.000    515.096    -24.096    499.516    514.406    499.516    500.213    499.516
 43.470    477.000    511.174    -34.174    499.407    510.467    499.407    500.119    499.407
 43.570    462.000    509.021    -47.021    499.300    508.297    499.300    500.027    499.300
 43.670    527.000    507.756     19.244    499.195    507.016    499.195    499.937    499.195
 43.770    493.112    506.928    -13.816    499.092    506.171    499.092    499.850    499.092
 43.870    472.000    506.329    -34.329    498.990    505.555    498.990    499.765    498.990
 43.970    498.000    505.869     -7.869    498.890    505.077    498.890    499.683    498.890
 44.070    515.000    505.504      9.496    498.792    504.694    498.792    499.604    498.792
 44.170    492.000    505.212    -13.212    498.695    504.382    498.695    499.526    498.695
 44.270    527.000    504.977     22.023    498.600    504.126    498.600    499.452    498.600
 44.370    491.000    504.788    -13.788    498.507    503.915    498.507    499.380    498.507
 44.470    525.177    504.636     20.541    498.416    503.741    498.416    499.311    498.416
 44.570    523.000    504.516     18.484    498.326    503.598    498.326    499.245    498.326
 44.670    494.000    504.425    -10.425    498.238    503.481    498.238    499.182    498.238
 44.770    528.099    504.358     23.741    498.152    503.388    498.152    499.122    498.152
 44.870    511.000    504.314      6.686    498.067    503.316    498.067    499.066    498.067
 44.970    521.557    504.290     17.267    497.984    503.263    497.984    499.012    497.984
 45.070    537.000    504.286     32.714    497.903    503.227    497.903    498.962    497.903
 45.170    468.000    504.301    -36.301    497.824    503.209    497.824    498.916    497.824
 45.270    508.000    504.335      3.665    497.746    503.208    497.746    498.873    497.746
 45.370    511.000    504.388      6.612    497.670    503.223    497.670    498.834    497.670
 45.470    520.982    504.460     16.522    497.595    503.255    497.595    498.800    497.595
 45.570    505.871    504.552      1.319    497.522    503.305    497.522    498.769    497.522
 45.670    468.000    504.665    -36.665    497.451    503.373    497.451    498.744    497.451
 45.770    541.000    504.801     36.199    497.382    503.460    497.382    498.723    497.382
 45.870    548.000    504.961     43.039    497.314    503.568    497.314    498.707    497.314
 45.970    545.670    505.149     40.521    497.248    503.700    497.248    498.697    497.248
 46.070    516.000    505.367     10.633    497.184    503.857    497.184    498.693    497.184
 46.170    500.000    505.620     -5.620    497.121    504.044    497.121    498.696    497.121
 46.270    539.000    505.912     33.088    497.060    504.266    497.060    498.705    497.060
 46.370    519.000    506.250     12.750    497.000    504.527    497.000    498.722    497.000
 46.470    496.000    506.643    -10.643    496.942    504.837    496.942    498.748    496.942
 46.570    523.000    507.104     15.896    496.886    505.206    496.886    498.783    496.886
 46.670    531.000    507.650     23.350    496.832    505.653    496.832    498.828    496.832
 46.770    546.000    508.318     37.682    496.779    506.210    496.779    498.884    496.779
 46.870    553.194    509.175     44.019    496.728    506.947    496.728    498.953    496.728
 46.970    492.000    510.370    -18.370    496.678    508.009    496.678    499.036    496.678
 47.070    504.000    512.196     -8.196    496.630    509.686    496.630    499.136    496.630
 47.170    498.799    515.168    -16.369    496.584    512.493    496.584    499.253    496.584
 47.270    533.000    520.049     12.951    496.539    517.187    496.539    499.392    496.539
 47.370    497.297    527.704    -30.407    496.496    524.630    496.496    499.555    496.496
 47.470    565.000    538.717     26.283    496.454    535.403    496.454    499.746    496.454
 47.570    543.000    552.850     -9.850    496.414    549.262    496.414    499.970    496.414
 47.670    552.000    568.398    -16.398    496.376    564.497    496.376    500.234    496.376
 47.770    555.558    581.870    -26.312    496.339    577.611    496.339    500.547    496.339
 47.870    607.000    588.698     18.302    496.304    584.028    496.304    500.919    496.304
 47.970    564.000    586.211    -22.211    496.271    581.063    496.271    501.368    496.271
 48.070    596.136    576.243     19.893    496.239    570.524    496.239    501.916    496.239
 48.170    594.000    563.264     30.736    496.208    556.845    496.208    502.596    496.208
 48.270    569.000    551.199     17.801    496.179    543.907    496.179    503.451    496.179
 48.370    557.899    542.272     15.627    496.152    533.869    496.152    504.542    496.152
 48.470    514.804    537.171    -22.368    496.127    527.341    496.127    505.947    496.127
 48.570    557.000    535.613     21.387    496.102    523.944    496.102    507.764    496.102
 48.670    533.584    536.938     -3.354    496.080    522.906    496.080    510.106    496.080
 48.770    561.000    540.547     20.453    496.059    523.508    496.059    513.092    496.059
 48.870    525.000    546.088    -21.088    496.039    525.286    496.039    516.836    496.039
 48.970    584.000    553.468     30.532    496.021    528.067    496.021    521.417    496.021
 49.070    544.000    562.836    -18.836    496.005    531.993    496.005    526.842    496.005
 49.170    541.000    574.713    -33.713    495.990    537.708    495.990    532.988    495.990
 49.270    573.000    590.577    -17.577    495.977    547.039    495.977    539.504    495.977
 49.370    607.000    614.358     -7.358    495.965    564.591    495.965    545.717    495.965
 49.470    615.321    655.202    -39.881    495.954    600.519    495.954    550.611    495.954
 49.570    733.000    730.804      2.196    495.945    673.616    495.945    553.087    495.945
 49.670    920.000    868.131     51.869    495.938    811.515    495.938    552.478    495.938
 49.770   1157.000   1096.075     60.925    495.932   1042.926    495.932    548.964    495.932
 49.870   1348.097   1426.829    -78.732    495.928   1379.157    495.928    543.449    495.928
 49.970   1768.441   1831.737    -63.296    495.925   1790.462    495.925    537.042    495.925
 50.070   2138.211   2226.807    -88.595    495.923   2191.985    495.923    530.630    495.923
 50.170   2411.000   2487.030    -76.030    495.923   2458.183    495.923    524.752    495.923
 50.270   2504.552   2505.880     -1.328    495.924   2482.246    495.924    519.660    495.924
 50.370   2158.000   2273.129   -115.129    495.927   2253.827    495.927    515.421    495.927
 50.470   1902.000   1884.836     17.164    495.932   1868.993    495.932    511.992    495.932
 50.570   1422.636   1470.034    -47.398    495.937   1456.886    495.937    509.280    495.937
 50.670   1082.756   1122.893    -40.137    495.945   1111.819    495.945    507.167    495.945
 50.770    826.000    881.624    -55.624    495.953    872.145    495.953    505.534    495.953
 50.870    778.583    739.055     39.528    495.963    730.812    495.963    504.274    495.963
 50.970    695.000    665.815     29.185    495.975    658.542    495.975    503.296    495.975
 51.070    702.000    630.694     71.306    495.987    624.191    495.987    502.530    495.987
 51.170    634.000    611.290     22.710    496.002    605.405    496.002    501.921    496.002
 51.270    608.000    596.160     11.840    496.017    590.775    496.017    501.431    496.017
 51.370    563.000    581.902    -18.902    496.034    576.929    496.034    501.031    496.034
 51.470    570.000    568.758      1.242    496.052    564.128    496.052    500.700    496.052
 51.570    593.540    557.664     35.876    496.072    553.324    496.072    500.426    496.072
 51.670    560.000    549.170     10.830    496.093    545.075    496.093    500.197    496.093
 51.770    564.343    543.288     21.055    496.116    539.404    496.116    500.006    496.116
 51.870    514.080    539.660    -25.580    496.139    535.957    496.139    499.847    496.139
 51.970    527.000    537.795    -10.795    496.164    534.247    496.164    499.716    496.164
 52.070    526.351    537.269    -10.918    496.191    533.855    496.191    499.608    496.191
 52.170    547.459    537.842      9.617    496.218    534.542    496.218    499.521    496.218
 52.270    552.000    539.512     12.488    496.247    536.309    496.247    499.453    496.247
 52.370    496.241    542.587    -46.346    496.278    539.466    496.278    499.401    496.278
 52.470    539.000    547.873     -8.873    496.309    544.820    496.309    499.364    496.309
 52.570    569.000    557.001     11.999    496.342    554.005    496.342    499.340    496.342
 52.670    547.000    572.844    -25.844    496.376    569.892    496.376    499.329    496.376
 52.770    550.597    599.769    -49.171    496.412    596.852    496.412    499.329    496.412
 52.870    689.913    643.305     46.607    496.449    640.413    496.449    499.340    496.449
 52.970    709.295    708.750      0.545    496.487    705.875    496.487    499.360    496.487
 53.070    798.000    798.604     -0.604    496.526    795.738    496.526    499.390    496.526
 53.170    946.000    909.330     36.670    496.566    906.469    496.566    499.429    496.566
 53.270   1065.000   1028.337     36.663    496.608   1025.475    496.608    499.477    496.608
 53.370   1136.000   1132.522      3.478    496.651   1129.657    496.651    499.533    496.651
 53.470   1198.228   1192.277      5.951    496.695   1189.404    496.695    499.597    496.695
 53.570   1169.000   1186.094    -17.094    496.740   1183.205    496.740    499.669    496.740
 53.670   1060.812   1116.666    -55.854    496.787   1113.749    496.787    499.750    496.787
 53.770    982.000   1008.436    -26.436    496.834   1005.477    496.834    499.838    496.834
 53.870    869.000    890.369    -21.369    496.883    887.356    496.883    499.934    496.883
 53.970    755.000    783.626    -28.626    496.933    780.550    496.933    500.038    496.933
 54.070    635.000    698.956    -63.956    496.984    695.811    496.984    500.151    496.984
 54.170    619.000    638.560    -19.560    497.037    635.339    497.037    500.273    497.037
 54.270    621.328    599.206     22.122    497.090    595.903    497.090    500.403    497.090
 54.370    589.000    575.413     13.587    497.145    572.021    497.145    500.543    497.145
 54.470    546.000    561.810    -15.810    497.201    558.323    497.201    500.692    497.201
 54.570    588.515    554.308     34.208    497.257    550.717    497.257    500.851    497.257
 54.670    546.000    550.280     -4.280    497.315    546.577    497.315    501.022    497.315
 54.770    535.411    548.258    -12.846    497.374    544.431    497.374    501.203    497.374
 54.870    563.000    547.501     15.499    497.435    543.540    497.435    501.397    497.435
 54.970    585.837    547.671     38.166    497.496    543.564    497.496    501.604    497.496
 55.070    559.986    548.632     11.354    497.558    544.366    497.558    501.826    497.558
 55.170    560.000    550.352      9.648    497.622    545.913    497.622    502.062    497.622
 55.270    568.000    552.867     15.133    497.686    548.239    497.686    502.315    497.686
 55.370    561.000    556.271      4.729    497.751    551.436    497.751    502.587    497.751
 55.470    568.678    560.752      7.926    497.818    555.692    497.818    502.878    497.818
 55.570    542.386    566.679    -24.293    497.885    561.374    497.885    503.191    497.885
 55.670    592.000    574.824     17.176    497.954    569.250    497.954    503.529    497.954
 55.770    593.000    586.828      6.172    498.023    580.958    498.023    503.893    498.023
 55.870    590.000    606.047    -16.047    498.094    599.852    498.094    504.287    498.094
 55.970    675.808    638.808     36.999    498.165    632.254    498.165    504.715    498.165
 56.070    674.000    695.724    -21.724    498.238    688.771    498.238    505.180    498.238
 56.170    803.865    792.103     11.763    498.311    784.707    498.311    505.688    498.311
 56.270    922.966    945.972    -23.006    498.386    938.084    498.386    506.243    498.386
 56.370   1216.000   1172.432     43.568    498.461   1163.999    498.461    506.853    498.461
 56.470   1489.041   1474.623     14.419    498.537   1465.589    498.537    507.526    498.537
 56.570   1867.000   1833.833     33.167    498.615   1824.141    498.615    508.272    498.615
 56.670   2169.000   2202.519    -33.519    498.693   2192.109    498.693    509.101    498.693
 56.770   2447.000   2504.795    -57.795    498.772   2493.595    498.772    510.030    498.772
 56.870   2595.323   2654.698    -59.374    498.852   2642.612    498.852    511.077    498.852
 56.970   2547.000   2600.890    -53.890    498.933   2587.774    498.933    512.267    498.933
 57.070   2340.000   2364.303    -24.303    499.014   2349.948    499.014    513.636    499.014
 57.170   2057.015   2020.822     36.193    499.097   2004.959    499.097    515.232    499.097
 57.270   1735.901   1654.175     81.726    499.180   1636.477    499.180    517.120    499.180
 57.370   1296.000   1325.965    -29.965    499.265   1306.029    499.265    519.393    499.265
 57.470   1048.000   1068.182    -20.182    499.350   1045.493    499.350    522.178    499.350
 57.570    870.000    887.247    -17.247    499.436    861.132    499.436    525.642    499.436
 57.670    770.618    773.096     -2.479    499.522    742.675    499.522    529.999    499.522
 57.770    759.000    709.166     49.834    499.610    673.292    499.610    535.514    499.610
 57.870    720.000    679.963     40.037    499.698    637.186    499.698    542.488    499.698
 57.970    696.130    674.873     21.257    499.787    623.408    499.787    551.252    499.787
 58.070    671.000    688.755    -17.755    499.877    626.494    499.877    562.128    499.877
 58.170    670.856    720.638    -49.781    499.968    645.194    499.968    575.391    499.968
 58.270    716.000    771.599    -55.599    500.059    680.421    500.059    591.205    500.059
 58.370    799.000    842.504    -43.504    500.152    733.068    500.152    609.545    500.152
 58.470    929.136    931.977     -2.841    500.245    802.105    500.245    630.066    500.245
 58.570   1066.000   1034.898     31.102    500.338    883.253    500.338    651.930    500.338
 58.670   1077.000   1141.952    -64.952    500.433    968.755    500.433    673.580    500.433
 58.770   1225.000   1241.234    -16.234    500.528   1049.115    500.528    692.609    500.528
 58.870   1290.000   1321.423    -31.423    500.623   1116.015    500.623    706.010    500.623
 58.970   1378.000   1373.366      4.634    500.720   1163.003    500.720    711.080    500.720
 59.070   1436.000   1389.903     46.097    500.817   1184.064    500.817    706.672    500.817
 59.170   1418.000   1368.486     49.514    500.915   1175.593    500.915    693.837    500.915
 59.270   1373.000   1315.781     57.219    501.013   1141.597    501.013    675.229    501.013
 59.370   1279.505   1246.939     32.566    501.112   1094.209    501.112    653.862    501.112
 59.470   1113.589   1179.563    -65.974    501.212   1048.590    501.212    632.179    501.212
 59.570   1138.117   1129.553      8.564    501.312   1019.046    501.312    611.779    501.312
 59.670   1151.000   1110.706     40.294    501.413   1018.504    501.413    593.532    501.413
 59.770   1112.759   1133.340    -20.581    501.514   1056.921    501.514    577.801    501.514
 59.870   1223.522   1199.913     23.608    501.617   1136.717    501.617    564.627    501.617
 59.970   1307.832   1300.860      6.972    501.719   1248.491    501.719    553.854    501.719
 60.070   1457.456   1413.466     43.991    501.822   1369.808    501.822    545.211    501.822
 60.170   1578.239   1504.539     73.700    501.926   1467.808    501.926    538.378    501.926
 60.270   1551.061   1539.260     11.802    502.030   1508.006    502.030    533.029    502.030
 60.370   1505.055   1497.600      7.455    502.135   1470.672    502.135    528.858    502.135
 60.470   1359.000   1386.514    -27.514    502.241   1363.008    502.241    525.604    502.241
 60.570   1239.942   1233.533      6.409    502.347   1212.741    502.347    523.051    502.347
 60.670   1090.000   1070.535     19.465    502.453   1051.907    502.453    521.035    502.453
 60.770    949.000    922.595     26.405    502.560    905.706    502.560    519.429    502.560
 60.870    783.000    804.150    -21.150    502.667    788.665    502.667    518.145    502.667
 60.970    672.880    719.655    -46.775    502.775    705.309    502.775    517.117    502.775
 61.070    668.000    666.790      1.210    502.883    653.367    502.883    516.300    502.883
 61.170    611.976    640.596    -28.620    502.992    627.917    502.992    515.659    502.992
 61.270    648.796    637.026     11.770    503.101    624.939    503.101    515.167    503.101
 61.370    681.631    654.922     26.709    503.211    643.301    503.211    514.799    503.211
 61.470    742.000    696.193     45.807    503.321    684.935    503.321    514.529    503.321
 61.570    775.000    764.300     10.700    503.431    753.336    503.431    514.323    503.431
 61.670    830.000    861.487    -31.487    503.542    850.784    503.542    514.145    503.542
 61.770    956.611    985.445    -28.834    503.653    975.020    503.653    513.950    503.653
 61.870   1122.039   1126.444     -4.405    503.764   1116.354    503.764    513.701    503.764
 61.970   1254.000   1265.927    -11.927    503.876   1256.257    503.876    513.377    503.876
 62.070   1357.000   1377.718    -20.718    503.988   1368.560    503.988    512.981    503.988
 62.170   1489.059   1434.209     54.851    504.101   1425.633    504.101    512.536    504.101
 62.270   1479.281   1418.705     60.576    504.214   1410.746    504.214    512.072    504.214
 62.370   1345.098   1335.707      9.391    504.327   1328.356    504.327    511.619    504.327
 62.470   1219.000   1207.704     11.296    504.440   1200.926    504.440    511.196    504.440
 62.570   1021.000   1062.669    -41.669    504.554   1056.410    504.554    510.815    504.554
 62.670    923.000    924.055     -1.055    504.668    918.255    504.668    510.481    504.668
 62.770    786.000    806.780    -20.780    504.783    801.383    504.783    510.196    504.783
 62.870    769.034    717.048     51.986    504.897    712.001    504.897    509.958    504.897
 62.970    685.658    654.220     31.439    505.012    649.478    505.012    509.763    505.012
 63.070    604.000    613.628     -9.628    505.127    609.153    505.127    509.606    505.127
 63.170    635.961    589.306     46.655    505.242    585.066    505.242    509.483    505.242
 63.270    546.048    575.903    -29.855    505.358    571.869    505.358    509.389    505.358
 63.370    560.000    569.599     -9.599    505.473    565.747    505.473    509.320    505.473
 63.470    519.139    568.293    -49.153    505.589    564.603    505.589    509.272    505.589
 63.570    617.944    571.422     46.523    505.705    567.876    505.705    509.241    505.705
 63.670    585.000    579.679      5.321    505.821    576.261    505.821    509.225    505.821
 63.770    647.386    594.707     52.679    505.938    591.403    505.938    509.221    505.938
 63.870    682.000    618.700     63.300    506.054    615.496    506.054    509.229    506.054
 63.970    643.555    653.803    -10.248    506.171    650.685    506.171    509.245    506.171
 64.070    757.000    701.279     55.721    506.288    698.237    506.288    509.270    506.288
 64.170    793.000    760.547     32.453    506.404    757.571    506.404    509.303    506.404
 64.270    791.157    828.270    -37.114    506.521    825.353    506.521    509.342    506.521
 64.370    911.000    897.752     13.248    506.638    894.892    506.638    509.387    506.638
 64.470    962.000    959.123      2.877    506.756    956.321    506.756    509.437    506.756
 64.570    987.000   1001.356    -14.356    506.873    998.618    506.873    509.493    506.873
 64.670    999.000   1016.453    -17.453    506.990   1013.786    506.990    509.554    506.990
 64.770   1062.457   1002.899     59.558    507.107   1000.306    507.107    509.618    507.107
 64.870    992.000    965.377     26.623    507.225    962.858    507.225    509.687    507.225
 64.970    939.926    912.237     27.688    507.342    909.789    507.342    509.760    507.342
 65.070    885.415    852.785     32.630    507.459    850.400    507.459    509.837    507.459
 65.170    814.153    794.796     19.357    507.577    792.465    507.577    509.916    507.577
 65.270    721.000    743.053    -22.053    507.694    740.767    507.694    509.999    507.694
 65.370    728.925    699.418     29.507    507.811    697.169    507.811    510.086    507.811
 65.470    683.000    663.921     19.079    507.928    661.701    507.928    510.175    507.928
 65.570    619.000    635.833    -16.833    508.046    633.635    508.046    510.267    508.046
 65.670    599.247    614.174    -14.927    508.163    611.994    508.163    510.361    508.163
 65.770    587.486    597.877    -10.391    508.280    595.712    508.280    510.458    508.280
 65.870    584.306    585.927     -1.621    508.397    583.775    508.397    510.558    508.397
 65.970    575.000    577.467     -2.467    508.514    575.327    508.514    510.660    508.514
 66.070    562.000    571.830     -9.830    508.631    569.700    508.631    510.765    508.631
 66.170    571.651    568.509      3.142    508.747    566.387    508.747    510.872    508.747
 66.270    603.685    567.122     36.562    508.864    565.007    508.864    510.981    508.864
 66.370    592.000    567.401     24.599    508.980    565.291    508.980    511.092    508.980
 66.470    512.000    569.223    -57.223    509.097    567.116    509.097    511.206    509.097
 66.570    548.000    572.682    -24.682    509.213    570.575    509.213    511.322    509.213
 66.670    578.000    578.224     -0.224    509.329    576.115    509.329    511.440    509.329
 66.770    591.082    586.872      4.210    509.444    584.758    509.444    511.560    509.444
 66.870    592.742    600.571     -7.829    509.560    598.449    509.560    511.683    509.560
 66.970    661.158    622.627     38.532    509.675    620.494    509.675    511.808    509.675
 67.070    697.820    658.134     39.686    509.791    655.987    509.791    511.935    509.791
 67.170    668.812    714.159    -45.347    509.906    711.994    509.906    512.065    509.906
 67.270    801.000    799.322      1.678    510.020    797.136    510.020    512.198    510.020
 67.370    900.761    922.448    -21.687    510.135    920.240    510.135    512.333    510.135
 67.470   1157.102   1090.140     66.963    510.249   1087.910    510.249    512.470    510.249
 67.570   1272.056   1303.552    -31.496    510.363   1301.306    510.363    512.610    510.363
 67.670   1569.000   1555.099     13.901    510.477   1552.845    510.477    512.754    510.477
 67.770   1837.012   1826.010     11.001    510.590   1823.759    510.590    512.900    510.590
 67.870   2066.000   2085.599    -19.599    510.703   2083.362    510.703    513.050    510.703
 67.970   2357.000   2293.614     63.386    510.816   2291.402    510.816    513.203    510.816
 68.070   2443.000   2408.612     34.388    510.928   2406.426    510.928    513.360    510.928
 68.170   2385.413   2403.523    -18.110    511.040   2401.349    511.040    513.521    511.040
 68.270   2244.000   2279.724    -35.724    511.152   2277.532    511.152    513.686    511.152
 68.370   2094.322   2066.191     28.131    511.263   2063.945    511.263    513.855    511.263
 68.470   1793.000   1804.726    -11.726    511.374   1802.392    511.374    514.030    511.374
 68.570   1555.000   1534.943     20.057    511.485   1532.495    511.485    514.209    511.485
 68.670   1310.000   1286.546     23.454    511.595   1283.971    511.595    514.395    511.595
 68.770   1040.000   1077.306    -37.306    511.705   1074.597    511.705    514.587    511.705
 68.870    956.045    913.964     42.081    511.815    911.119    511.815    514.785    511.815
 68.970    816.674    794.778     21.897    511.924    791.797    511.924    514.991    511.924
 69.070    716.727    712.847      3.880    512.032    709.732    512.032    515.205    512.032
 69.170    680.000    659.288     20.712    512.141    656.039    512.141    515.428    512.141
 69.270    660.509    625.573     34.937    512.248    622.185    512.248    515.662    512.248
 69.370    553.000    604.785    -51.785    512.356    601.252    512.356    515.906    512.356
 69.470    563.839    591.967    -28.128    512.462    588.279    512.462    516.162    512.462
 69.570    577.000    583.904     -6.904    512.569    580.048    512.569    516.433    512.569
 69.670    593.284    578.672     14.612    512.674    574.635    512.674    516.718    512.674
 69.770    541.000    575.201    -34.201    512.780    570.965    512.780    517.020    512.780
 69.870    552.000    572.924    -20.924    512.885    568.470    512.885    517.342    512.885
 69.970    515.000    571.557    -56.557    512.989    566.862    512.989    517.686    512.989
 70.070    572.000    570.967      1.033    513.093    566.007    513.093    518.054    513.093
 70.170    571.656    571.117      0.539    513.196    565.863    513.196    518.450    513.196
 70.270    558.000    572.048    -14.048    513.298    566.467    513.298    518.879    513.298
 70.370    582.783    573.902      8.881    513.400    567.955    513.400    519.345    513.400
 70.470    545.453    576.980    -31.528    513.502    570.623    513.502    519.856    513.502
 70.570    583.000    581.855      1.145    513.603    575.033    513.603    520.419    513.603
 70.670    628.000    589.529     38.471    513.703    582.178    513.703    521.046    513.703
 70.770    613.000    601.659     11.341    513.803    593.697    513.803    521.753    513.803
 70.870    593.000    620.777    -27.777    513.902    612.098    513.902    522.562    513.902
 70.970    598.594    650.453    -51.858    514.000    640.921    514.000    523.503    514.000
 71.070    710.000    695.243     14.757    514.098    684.677    514.098    524.621    514.098
 71.170    774.000    760.283     13.717    514.195    748.441    514.195    525.976    514.195
 71.270    879.000    850.392     28.608    514.292    836.949    514.292    527.650    514.292
 71.370   1011.775    968.709     43.065    514.388    953.233    514.388    529.753    514.388
 71.470   1103.000   1115.050    -12.050    514.483   1096.971    514.483    532.423    514.483
 71.570   1278.000   1284.338     -6.338    514.577   1262.922    514.577    535.828    514.577
 71.670   1425.197   1465.513    -40.317    514.671   1439.836    514.671    540.163    514.671
 71.770   1565.301   1641.246    -75.944    514.764   1610.181    514.764    545.634    514.764
 71.870   1892.000   1789.043    102.957    514.857   1751.267    514.857    552.444    514.857
 71.970   1994.000   1885.022    108.978    514.948   1839.040    514.948    560.763    514.948
 72.070   1847.878   1911.301    -63.422    515.039   1855.509    515.039    570.697    515.039
 72.170   1897.000   1864.103     32.897    515.129   1796.891    515.129    582.245    515.129
 72.270   1795.548   1755.805     39.743    515.219   1675.708    515.219    595.254    515.219
 72.370   1626.000   1608.659     17.341    515.307   1514.567    515.307    609.364    515.307
 72.470   1476.000   1446.100     29.900    515.395   1337.538    515.395    623.940    515.395
 72.570   1291.832   1287.188      4.644    515.482   1164.657    515.482    638.006    515.482
 72.670   1060.000   1144.562    -84.562    515.569   1009.890    515.569    650.238    515.569
 72.770    980.764   1024.396    -43.631    515.654    880.948    515.654    659.099    515.654
 72.870    847.000    927.564    -80.564    515.739    780.083    515.739    663.216    515.739
 72.970    812.467    851.558    -39.091    515.823    705.498    515.823    661.876    515.823
 73.070    741.000    792.455    -51.455    515.906    653.010    515.906    655.343    515.906
 73.170    703.000    746.320    -43.320    515.988    617.568    515.988    644.731    515.988
 73.270    663.000    709.857    -46.857    516.069    594.367    516.069    631.552    516.069
 73.370    600.000    680.575    -80.575    516.150    579.462    516.150    617.255    516.150
 73.470    624.000    656.729    -32.729    516.229    569.963    516.229    602.991    516.229
 73.570    613.000    637.188    -24.188    516.308    563.942    516.308    589.551    516.308
 73.670    663.147    621.257     41.890    516.386    560.221    516.386    577.422    516.386
 73.770    550.000    608.515    -58.515    516.463    558.128    516.463    566.854    516.463
 73.870    561.306    598.659    -37.353    516.539    557.292    516.539    557.914    516.539
 73.970    585.000    591.404     -6.404    516.614    557.486    516.614    550.544    516.614
 74.070    597.000    586.414     10.586    516.688    558.519    516.688    544.601    516.688
 74.170    613.000    583.273     29.727    516.762    560.163    516.762    539.895    516.762
 74.270    543.426    581.479    -38.053    516.834    562.124    516.834    536.218    516.834
 74.370    590.000    580.453      9.547    516.905    564.025    516.905    533.368    516.905
 74.470    615.000    579.581     35.419    516.976    565.431    516.976    531.165    516.976
 74.570    527.891    578.299    -50.408    517.045    565.932    517.045    529.454    517.045
 74.670    644.000    576.226     67.774    517.114    565.271    517.114    528.112    517.114
 74.770    573.000    573.282     -0.282    517.181    563.460    517.181    527.044    517.181
 74.870    602.000    569.679     32.321    517.248    560.784    517.248    526.180    517.248
 74.970    638.000    565.816     72.184    517.313    557.693    517.313    525.467    517.313
 75.070    603.000    562.154     40.846    517.378    554.687    517.378    524.870    517.378
 75.170    599.369    559.155     40.214    517.441    552.253    517.441    524.362    517.441
 75.270    535.000    557.274    -22.274    517.504    550.866    517.504    523.925    517.504
 75.370    593.000    556.968     36.032    517.565    550.995    517.565    523.545    517.565
 75.470    529.802    558.709    -28.907    517.626    553.124    517.626    523.213    517.626
 75.570    565.833    562.986      2.848    517.685    557.747    517.685    522.920    517.685
 75.670    540.289    570.260    -29.971    517.743    565.332    517.743    522.662    517.743
 75.770    541.052    580.892    -39.841    517.801    576.244    517.801    522.433    517.801
 75.870    615.170    595.021     20.149    517.857    590.625    517.857    522.229    517.857
 75.970    589.000    612.424    -23.424    517.912    608.256    517.912    522.048    517.912
 76.070    631.000    632.392     -1.392    517.966    628.430    517.966    521.887    517.966
 76.170    609.868    653.640    -43.772    518.019    649.867    518.019    521.743    518.019
 76.270    704.000    674.290     29.710    518.071    670.691    518.071    521.615    518.071
 76.370    705.890    691.952     13.938    518.121    688.514    518.121    521.500    518.121
 76.470    677.000    704.021    -27.021    518.171    700.734    518.171    521.397    518.171
 76.570    708.000    708.320     -0.320    518.219    705.176    518.219    521.305    518.219
 76.670    661.000    703.942    -42.942    518.267    700.933    518.267    521.222    518.267
 76.770    694.000    691.684      2.316    518.313    688.803    518.313    521.148    518.313
 76.870    690.000    673.652     16.348    518.358    670.891    518.358    521.082    518.358
 76.970    625.258    652.427    -27.168    518.402    649.777    518.402    521.022    518.402
 77.070    632.000    630.400      1.600    518.445    627.854    518.445    520.969    518.445
 77.170    634.052    609.456     24.596    518.486    607.006    518.486    520.921    518.486
 77.270    523.000    590.871    -67.871    518.527    588.509    518.527    520.878    518.527
 77.370    567.000    575.329     -8.329    518.566    573.049    518.566    520.839    518.566
 77.470    568.000    563.002      4.998    518.604    560.797    518.604    520.804    518.604
 77.570    528.000    553.681    -25.681    518.641    551.546    518.641    520.773    518.641
 77.670    512.000    546.924    -34.924    518.676    544.853    518.676    520.745    518.676
 77.770    507.000    542.197    -35.197    518.711    540.187    518.711    520.719    518.711
 77.870    530.899    538.980     -8.080    518.744    537.025    518.744    520.697    518.744
 77.970    504.000    536.825    -32.825    518.776    534.923    518.776    520.676    518.776
 78.070    528.915    535.386     -6.470    518.807    533.533    518.807    520.658    518.807
 78.170    497.315    534.398    -37.084    518.836    532.592    518.836    520.641    518.836
 78.270    499.550    533.713    -34.163    518.864    531.949    518.864    520.627    518.864
 78.370    508.000    533.258    -25.258    518.891    531.535    518.891    520.614    518.891
 78.470    514.000    532.956    -18.956    518.917    531.270    518.917    520.602    518.917
 78.570    521.309    532.778    -11.468    518.941    531.127    518.941    520.592    518.941
 78.670    527.000    532.716     -5.716    518.965    531.097    518.965    520.583    518.965
 78.770    531.000    532.776     -1.776    518.987    531.186    518.987    520.575    518.987
 78.870    530.000    532.973     -2.973    519.007    531.410    519.007    520.570    519.007
 78.970    552.777    533.328     19.448    519.027    531.789    519.027    520.565    519.027
 79.070    543.000    533.865      9.135    519.045    532.346    519.045    520.563    519.045
 79.170    497.068    534.608    -37.540    519.062    533.106    519.062    520.562    519.062
 79.270    495.453    535.581    -40.128    519.077    534.092    519.077    520.564    519.077
 79.370    529.000    536.808     -7.808    519.091    535.328    519.091    520.568    519.091
 79.470    568.155    538.313     29.843    519.104    536.839    519.104    520.574    519.104
 79.570    539.000    540.132     -1.132    519.116    538.660    519.116    520.584    519.116
 79.670    536.000    542.324     -6.324    519.126    540.850    519.126    520.596    519.126
 79.770    537.000    544.981     -7.981    519.135    543.500    519.135    520.611    519.135
 79.870    511.503    548.249    -36.746    519.142    546.759    519.142    520.628    519.142
 79.970    554.000    552.353      1.647    519.148    550.849    519.148    520.648    519.148
 80.070    516.000    557.609    -41.609    519.153    556.089    519.153    520.669    519.153
 80.170    555.000    564.423     -9.423    519.157    562.886    519.157    520.691    519.157
 80.270    547.000    573.244    -26.244    519.159    571.691    519.159    520.712    519.159
 80.370    593.000    584.470      8.530    519.160    582.902    519.160    520.731    519.160
 80.470    583.000    598.347    -15.347    519.159    596.769    519.159    520.743    519.159
 80.570    660.495    614.862     45.633    519.157    613.281    519.157    520.748    519.157
 80.670    680.000    633.670     46.330    519.154    632.096    519.154    520.743    519.154
 80.770    648.000    654.062     -6.062    519.149    652.505    519.149    520.726    519.149
 80.870    695.674    674.987     20.687    519.143    673.459    519.143    520.698    519.143
 80.970    657.000    695.170    -38.170    519.136    693.680    519.136    520.659    519.136
 81.070    747.170    713.292     33.878    519.127    711.847    519.127    520.613    519.127
 81.170    709.457    728.164    -18.707    519.116    726.768    519.116    520.561    519.116
 81.270    801.000    738.840     62.160    519.105    737.493    519.105    520.505    519.105
 81.370    688.415    744.677    -56.262    519.092    743.380    519.092    520.448    519.092
 81.470    729.000    745.402    -16.402    519.077    744.152    519.077    520.392    519.077
 81.570    744.000    741.121      2.879    519.061    739.914    519.061    520.336    519.061
 81.670    697.720    732.274    -34.554    519.044    731.106    519.044    520.282    519.044
 81.770    692.318    719.628    -27.310    519.025    718.493    519.025    520.230    519.025
 81.870    700.000    704.244     -4.244    519.005    703.137    519.005    520.180    519.005
 81.970    683.000    687.334     -4.334    518.983    686.252    518.983    520.132    518.983
 82.070    701.251    670.011     31.240    518.960    668.948    518.960    520.086    518.960
 82.170    613.083    653.084    -40.001    518.936    652.038    518.936    520.042    518.936
 82.270    628.000    637.016     -9.016    518.910    635.983    518.910    519.999    518.910
 82.370    616.989    622.018     -5.029    518.883    620.995    518.883    519.957    518.883
 82.470    564.441    608.204    -43.763    518.854    607.187    518.854    519.915    518.854
 82.570    569.000    595.703    -26.703    518.824    594.691    518.824    519.874    518.824
 82.670    566.000    584.685    -18.685    518.792    583.676    518.792    519.833    518.792
 82.770    550.504    575.325    -24.821    518.759    574.317    518.759    519.793    518.759
 82.870    562.584    567.769     -5.185    518.724    566.761    518.724    519.751    518.724
 82.970    561.765    562.119     -0.355    518.688    561.110    518.688    519.709    518.688
 83.070    586.000    558.423     27.577    518.651    557.412    518.651    519.667    518.651
 83.170    594.895    556.658     38.237    518.612    555.644    518.612    519.624    518.612
 83.270    576.217    556.717     19.500    518.571    555.699    518.571    519.580    518.571
 83.370    566.947    558.393      8.554    518.530    557.371    518.530    519.535    518.530
 83.470    569.000    561.374      7.626    518.486    560.347    518.486    519.489    518.486
 83.570    560.000    565.243     -5.243    518.441    564.212    518.441    519.442    518.441
 83.670    607.000    569.492     37.508    518.395    568.458    518.395    519.395    518.395
 83.770    546.000    573.546    -27.546    518.347    572.509    518.347    519.346    518.347
 83.870    585.000    576.807      8.193    518.298    575.768    518.298    519.295    518.298
 83.970    521.000    578.732    -57.732    518.247    577.693    518.247    519.244    518.247
 84.070    572.000    578.940     -6.940    518.195    577.901    518.195    519.192    518.195
 84.170    524.000    577.313    -53.313    518.141    576.276    518.141    519.138    518.141
 84.270    574.000    574.023     -0.023    518.086    572.988    518.086    519.084    518.086
 84.370    549.000    569.459    -20.459    518.029    568.428    518.029    519.029    518.029
 84.470    515.741    564.112    -48.371    517.971    563.083    517.971    518.972    517.971
 84.570    590.000    558.464     31.536    517.911    557.438    517.911    518.915    517.911
 84.670    564.000    552.933     11.067    517.850    551.909    517.850    518.856    517.850
 84.770    572.000    547.837     24.163    517.788    546.814    517.788    518.796    517.788
 84.870    590.236    543.388     46.849    517.723    542.365    517.723    518.735    517.723
 84.970    579.000    539.691     39.309    517.658    538.667    517.658    518.673    517.658
 85.070    539.000    536.766      2.234    517.591    535.740    517.591    518.609    517.591
 85.170    501.122    534.566    -33.443    517.522    533.537    517.522    518.545    517.522
 85.270    543.000    533.006      9.994    517.452    531.974    517.452    518.479    517.452
 85.370    506.000    531.992    -25.992    517.380    530.955    517.380    518.413    517.380
 85.470    587.000    531.434     55.566    517.307    530.392    517.307    518.345    517.307
 85.570    537.520    531.267      6.253    517.233    530.219    517.233    518.276    517.233
 85.670    567.000    531.460     35.540    517.156    530.405    517.156    518.206    517.156
 85.770    510.000    532.018    -22.018    517.079    530.955    517.079    518.135    517.079
 85.870    492.376    532.989    -40.613    517.000    531.918    517.000    518.063    517.000
 85.970    519.065    534.462    -15.397    516.919    533.381    516.919    517.989    516.919
 86.070    508.000    536.561    -28.561    516.837    535.471    516.837    517.915    516.837
 86.170    540.675    539.444      1.232    516.754    538.341    516.754    517.840    516.754
 86.270    553.000    543.279      9.721    516.668    542.163    516.668    517.763    516.668
 86.370    530.769    548.235    -17.466    516.582    547.103    516.582    517.686    516.582
 86.470    536.160    554.445    -18.285    516.494    553.297    516.494    517.607    516.494
 86.570    572.194    561.980     10.214    516.404    560.813    516.404    517.528    516.404
 86.670    595.705    570.811     24.894    516.313    569.623    516.313    517.447    516.313
 86.770    590.000    580.778      9.222    516.221    579.568    516.221    517.366    516.221
 86.870    613.000    591.563     21.437    516.127    590.330    516.127    517.284    516.127
 86.970    563.000    602.678    -39.678    516.031    601.420    516.031    517.200    516.031
 87.070    607.000    613.468     -6.468    515.934    612.187    515.934    517.116    515.934
 87.170    634.965    623.141     11.824    515.836    621.839    515.836    517.031    515.836
 87.270    655.000    630.838     24.162    515.736    629.516    515.736    516.946    515.736
 87.370    640.000    635.763      4.237    515.635    634.425    515.635    516.859    515.635
 87.470    600.760    637.376    -36.616    515.532    636.025    515.532    516.772    515.532
 87.570    594.424    635.547    -41.122    515.427    634.185    515.427    516.684    515.427
 87.670    610.051    630.601    -20.550    515.321    629.232    515.321    516.595    515.321
 87.770    653.000    623.218     29.782    515.214    621.842    515.214    516.506    515.214
 87.870    621.000    614.266      6.734    515.105    612.884    515.105    516.416    515.105
 87.970    558.961    604.653    -45.692    514.995    603.264    514.995    516.326    514.995
 88.070    562.000    595.232    -33.232    514.883    593.835    514.883    516.235    514.883
 88.170    632.300    586.739     45.561    514.770    585.332    514.770    516.144    514.770
 88.270    581.000    579.755      1.245    514.656    578.336    514.656    516.053    514.656
 88.370    558.192    574.685    -16.493    514.540    573.251    514.540    515.961    514.540
 88.470    592.000    571.749     20.251    514.422    570.298    514.422    515.869    514.422
 88.570    575.000    570.985      4.015    514.303    569.515    514.303    515.777    514.303
 88.670    577.092    572.260      4.832    514.183    570.769    514.183    515.686    514.183
 88.770    599.132    575.285     23.847    514.061    573.772    514.061    515.594    514.061
 88.870    612.000    579.637     32.363    513.937    578.101    513.937    515.502    513.937
 88.970    604.000    584.784     19.216    513.813    583.221    513.813    515.411    513.813
 89.070    636.619    590.106     46.513    513.686    588.515    513.686    515.321    513.686
 89.170    591.041    594.940     -3.900    513.559    593.318    513.559    515.231    513.559
 89.270    623.123    598.630     24.493    513.430    596.973    513.430    515.142    513.430
 89.370    642.549    600.602     41.946    513.299    598.906    513.299    515.054    513.299
 89.470    641.000    600.512     40.488    513.168    598.773    513.168    514.968    513.168
 89.570    562.000    598.283    -36.283    513.034    596.495    513.034    514.883    513.034
 89.670    603.000    594.109      8.891    512.900    592.268    512.900    514.800    512.900
 89.770    565.000    588.407    -23.407    512.764    586.507    512.764    514.719    512.764
 89.870    556.301    581.695    -25.394    512.626    579.731    512.626    514.641    512.626
 89.970    553.000    574.501    -21.501    512.487    572.467    512.487    514.566    512.487
 90.070    597.341    567.294     30.047    512.347    565.185    512.347    514.494    512.347
 90.170    538.685    560.457    -21.772    512.205    558.266    512.205    514.427    512.205
 90.270    554.000    554.271     -0.271    512.062    551.992    512.062    514.366    512.062
 90.370    500.000    548.912    -48.912    511.918    546.539    511.918    514.311    511.918
 90.470    505.000    544.463    -39.463    511.772    541.986    511.772    514.264    511.772
 90.570    528.000    540.927    -12.927    511.625    538.337    511.625    514.227    511.625
 90.670    552.000    538.251     13.749    511.477    535.533    511.477    514.202    511.477
 90.770    542.000    536.345      5.655    511.327    533.486    511.327    514.191    511.327
 90.870    514.820    535.111    -20.291    511.176    532.090    511.176    514.199    511.176
 90.970    530.000    534.453     -4.453    511.023    531.248    511.023    514.230    511.023
 91.070    539.052    534.299      4.753    510.869    530.880    510.869    514.288    510.869
 91.170    572.000    534.605     37.395    510.714    530.938    510.714    514.381    510.714
 91.270    535.987    535.365      0.622    510.558    531.407    510.558    514.514    510.558
 91.370    483.000    536.613    -53.613    510.400    532.314    510.400    514.696    510.400
 91.470    492.000    538.425    -46.425    510.241    533.726    510.241    514.936    510.241
 91.570    538.000    540.916     -2.916    510.080    535.747    510.080    515.243    510.080
 91.670    539.000    544.243     -5.243    509.919    538.526    509.919    515.628    509.919
 91.770    529.000    548.597    -19.597    509.756    542.242    509.756    516.100    509.756
 91.870    591.850    554.184     37.666    509.592    547.093    509.592    516.670    509.592
 91.970    562.000    561.220      0.780    509.426    553.283    509.426    517.345    509.426
 92.070    582.654    569.900     12.754    509.259    561.003    509.259    518.134    509.259
 92.170    570.000    580.351    -10.351    509.091    570.374    509.091    519.041    509.091
 92.270    608.000    592.743     15.257    508.922    581.565    508.922    520.067    508.922
 92.370    609.564    607.077      2.487    508.752    594.580    508.752    521.210    508.752
 92.470    665.000    623.238     41.762    508.580    609.312    508.580    522.461    508.580
 92.570    643.531    640.996      2.535    508.407    625.544    508.407    523.806    508.407
 92.670    709.000    659.981     49.019    508.233    642.931    508.233    525.224    508.233
 92.770    688.000    679.683      8.317    508.058    660.994    508.058    526.681    508.058
 92.870    704.000    699.470      4.530    507.881    679.145    507.881    528.136    507.881
 92.970    691.000    718.640    -27.640    507.703    696.739    507.703    529.531    507.703
 93.070    736.861    736.521      0.340    507.525    713.170    507.525    530.799    507.525
 93.170    802.638    752.584     50.053    507.345    727.989    507.345    531.863    507.345
 93.270    756.559    766.562    -10.003    507.163    741.006    507.163    532.643    507.163
 93.370    799.000    778.463     20.537    506.981    752.299    506.981    533.069    506.981
 93.470    734.103    788.498    -54.395    506.797    762.130    506.797    533.092    506.797
 93.570    780.339    797.008    -16.670    506.613    770.851    506.613    532.699    506.613
 93.670    807.000    804.385      2.615    506.427    778.836    506.427    531.908    506.427
 93.770    879.000    811.063     67.937    506.240    786.465    506.240    530.772    506.240
 93.870    885.000    817.538     67.462    506.052    794.162    506.052    529.364    506.052
 93.970    876.198    824.361     51.837    505.863    802.400    505.863    527.763    505.863
 94.070    844.000    832.065     11.935    505.673    811.633    505.673    526.045    505.673
 94.170    876.000    841.007     34.993    505.482    822.152    505.482    524.279    505.482
 94.270    829.000    851.219    -22.219    505.290    833.937    505.290    522.517    505.290
 94.370    853.000    862.304     -9.304    505.096    846.547    505.096    520.801    505.096
 94.470    920.892    873.421     47.471    504.902    859.113    504.902    519.162    504.902
 94.570    897.000    883.345     13.655    504.707    870.387    504.707    517.621    504.707
 94.670    925.000    890.605     34.395    504.510    878.886    504.510    516.192    504.510
 94.770    839.245    893.698    -54.453    504.313    883.100    504.313    514.882    504.313
 94.870    945.000    891.369     53.631    504.115    881.769    504.115    513.692    504.115
 94.970    913.041    882.901     30.140    503.915    874.181    503.915    512.622    503.915
 95.070    906.000    868.319     37.681    503.715    860.363    503.715    511.666    503.715
 95.170    895.000    848.402     46.598    503.514    841.099    503.514    510.818    503.514
 95.270    863.418    824.522     38.896    503.311    817.773    503.311    510.067    503.311
 95.370    834.000    798.417     35.583    503.108    792.130    503.108    509.406    503.108
 95.470    785.000    771.969     13.031    502.904    766.062    502.904    508.824    502.904
 95.570    744.610    747.055     -2.445    502.699    741.456    502.699    508.310    502.699
 95.670    735.515    725.443     10.073    502.493    720.090    502.493    507.856    502.493
 95.770    715.000    708.737      6.263    502.287    703.575    502.287    507.454    502.287
 95.870    718.000    698.340     19.660    502.079    693.324    502.079    507.095    502.079
 95.970    685.000    695.433    -10.433    501.871    690.524    501.871    506.773    501.871
 96.070    666.000    701.025    -35.025    501.661    696.189    501.661    506.483    501.661
 96.170    766.000    715.869     50.131    501.451    711.077    501.451    506.219    501.451
 96.270    736.000    740.482     -4.482    501.240    735.710    501.240    505.979    501.240
 96.370    778.463    775.111      3.352    501.029    770.337    501.029    505.758    501.029
 96.470    790.742    819.663    -28.921    500.816    814.869    500.816    505.555    500.816
 96.570    884.000    873.629     10.371    500.603    868.798    500.603    505.369    500.603
 96.670    916.000    936.000    -20.000    500.389    931.116    500.389    505.197    500.389
 96.770   1064.000   1005.189     58.811    500.174   1000.241    500.174    505.040    500.174
 96.870   1053.000   1078.994    -25.994    499.958   1073.967    499.958    504.896    499.958
 96.970   1104.000   1154.575    -50.575    499.742   1149.460    499.742    504.766    499.742
 97.070   1259.000   1228.499     30.501    499.525   1223.284    499.525    504.650    499.525
 97.170   1338.000   1296.847     41.153    499.308   1291.521    499.308    504.548    499.308
 97.270   1404.000   1355.442     48.558    499.089   1349.994    499.089    504.461    499.089
 97.370   1343.743   1400.242    -56.499    498.871   1394.659    498.871    504.391    498.871
 97.470   1372.000   1427.906    -55.906    498.651   1422.174    498.651    504.338    498.651
 97.570   1360.069   1436.396    -76.327    498.431   1430.496    498.431    504.306    498.431
 97.670   1457.000   1425.386     31.614    498.210   1419.297    498.210    504.295    498.210
 97.770   1415.045   1396.283     18.762    497.989   1389.976    497.989    504.311    497.989
 97.870   1299.199   1351.862    -52.663    497.767   1345.306    497.767    504.356    497.767
 97.970   1305.000   1295.733      9.267    497.544   1288.887    497.544    504.436    497.544
 98.070   1225.000   1231.840     -6.840    497.321   1224.659    497.321    504.557    497.321
 98.170   1120.000   1164.107    -44.107    497.098   1156.536    497.098    504.729    497.098
 98.270   1056.000   1096.214    -40.214    496.874   1088.189    496.874    504.960    496.874
 98.370   1070.000   1031.458     38.542    496.649   1022.904    496.649    505.263    496.649
 98.470   1003.000    972.686     30.314    496.424    963.513    496.424    505.652    496.424
 98.570    973.072    922.266     50.805    496.199    912.367    496.199    506.146    496.199
 98.670    800.000    882.098    -82.098    495.973    871.346    495.973    506.764    495.973
 98.770    805.179    853.650    -48.471    495.746    841.898    495.746    507.529    495.746
 98.870    816.762    838.011    -21.249    495.520    825.083    495.520    508.468    495.520
 98.970    835.000    835.947     -0.947    495.293    821.641    495.293    509.609    495.293
 99.070    848.000    847.952      0.048    495.065    832.034    495.065    510.984    495.065
 99.170    857.000    874.265    -17.265    494.837    856.472    494.837    512.625    494.837
 99.270    958.000    914.879     43.121    494.609    894.912    494.609    514.564    494.609
 99.370    991.000    969.499     21.501    494.381    947.030    494.381    516.834    494.381
 99.470   1030.000   1037.476     -7.476    494.152   1012.148    494.152    519.463    494.152
 99.570   1156.000   1117.741     38.259    493.923   1089.172    493.923    522.476    493.923
 99.670   1208.885   1208.727      0.157    493.694   1176.518    493.694    525.892    493.694
 99.770   1303.000   1308.302     -5.302    493.464   1272.043    493.464    529.720    493.464
 99.870   1437.000   1413.716     23.284    493.234   1373.001    493.234    533.959    493.234
 99.970   1518.000   1521.662     -3.662    493.005   1476.099    493.005    538.593    493.005
100.070   1700.000   1628.299     71.701    492.774   1577.527    492.774    543.592    492.774
100.170   1688.524   1729.471    -40.947    492.544   1673.179    492.544    548.905    492.544
100.270   1906.000   1821.027     84.973    492.314   1758.976    492.314    554.460    492.314
100.370   1943.000   1899.194     43.806    492.083   1831.240    492.083    560.157    492.083
100.470   1984.000   1960.875     23.125    491.853   1887.004    491.853    565.869    491.853
100.570   2044.000   2003.790     40.210    491.622   1924.147    491.622    571.435    491.622
100.670   2085.000   2026.452     58.548    491.392   1941.373    491.392    576.661    491.392
100.770   1985.568   2028.115    -42.546    491.161   1938.157    491.161    581.325    491.161
100.870   2090.000   2008.846     81.154    490.930   1914.804    490.930    585.191    490.930
100.970   1967.000   1969.729     -2.729    490.699   1872.624    490.699    588.030    490.699
101.070   1831.855   1913.043    -81.188    490.469   1814.091    490.469    589.648    490.469
101.170   1866.280   1842.239     24.041    490.238   1742.781    490.238    589.920    490.238
101.270   1707.913   1761.620    -53.707    490.008   1663.033    490.008    588.811    490.008
101.370   1615.000   1675.830    -60.830    489.777   1579.429    489.777    586.383    489.777
101.470   1566.000   1589.333    -23.333    489.547   1496.285    489.547    582.785    489.547
101.570   1567.000   1506.009     60.991    489.317   1417.278    489.317    578.223    489.317
101.670   1499.904   1428.912     70.992    489.087   1345.226    489.087    572.932    489.087
101.770   1316.000   1360.160    -44.160    488.857   1282.013    488.857    567.146    488.857
101.870   1276.000   1300.914    -24.914    488.627   1228.589    488.627    561.080    488.627
101.970   1179.200   1251.427    -72.226    488.398   1185.022    488.398    554.919    488.398
102.070   1225.000   1211.126     13.874    488.169   1150.587    488.169    548.813    488.169
102.170   1230.000   1178.729     51.271    487.940   1123.884    487.940    542.882    487.940
102.270   1120.100   1152.400    -32.300    487.712   1102.987    487.712    537.217    487.712
102.370   1107.000   1129.939    -22.939    487.484   1085.628    487.484    531.884    487.484
102.470   1094.000   1109.027    -15.027    487.256   1069.444    487.256    526.926    487.256
102.570   1041.000   1087.500    -46.500    487.029   1052.245    487.029    522.371    487.029
102.670   1135.000   1063.633     71.367    486.802   1032.294    486.802    518.229    486.802
102.770   1014.063   1036.348    -22.285    486.575   1008.513    486.575    514.498    486.575
102.870   1064.849   1005.280     59.569    486.349    980.552    486.349    511.166    486.349
102.970    968.000    970.706     -2.706    486.123    948.704    486.123    508.212    486.123
103.070    924.000    933.357     -9.357    485.898    913.729    485.898    505.610    485.898
103.170    937.486    894.230     43.256    485.674    876.653    485.674    503.330    485.674
103.270    875.430    854.410     21.020    485.450    838.594    485.450    501.340    485.450
103.370    795.562    814.957    -19.395    485.226    800.645    485.226    499.607    485.226
103.470    762.000    776.832    -14.832    485.003    763.798    485.003    498.099    485.003
103.570    752.000    740.841     11.159    484.781    728.891    484.781    496.786    484.781
103.670    723.965    707.613     16.352    484.560    696.582    484.560    495.639    484.560
103.770    693.000    677.584     15.416    484.339    667.331    484.339    494.634    484.339
103.870    665.000    651.000     14.000    484.119    641.406    484.119    493.748    484.119
103.970    615.032    627.927    -12.894    483.900    618.894    483.900    492.961    483.900
104.070    627.000    608.283     18.717    483.681    599.731    483.681    492.256    483.681
104.170    586.000    591.867     -5.867    483.463    583.727    483.463    491.621    483.463
104.270    599.000    578.394     20.606    483.246    570.612    483.246    491.043    483.246
104.370    553.000    567.532    -14.532    483.030    560.061    483.030    490.513    483.030
104.470    559.711    558.934      0.777    482.815    551.734    482.815    490.023    482.815
104.570    546.000    552.258     -6.258    482.601    545.298    482.601    489.567    482.601
104.670    510.556    547.195    -36.639    482.387    540.446    482.387    489.140    482.387
104.770    561.000    543.473     17.527    482.175    536.912    482.175    488.738    482.175
104.870    522.027    540.869    -18.842    481.964    534.475    481.964    488.358    481.964
104.970    575.000    539.213     35.787    481.753    532.968    481.753    487.997    481.753
105.070    498.373    538.387    -40.014    481.544    532.274    481.544    487.654    481.544
105.170    532.000    538.314     -6.314    481.336    532.320    481.336    487.326    481.336
105.270    564.000    538.965     25.035    481.129    533.075    481.129    487.012    481.129
105.370    583.000    540.346     42.654    480.923    534.549    480.923    486.712    480.923
105.470    536.000    542.496     -6.496    480.718    536.781    480.718    486.424    480.718
105.570    529.000    545.479    -16.479    480.514    539.835    480.514    486.148    480.514
105.670    578.000    549.367     28.633    480.312    543.784    480.312    485.882    480.312
105.770    582.000    554.256     27.744    480.111    548.724    480.111    485.627    480.111
105.870    569.000    560.213      8.787    479.911    554.724    479.911    485.382    479.911
105.970    578.554    567.288     11.266    479.713    561.833    479.713    485.146    479.713
106.070    614.591    575.494     39.098    479.515    570.066    479.515    484.920    479.515
106.170    640.000    584.800     55.200    479.320    579.391    479.320    484.702    479.320
106.270    627.000    595.121     31.879    479.125    589.724    479.125    484.493    479.125
106.370    612.000    606.313      5.687    478.933    600.920    478.933    484.293    478.933
106.470    632.205    618.171     14.034    478.741    612.776    478.741    484.101    478.741
106.570    646.733    630.432     16.302    478.552    625.028    478.552    483.917    478.552
106.670    641.000    642.779     -1.779    478.363    637.361    478.363    483.741    478.363
106.770    673.000    654.852     18.148    478.177    649.415    478.177    483.573    478.177
106.870    671.000    666.265      4.735    477.992    660.802    477.992    483.413    477.992
106.970    638.000    676.624    -38.624    477.808    671.130    477.808    483.261    477.808
107.070    655.000    685.568    -30.568    477.626    680.037    477.626    483.117    477.626
107.170    688.000    692.806     -4.806    477.446    687.233    477.446    482.981    477.446
107.270    711.983    698.171     13.811    477.268    692.551    477.268    482.853    477.268
107.370    698.000    701.651     -3.651    477.092    695.977    477.092    482.733    477.092
107.470    666.000    703.394    -37.394    476.917    697.661    476.917    482.621    476.917
107.570    718.035    703.691     14.343    476.744    697.892    476.744    482.518    476.744
107.670    682.877    702.922    -20.045    476.573    697.051    476.573    482.424    476.573
107.770    699.000    701.496     -2.496    476.404    695.546    476.404    482.338    476.404
107.870    670.674    699.805    -29.130    476.237    693.768    476.237    482.261    476.237
107.970    693.000    698.174     -5.174    476.072    692.044    476.072    482.193    476.072
108.070    693.000    696.846     -3.846    475.909    690.615    475.909    482.135    475.909
108.170    689.000    695.957     -6.957    475.748    689.617    475.748    482.087    475.748
108.270    686.000    695.531     -9.531    475.589    689.074    475.589    482.049    475.589
108.370    672.000    695.483    -23.483    475.432    688.901    475.432    482.021    475.432
108.470    656.380    695.621    -39.241    475.278    688.904    475.278    482.004    475.278
108.570    652.000    695.664    -43.664    475.126    688.803    475.126    481.999    475.126
108.670    663.000    695.268    -32.268    474.975    688.254    474.975    482.005    474.975
108.770    729.175    694.069     35.106    474.828    686.891    474.828    482.024    474.828
108.870    676.000    691.731    -15.731    474.682    684.377    474.682    482.056    474.682
108.970    681.000    687.994     -6.994    474.539    680.454    474.539    482.101    474.539
109.070    703.992    682.723     21.269    474.398    674.983    474.398    482.161    474.398
109.170    707.000    675.918     31.082    474.260    667.965    474.260    482.236    474.260
109.270    675.450    667.710      7.740    474.124    659.531    474.124    482.328    474.124
109.370    630.766    658.330    -27.563    473.991    649.908    473.991    482.436    473.991
109.470    647.000    648.070     -1.070    473.860    639.390    473.860    482.563    473.860
109.570    675.000    637.250     37.750    473.732    628.294    473.732    482.710    473.732
109.670    660.000    626.187     33.813    473.606    616.935    473.606    482.879    473.606
109.770    644.040    615.178     28.862    473.483    605.609    473.483    483.071    473.483
109.870    623.000    604.490     18.510    473.363    594.582    473.363    483.289    473.363
109.970    548.571    594.355    -45.784    473.245    584.081    473.245    483.535    473.245
110.070    544.225    584.959    -40.734    473.130    574.289    473.130    483.812    473.130
110.170    594.271    576.442     17.829    473.019    565.346    473.019    484.126    473.019
110.270    605.000    568.905     36.095    472.909    557.345    472.909    484.478    472.909
110.370    548.198    562.403    -14.204    472.803    550.336    472.803    484.876    472.803
110.470    583.000    556.955     26.045    472.700    544.334    472.700    485.326    472.700
110.570    582.806    552.548     30.257    472.600    539.317    472.600    485.834    472.600
110.670    518.094    549.144    -31.050    472.503    535.238    472.503    486.410    472.503
110.770    528.000    546.685    -18.685    472.409    532.030    472.409    487.064    472.409
110.870    555.698    545.100     10.598    472.318    529.607    472.318    487.809    472.318
110.970    582.000    544.291     37.709    472.230    527.859    472.230    488.658    472.230
111.070    570.000    544.213     25.787    472.145    526.725    472.145    489.629    472.145
111.170    559.000    544.815     14.185    472.063    526.134    472.063    490.739    472.063
111.270    551.715    546.015      5.701    471.985    525.983    471.985    492.011    471.985
111.370    561.000    547.757     13.243    471.910    526.193    471.910    493.468    471.910
111.470    547.000    550.000     -3.000    471.839    526.696    471.839    495.136    471.839
111.570    517.000    552.716    -35.716    471.771    527.434    471.771    497.045    471.771
111.670    586.000    555.888     30.112    471.706    528.359    471.706    499.227    471.706
111.770    554.915    559.513     -4.598    471.645    529.433    471.645    501.715    471.645
111.870    583.452    563.597     19.855    471.587    530.629    471.587    504.545    471.587
111.970    533.630    568.162    -34.531    471.533    531.932    471.533    507.753    471.533
112.070    621.477    573.240     48.237    471.483    533.335    471.483    511.377    471.483
112.170    556.000    578.874    -22.874    471.436    534.843    471.436    515.455    471.436
112.270    601.000    585.112     15.888    471.393    536.472    471.393    520.022    471.393
112.370    586.000    592.012     -6.012    471.354    538.244    471.354    525.109    471.354
112.470    597.057    599.633     -2.576    471.318    540.192    471.318    530.746    471.318
112.570    554.000    608.041    -54.041    471.286    542.358    471.286    536.956    471.286
112.670    628.000    617.305     10.695    471.259    544.795    471.259    543.754    471.259
112.770    643.000    627.502     15.498    471.235    547.573    471.235    551.149    471.235
112.870    620.000    638.718    -18.718    471.215    550.779    471.215    559.138    471.215
112.970    639.000    651.051    -12.051    471.199    554.528    471.199    567.704    471.199
113.070    678.799    664.623     14.177    471.187    558.971    471.187    576.821    471.187
113.170    656.000    679.586    -23.586    471.180    564.303    471.180    586.442    471.180
113.270    678.000    696.134    -18.134    471.176    570.781    471.176    596.507    471.176
113.370    751.457    714.521     36.936    471.177    578.740    471.177    606.933    471.177
113.470    663.000    735.072    -72.072    471.182    588.612    471.182    617.615    471.182
113.570    768.532    758.211     10.321    471.191    600.945    471.191    628.425    471.191
113.670    728.000    784.475    -56.475    471.205    616.436    471.205    639.207    471.205
113.770    818.000    814.547      3.453    471.223    635.948    471.223    649.778    471.223
113.870    823.000    849.272    -26.272    471.246    660.540    471.246    659.926    471.246
113.970    949.437    889.690     59.747    471.273    691.487    471.273    669.416    471.273
114.070    938.000    937.055      0.945    471.304    730.296    471.304    677.990    471.304
114.170    977.404    992.853    -15.449    471.341    778.719    471.341    685.388    471.341
114.270   1013.000   1058.820    -45.820    471.382    838.742    471.382    691.354    471.382
114.370   1103.000   1136.934    -33.934    471.427    912.570    471.427    695.666    471.427
114.470   1296.000   1229.402     66.598    471.477   1002.582    471.477    698.148    471.477
114.570   1399.580   1338.610     60.971    471.533   1111.268    471.533    698.697    471.533
114.670   1543.000   1467.048     75.952    471.593   1241.140    471.593    697.291    471.593
114.770   1670.000   1617.197     52.803    471.658   1394.616    471.658    693.993    471.658
114.870   1869.000   1791.380     77.620    471.727   1573.878    471.727    688.945    471.727
114.970   2065.000   1991.584     73.416    471.802   1780.712    471.802    682.346    471.802
115.070   2284.645   2219.266     65.379    471.882   2016.335    471.882    674.440    471.882
115.170   2376.588   2475.149    -98.561    471.967   2281.210    471.967    665.487    471.967
115.270   3015.000   2759.034    255.966    472.057   2574.878    472.057    655.747    472.057
115.370   3254.000   3069.626    184.374    472.153   2895.800    472.153    645.469    472.153
115.470   3537.000   3404.405    132.595    472.254   3241.230    472.254    634.877    472.254
115.570   3821.611   3759.535     62.076    472.360   3607.139    472.360    624.169    472.360
115.670   4203.000   4129.835     73.165    472.471   3988.177    472.471    613.515    472.471
115.770   4613.000   4508.801    104.199    472.588   4377.699    472.588    603.056    472.588
115.870   4896.000   4888.695      7.305    472.710   4767.855    472.710    592.910    472.710
115.970   5372.000   5260.697    111.303    472.838   5149.730    472.838    583.170    472.838
116.070   5716.000   5615.121    100.879    472.971   5513.572    472.971    573.907    472.971
116.170   5849.135   5941.721    -92.586    473.110   5849.079    473.110    565.175    473.110
116.270   6353.000   6230.084    122.916    473.255   6145.804    473.255    557.011    473.255
116.370   6563.000   6470.148     92.852    473.405   6393.661    473.405    549.436    473.405
116.470   6489.433   6652.828   -163.394    473.562   6583.557    473.562    542.459    473.562
116.570   6718.000   6770.733    -52.733    473.724   6708.100    473.724    536.078    473.724
116.670   6882.000   6818.860     63.140    473.892   6762.293    473.892    530.280    473.892
116.770   6833.000   6795.120     37.880    474.066   6744.066    474.066    525.047    474.066
116.870   6771.000   6700.575     70.425    474.246   6654.500    474.246    520.352    474.246
116.970   6398.000   6539.302   -141.302    474.432   6497.698    474.432    516.165    474.432
117.070   6180.157   6317.928   -137.771    474.625   6280.320    474.625    512.451    474.625
117.170   5996.000   6044.975    -48.975    474.823   6010.917    474.823    509.175    474.823
117.270   5357.000   5730.137   -373.137    475.028   5699.222    475.028    506.299    475.028
117.370   5190.000   5383.628   -193.628    475.239   5355.483    475.239    503.786    475.239
117.470   4935.595   5015.638    -80.043    475.456   4989.928    475.456    501.600    475.456
117.570   4738.893   4635.909    102.985    475.680   4612.333    475.680    499.707    475.680
117.670   4262.175   4253.414      8.761    475.910   4231.706    475.910    498.073    475.910
117.770   3799.000   3876.127    -77.127    476.147   3856.052    476.147    496.669    476.147
117.870   3474.567   3510.861    -36.294    476.391   3492.214    476.391    495.466    476.391
117.970   3224.000   3163.176     60.824    476.641   3145.781    476.641    494.440    476.641
118.070   2797.809   2837.355    -39.546    476.898   2821.057    476.898    493.568    476.898
118.170   2483.000   2536.420    -53.420    477.161   2521.089    477.161    492.829    477.161
118.270   2276.000   2262.235     13.765    477.432   2247.758    477.432    492.207    477.432
118.370   1860.000   2015.646   -155.646    477.709   2001.929    477.709    491.686    477.709
118.470   1722.000   1796.539    -74.539    477.993   1783.501    477.993    491.254    477.993
118.570   1667.459   1604.065     63.394    478.285   1591.638    478.285    490.899    478.285
118.670   1403.000   1436.790    -33.790    478.583   1424.916    478.583    490.612    478.583
118.770   1226.000   1292.856    -66.856    478.889   1281.485    478.889    490.384    478.889
118.870   1143.000   1170.131    -27.131    479.201   1159.221    479.201    490.210    479.201
118.970    978.000   1066.345    -88.345    479.521   1055.860    479.521    490.083    479.521
119.070    955.000    979.207    -24.207    479.849    969.115    479.849    489.999    479.849
119.170    866.832    906.494    -39.662    480.183    896.766    480.183    489.955    480.183
119.270    820.000    846.122    -26.122    480.526    836.733    480.526    489.946    480.526
119.370    848.405    796.190     52.215    480.875    787.117    480.875    489.971    480.875
119.470    726.000    755.005    -29.005    481.232    746.226    481.232    490.027    481.232
119.570    689.000    721.094    -32.094    481.597    712.589    481.597    490.113    481.597
119.670    672.815    693.192    -20.378    481.970    684.942    481.970    490.227    481.970
119.770    636.000    670.241    -34.241    482.350    662.227    482.350    490.368    482.350
119.870    647.000    651.358     -4.358    482.738    643.565    482.738    490.536    482.738
119.970    616.117    635.826    -19.709    483.134    628.234    483.134    490.729    483.134
120.070    670.906    623.061     47.845    483.538    615.655    483.538    490.947    483.538
120.170    627.000    612.597     14.403    483.950    605.360    483.950    491.190    483.950
120.270    605.000    604.062      0.938    484.371    596.978    484.371    491.457    484.371
120.370    573.000    597.165    -24.165    484.799    590.218    484.799    491.749    484.799
120.470    566.000    591.674    -25.674    485.235    584.849    485.235    492.064    485.235
120.570    602.782    587.409     15.373    485.680    580.690    485.680    492.403    485.680
120.670    568.000    584.228    -16.228    486.133    577.599    486.133    492.767    486.133
120.770    544.150    582.019    -37.869    486.595    575.466    486.595    493.154    486.595
120.870    552.484    580.693    -28.209    487.065    574.200    487.065    493.564    487.065
120.970    555.000    580.177    -25.177    487.543    573.730    487.543    493.998    487.543
121.070    593.000    580.410     12.590    488.030    573.994    488.030    494.455    488.030
121.170    589.000    581.337      7.663    488.526    574.938    488.526    494.935    488.526
121.270    572.316    582.908    -10.592    489.031    576.512    489.031    495.438    489.031
121.370    558.949    585.072    -26.124    489.544    578.666    489.544    495.963    489.544
121.470    597.000    587.777      9.223    490.066    581.349    490.066    496.510    490.066
121.570    599.000    590.966      8.034    490.597    584.503    490.597    497.077    490.597
121.670    613.088    594.577     18.511    491.138    588.068    491.138    497.665    491.138
121.770    604.000    598.541      5.459    491.687    591.976    491.687    498.273    491.687
121.870    601.274    602.781     -1.507    492.245    596.152    492.245    498.898    492.245
121.970    620.000    607.215     12.785    492.813    600.514    492.813    499.540    492.813
122.070    610.000    611.751     -1.751    493.390    604.973    493.390    500.197    493.390
122.170    635.000    616.292     18.708    493.976    609.432    493.976    500.867    493.976
122.270    652.000    620.737     31.263    494.572    613.794    494.572    501.549    494.572
122.370    648.000    624.979     23.021    495.178    617.954    495.178    502.240    495.178
122.470    638.838    628.916      9.922    495.792    621.811    495.792    502.937    495.792
122.570    601.000    632.444    -31.444    496.417    625.265    496.417    503.637    496.417
122.670    670.615    635.472     35.143    497.051    628.228    497.051    504.338    497.051
122.770    633.000    637.920     -4.920    497.695    630.624    497.695    505.036    497.695
122.870    607.040    639.730    -32.690    498.349    632.396    498.349    505.729    498.349
122.970    670.036    640.862     29.174    499.013    633.508    499.013    506.413    499.013
123.070    604.664    641.300    -36.635    499.687    633.951    499.687    507.082    499.687
123.170    626.000    641.062    -15.062    500.371    633.737    500.371    507.742    500.371
123.270    626.000    640.179    -14.179    501.065    632.901    501.065    508.388    501.065
123.370    614.640    638.698    -24.059    501.769    631.493    501.769    509.020    501.769
123.470    676.072    636.685     39.387    502.484    629.576    502.484    509.636    502.484
123.570    623.000    634.212    -11.212    503.209    627.222    503.209    510.240    503.209
123.670    590.381    631.354    -40.973    503.945    624.505    503.945    510.832    503.945
123.770    616.787    628.190    -11.403    504.691    621.501    504.691    511.416    504.691
123.870    604.000    624.795    -20.795    505.447    618.283    505.447    511.993    505.447
123.970    656.000    621.243     34.757    506.214    614.922    506.214    512.566    506.214
124.070    611.000    617.600     -6.600    506.993    611.481    506.993    513.140    506.993
124.170    581.473    613.924    -32.451    507.781    608.014    507.781    513.716    507.781
124.270    631.000    610.264     20.736    508.581    604.569    508.581    514.298    508.581
124.370    660.000    606.660     53.340    509.392    601.183    509.392    514.889    509.392
124.470    607.000    603.143      3.857    510.214    597.884    510.214    515.489    510.214
124.570    589.000    599.734    -10.734    511.047    594.693    511.047    516.102    511.047
124.670    625.000    596.446     28.554    511.891    591.619    511.891    516.730    511.891
124.770    608.000    593.286     14.714    512.746    588.670    512.746    517.372    512.746
124.870    623.373    590.249     33.123    513.613    585.846    513.613    518.025    513.613
124.970    607.000    587.349     19.651    514.491    583.145    514.491    518.702    514.491
