neutron_powder_diffraction_0150
R_wp: 3.878
Temperature (K): 1074.000
Counts: 83796.00
Wavelength (Ã…): 2.52098
COMMENTS
Test file for demonstrating the .xyy file format in Reel1.0
END OF HEADER
   tth       Y_obs     Y_calc      Y_res    Background    Phase_1_Nuc    Phase_1_Mag    Phase_2_Nuc    Phase_2_Mag
  9.970    656.000    581.313     74.687    580.543    581.254    580.543    580.603    580.543
 10.070    591.000    581.239      9.761    580.403    581.179    580.403    580.463    580.403
 10.170    581.000    581.167     -0.167    580.260    581.107    580.260    580.320    580.260
 10.270    622.012    581.102     40.909    580.113    581.042    580.113    580.173    580.113
 10.370    551.000    581.048    -30.048    579.963    580.987    579.963    580.023    579.963
 10.470    594.000    581.006     12.994    579.809    580.945    579.809    579.870    579.809
 10.570    604.000    580.982     23.018    579.652    580.920    579.652    579.713    579.652
 10.670    622.000    580.980     41.020    579.492    580.918    579.492    579.553    579.492
 10.770    610.000    581.007     28.993    579.328    580.944    579.328    579.390    579.328
 10.870    557.152    581.073    -23.920    579.162    581.010    579.162    579.223    579.162
 10.970    558.000    581.191    -23.191    578.992    581.128    578.992    579.054    578.992
 11.070    609.000    581.385     27.615    578.819    581.318    578.819    578.885    578.819
 11.170    591.410    581.678      9.732    578.642    581.608    578.642    578.710    578.642
 11.270    630.628    582.111     48.517    578.463    582.041    578.463    578.531    578.463
 11.370    579.000    582.763     -3.763    578.281    582.692    578.281    578.349    578.281
 11.470    593.000    583.802      9.198    578.095    583.730    578.095    578.164    578.095
 11.570    624.156    585.689     38.467    577.907    585.615    577.907    577.977    577.907
 11.670    603.000    589.656     13.344    577.716    589.579    577.716    577.786    577.716
 11.770    667.000    598.402     68.598    577.522    598.321    577.522    577.592    577.522
 11.870    585.418    616.019    -30.601    577.325    615.927    577.325    577.395    577.325
 11.970    663.000    645.385     17.615    577.125    645.276    577.125    577.196    577.125
 12.070    688.000    682.483      5.517    576.923    682.353    576.923    576.994    576.923
 12.170    692.000    711.317    -19.317    576.718    711.170    576.718    576.789    576.718
 12.270    691.000    712.052    -21.052    576.510    711.903    576.510    576.581    576.510
 12.370    701.062    683.854     17.208    576.299    683.721    576.299    576.371    576.299
 12.470    646.028    646.204     -0.176    576.086    646.092    576.086    576.158    576.086
 12.570    580.051    615.793    -35.742    575.870    615.698    575.870    575.943    575.870
 12.670    576.993    597.185    -20.191    575.652    597.100    575.652    575.725    575.652
 12.770    606.000    587.681     18.319    575.431    587.601    575.431    575.504    575.431
 12.870    607.264    583.145     24.119    575.208    583.067    575.208    575.281    575.208
 12.970    590.000    580.785      9.215    574.982    580.708    574.982    575.056    574.982
 13.070    563.000    579.308    -16.308    574.753    579.231    574.753    574.828    574.753
 13.170    549.000    578.232    -29.232    574.523    578.155    574.523    574.597    574.523
 13.270    581.000    577.380      3.620    574.290    577.304    574.290    574.365    574.290
 13.370    572.000    576.675     -4.675    574.055    576.599    574.055    574.130    574.055
 13.470    575.000    576.073     -1.073    573.817    575.996    573.817    573.893    573.817
 13.570    567.000    575.544     -8.544    573.577    575.467    573.577    573.653    573.577
 13.670    587.311    575.069     12.242    573.335    574.992    573.335    573.411    573.335
 13.770    560.000    574.635    -14.635    573.091    574.557    573.091    573.167    573.091
 13.870    555.000    574.232    -19.232    572.844    574.154    572.844    572.921    572.844
 13.970    577.000    573.853      3.147    572.596    573.774    572.596    572.673    572.596
 14.070    584.000    573.492     10.508    572.345    573.413    572.345    572.423    572.345
 14.170    541.000    573.145    -32.145    572.093    573.067    572.093    572.171    572.093
 14.270    550.000    572.812    -22.812    571.838    572.733    571.838    571.917    571.838
 14.370    594.843    572.491     22.352    571.581    572.411    571.581    571.660    571.581
 14.470    596.000    572.174     23.826    571.323    572.094    571.323    571.402    571.323
 14.570    547.000    571.862    -24.862    571.062    571.781    571.062    571.142    571.062
 14.670    604.000    571.553     32.447    570.800    571.473    570.800    570.880    570.800
 14.770    507.000    571.249    -64.249    570.535    571.168    570.535    570.616    570.535
 14.870    613.000    570.947     42.053    570.269    570.866    570.269    570.350    570.269
 14.970    547.000    570.648    -23.648    570.001    570.566    570.001    570.083    570.001
 15.070    613.000    570.350     42.650    569.731    570.268    569.731    569.813    569.731
 15.170    548.000    570.054    -22.054    569.460    569.971    569.460    569.542    569.460
 15.270    525.799    569.758    -43.960    569.187    569.675    569.187    569.270    569.187
 15.370    534.000    569.463    -35.463    568.912    569.380    568.912    568.995    568.912
 15.470    566.000    569.169     -3.169    568.635    569.085    568.635    568.719    568.635
 15.570    569.000    568.875      0.125    568.357    568.790    568.357    568.442    568.357
 15.670    566.962    568.581     -1.619    568.078    568.496    568.078    568.162    568.078
 15.770    568.000    568.286     -0.286    567.796    568.201    567.796    567.882    567.796
 15.870    579.000    567.992     11.008    567.514    567.906    567.514    567.599    567.514
 15.970    583.000    567.697     15.303    567.229    567.611    567.229    567.316    567.229
 16.070    589.000    567.402     21.598    566.944    567.315    566.944    567.030    566.944
 16.170    558.000    567.106     -9.106    566.656    567.019    566.656    566.744    566.656
 16.270    525.000    566.811    -41.811    566.368    566.723    566.368    566.456    566.368
 16.370    563.172    566.514     -3.342    566.078    566.425    566.078    566.166    566.078
 16.470    542.518    566.217    -23.699    565.787    566.128    565.787    565.875    565.787
 16.570    558.000    565.919     -7.919    565.494    565.829    565.494    565.583    565.494
 16.670    600.491    565.620     34.871    565.200    565.530    565.200    565.290    565.200
 16.770    562.000    565.323     -3.323    564.905    565.230    564.905    564.997    564.905
 16.870    521.592    565.026    -43.434    564.608    564.932    564.608    564.702    564.608
 16.970    559.000    564.726     -5.726    564.311    564.631    564.311    564.405    564.311
 17.070    566.000    564.424      1.576    564.012    564.329    564.012    564.107    564.012
 17.170    587.000    564.122     22.878    563.712    564.026    563.712    563.807    563.712
 17.270    591.532    563.819     27.713    563.411    563.723    563.411    563.507    563.411
 17.370    569.000    563.516      5.484    563.108    563.419    563.108    563.205    563.108
 17.470    525.697    563.211    -37.514    562.805    563.114    562.805    562.902    562.805
 17.570    527.000    562.907    -35.907    562.501    562.808    562.501    562.599    562.501
 17.670    573.000    562.601     10.399    562.195    562.502    562.195    562.294    562.195
 17.770    570.434    562.296      8.138    561.889    562.196    561.889    561.988    561.889
 17.870    568.000    561.990      6.010    561.581    561.890    561.581    561.682    561.581
 17.970    580.953    561.683     19.270    561.273    561.582    561.273    561.374    561.273
 18.070    589.000    561.375     27.625    560.964    561.274    560.964    561.065    560.964
 18.170    558.859    561.067     -2.208    560.654    560.965    560.654    560.756    560.654
 18.270    576.000    560.758     15.242    560.343    560.655    560.343    560.446    560.343
 18.370    558.000    560.448     -2.448    560.031    560.344    560.031    560.135    560.031
 18.470    571.000    560.138     10.862    559.718    560.033    559.718    559.823    559.718
 18.570    594.848    559.827     35.021    559.405    559.722    559.405    559.510    559.405
 18.670    591.419    559.516     31.903    559.091    559.410    559.091    559.197    559.091
 18.770    535.000    559.204    -24.204    558.776    559.097    558.776    558.882    558.776
 18.870    554.000    558.892     -4.892    558.460    558.785    558.460    558.568    558.460
 18.970    528.000    558.580    -30.580    558.144    558.471    558.144    558.252    558.144
 19.070    546.470    558.267    -11.797    557.827    558.158    557.827    557.936    557.827
 19.170    557.000    557.954     -0.954    557.509    557.844    557.509    557.619    557.509
 19.270    536.000    557.642    -21.642    557.191    557.531    557.191    557.302    557.191
 19.370    565.854    557.342      8.512    556.872    557.230    556.872    556.984    556.872
 19.470    580.933    557.039     23.894    556.552    556.926    556.552    556.665    556.552
 19.570    552.000    556.726     -4.726    556.232    556.612    556.232    556.346    556.232
 19.670    555.628    556.412     -0.784    555.912    556.297    555.912    556.026    555.912
 19.770    528.000    556.097    -28.097    555.591    555.982    555.591    555.706    555.591
 19.870    539.404    555.783    -16.379    555.269    555.667    555.269    555.386    555.269
 19.970    543.000    555.469    -12.469    554.947    555.351    554.947    555.065    554.947
 20.070    579.000    555.155     23.845    554.625    555.036    554.625    554.744    554.625
 20.170    561.422    554.841      6.582    554.302    554.721    554.302    554.422    554.302
 20.270    529.000    554.527    -25.527    553.979    554.406    553.979    554.100    553.979
 20.370    591.277    554.213     37.064    553.656    554.091    553.656    553.777    553.656
 20.470    545.000    553.899     -8.899    553.332    553.777    553.332    553.455    553.332
 20.570    584.027    553.586     30.441    553.007    553.462    553.007    553.132    553.007
 20.670    544.754    553.273     -8.519    552.683    553.148    552.683    552.808    552.683
 20.770    589.900    552.961     36.939    552.358    552.835    552.358    552.485    552.358
 20.870    575.680    552.649     23.031    552.033    552.521    552.033    552.161    552.033
 20.970    555.120    552.338      2.782    551.708    552.209    551.708    551.837    551.708
 21.070    522.199    552.035    -29.836    551.382    551.905    551.382    551.513    551.382
 21.170    521.000    551.807    -30.807    551.057    551.676    551.057    551.189    551.057
 21.270    580.594    551.520     29.074    550.731    551.387    550.731    550.864    550.731
 21.370    544.201    551.214     -7.012    550.405    551.079    550.405    550.540    550.405
 21.470    520.301    550.907    -30.607    550.079    550.771    550.079    550.215    550.079
 21.570    513.000    550.603    -37.603    549.753    550.465    549.753    549.890    549.753
 21.670    548.000    550.301     -2.301    549.426    550.162    549.426    549.566    549.426
 21.770    539.000    550.004    -11.004    549.100    549.863    549.100    549.241    549.100
 21.870    562.367    549.704     12.663    548.774    549.562    548.774    548.916    548.774
 21.970    542.000    549.407     -7.407    548.447    549.263    548.447    548.591    548.447
 22.070    567.000    549.113     17.887    548.121    548.967    548.121    548.267    548.121
 22.170    511.153    548.824    -37.672    547.794    548.677    547.794    547.942    547.794
 22.270    534.000    548.538    -14.538    547.468    548.388    547.468    547.618    547.468
 22.370    524.000    548.278    -24.278    547.142    548.126    547.142    547.293    547.142
 22.470    564.000    548.069     15.931    546.815    547.915    546.815    546.969    546.815
 22.570    527.958    547.815    -19.858    546.489    547.660    546.489    546.645    546.489
 22.670    557.000    547.549      9.451    546.163    547.392    546.163    546.321    546.163
 22.770    529.000    547.289    -18.289    545.837    547.129    545.837    545.997    545.837
 22.870    570.000    547.038     22.962    545.512    546.876    545.512    545.674    545.512
 22.970    541.603    546.797     -5.194    545.186    546.633    545.186    545.351    545.186
 23.070    534.000    546.569    -12.569    544.861    546.403    544.861    545.028    544.861
 23.170    530.000    546.358    -16.358    544.535    546.188    544.535    544.705    544.535
 23.270    531.000    546.167    -15.167    544.210    545.995    544.210    544.383    544.210
 23.370    530.000    546.002    -16.002    543.886    545.827    543.886    544.061    543.886
 23.470    506.000    545.869    -39.869    543.561    545.691    543.561    543.740    543.561
 23.570    532.855    545.778    -12.923    543.237    545.598    543.237    543.418    543.237
 23.670    515.000    545.745    -30.745    542.913    545.561    542.913    543.098    542.913
 23.770    528.000    545.790    -17.790    542.589    545.604    542.589    542.777    542.589
 23.870    561.000    545.949     15.051    542.266    545.759    542.266    542.458    542.266
 23.970    575.000    546.284     28.716    541.943    546.091    541.943    542.138    541.943
 24.070    554.000    546.950      7.050    541.621    546.754    541.621    541.820    541.621
 24.170    531.298    548.362    -17.063    541.298    548.163    541.298    541.501    541.298
 24.270    579.000    551.548     27.452    540.977    551.347    540.977    541.184    540.977
 24.370    565.000    558.487      6.513    540.655    558.287    540.655    540.867    540.655
 24.470    588.000    571.693     16.307    540.334    571.498    540.334    540.551    540.334
 24.570    610.000    592.140     17.860    540.014    591.955    540.014    540.235    540.014
 24.670    637.000    615.754     21.246    539.694    615.580    539.694    539.920    539.694
 24.770    651.712    631.181     20.531    539.374    631.013    539.374    539.606    539.374
 24.870    583.765    627.377    -43.612    539.055    627.201    539.055    539.293    539.055
 24.970    575.000    607.334    -32.334    538.737    607.138    538.737    538.980    538.737
 25.070    573.000    583.518    -10.518    538.419    583.298    538.419    538.669    538.419
 25.170    589.226    564.833     24.394    538.101    564.593    538.101    538.358    538.101
 25.270    559.000    553.339      5.661    537.784    553.084    537.784    538.049    537.784
 25.370    528.000    547.295    -19.295    537.468    547.028    537.468    537.740    537.468
 25.470    570.000    544.275     25.725    537.152    543.998    537.152    537.433    537.152
 25.570    557.570    542.626     14.943    536.837    542.339    536.837    537.127    536.837
 25.670    545.000    541.563      3.437    536.522    541.266    536.522    536.822    536.522
 25.770    625.000    540.775     84.225    536.208    540.467    536.208    536.518    536.208
 25.870    533.657    540.149     -6.492    535.895    539.830    535.895    536.216    535.895
 25.970    545.433    539.641      5.792    535.583    539.310    535.583    535.915    535.583
 26.070    567.000    539.229     27.771    535.271    538.885    535.271    535.616    535.271
 26.170    573.000    538.901     34.099    534.959    538.543    534.959    535.318    534.959
 26.270    516.419    538.626    -22.207    534.649    538.252    534.649    535.023    534.649
 26.370    548.702    538.374     10.328    534.339    537.984    534.339    534.729    534.339
 26.470    577.838    538.169     39.668    534.030    537.761    534.030    534.438    534.030
 26.570    493.498    538.015    -44.517    533.722    537.588    533.722    534.149    533.722
 26.670    572.000    537.915     34.085    533.414    537.466    533.414    533.863    533.414
 26.770    515.468    537.876    -22.409    533.107    537.404    533.107    533.579    533.107
 26.870    557.000    537.910     19.090    532.801    537.412    532.801    533.299    532.801
 26.970    508.662    538.043    -29.381    532.496    537.516    532.496    533.023    532.496
 27.070    561.778    538.298     23.480    532.192    537.739    532.192    532.750    532.192
 27.170    539.000    538.673      0.327    531.888    538.079    531.888    532.482    531.888
 27.270    576.000    539.237     36.763    531.585    538.603    531.585    532.219    531.585
 27.370    558.000    540.069     17.931    531.284    539.390    531.284    531.962    531.284
 27.470    535.530    541.306     -5.776    530.983    540.576    530.983    531.711    530.983
 27.570    498.050    543.311    -45.261    530.682    542.523    530.682    531.468    530.682
 27.670    566.000    547.409     18.591    530.383    546.554    530.383    531.235    530.383
 27.770    542.000    558.263    -16.263    530.085    557.329    530.085    531.012    530.085
 27.870    584.000    588.008     -4.008    529.787    586.976    529.787    530.802    529.787
 27.970    672.908    655.988     16.919    529.491    654.832    529.491    530.607    529.491
 28.070    825.000    771.204     53.796    529.195    769.894    529.195    530.431    529.195
 28.170    911.537    900.654     10.883    528.901    899.172    528.901    530.279    528.901
 28.270    908.000    964.369    -56.369    528.607    962.718    528.607    530.156    528.607
 28.370    846.000    910.052    -64.052    528.314    908.230    528.314    530.073    528.314
 28.470    847.554    793.171     54.383    528.023    791.126    528.023    530.042    528.023
 28.570    706.000    703.100      2.900    527.732    700.736    527.732    530.084    527.732
 28.670    702.000    685.736     16.264    527.442    682.928    527.442    530.235    527.442
 28.770    735.783    735.196      0.587    527.154    731.787    527.154    530.542    527.154
 28.870    760.000    808.601    -48.601    526.866    804.374    526.866    531.078    526.866
 28.970    790.571    843.253    -52.683    526.579    837.900    526.579    531.934    526.579
 29.070    784.920    802.484    -17.564    526.294    795.574    526.294    533.215    526.294
 29.170    676.038    718.473    -42.434    526.009    709.473    526.009    535.021    526.009
 29.270    656.000    641.167     14.833    525.726    629.495    525.726    537.406    525.726
 29.370    599.785    593.122      6.664    525.444    578.266    525.444    540.301    525.444
 29.470    558.000    571.207    -13.207    525.162    552.992    525.162    543.376    525.162
 29.570    565.096    563.332      1.764    524.882    542.321    524.882    545.891    524.882
 29.670    556.976    559.963     -2.987    524.603    537.716    524.603    546.848    524.603
 29.770    599.000    556.644     42.356    524.325    535.281    524.325    545.686    524.325
 29.870    508.732    552.484    -43.752    524.048    533.705    524.048    542.826    524.048
 29.970    604.000    548.070     55.930    523.773    532.601    523.773    539.240    523.773
 30.070    537.000    544.080     -7.080    523.498    531.846    523.498    535.730    523.498
 30.170    571.000    540.888     30.112    523.225    531.420    523.225    532.690    523.225
 30.270    516.053    538.713    -22.660    522.953    531.436    522.953    530.227    522.953
 30.370    555.000    537.960     17.040    522.682    532.336    522.682    528.302    522.682
 30.470    537.000    539.728     -2.728    522.412    535.312    522.412    526.822    522.412
 30.570    543.000    546.149     -3.149    522.143    542.599    522.143    525.680    522.143
 30.670    565.000    559.598      5.402    521.876    556.668    521.876    524.782    521.876
 30.770    603.000    579.947     23.053    521.610    577.465    521.610    524.053    521.610
 30.870    597.435    601.088     -3.653    521.345    598.941    521.345    523.439    521.345
 30.970    617.000    610.737      6.263    521.081    608.856    521.081    522.905    521.081
 31.070    572.000    600.810    -28.810    520.818    599.156    520.818    522.426    520.818
 31.170    612.000    578.800     33.200    520.557    577.338    520.557    521.989    520.557
 31.270    620.000    556.984     63.016    520.297    555.681    520.297    521.584    520.297
 31.370    552.000    541.734     10.266    520.038    540.561    520.038    521.203    520.038
 31.470    567.000    533.325     33.675    519.781    532.259    519.781    520.843    519.781
 31.570    551.030    529.336     21.693    519.525    528.360    519.525    520.498    519.525
 31.670    544.000    527.479     16.521    519.270    526.579    519.270    520.168    519.270
 31.770    511.349    526.489    -15.140    519.016    525.655    519.016    519.848    519.016
 31.870    520.000    525.865     -5.865    518.764    525.088    518.764    519.539    518.764
 31.970    555.000    525.433     29.567    518.513    524.706    518.513    519.238    518.513
 32.070    554.000    525.134     28.866    518.263    524.452    518.263    518.944    518.263
 32.170    538.000    524.950     13.050    518.015    524.306    518.015    518.657    518.015
 32.270    546.000    524.872     21.128    517.768    524.263    517.768    518.376    517.768
 32.370    541.000    524.903     16.097    517.522    524.324    517.522    518.100    517.522
 32.470    541.036    525.049     15.986    517.278    524.498    517.278    517.828    517.278
 32.570    509.000    525.329    -16.329    517.034    524.802    517.034    517.560    517.034
 32.670    546.000    525.767     20.233    516.793    525.262    516.793    517.297    516.793
 32.770    553.000    526.402     26.598    516.553    525.917    516.553    517.036    516.553
 32.870    521.014    527.290     -6.276    516.314    526.823    516.314    516.780    516.314
 32.970    549.000    528.511     20.489    516.076    528.060    516.076    516.526    516.076
 33.070    532.000    530.195      1.805    515.840    529.758    515.840    516.275    515.840
 33.170    577.566    532.573     44.992    515.605    532.150    515.605    516.027    515.605
 33.270    548.509    536.187     12.321    515.372    535.775    515.372    515.781    515.372
 33.370    585.000    542.523     42.477    515.140    542.121    515.140    515.538    515.140
 33.470    562.000    555.507      6.493    514.909    555.113    514.909    515.297    514.909
 33.570    618.673    583.678     34.995    514.680    583.287    514.680    515.059    514.680
 33.670    640.658    640.550      0.108    514.452    640.157    514.452    514.822    514.452
 33.770    765.000    738.333     26.667    514.226    737.931    514.226    514.588    514.226
 33.870    856.952    873.026    -16.074    514.001    872.613    514.001    514.356    514.001
 33.970   1043.936   1007.865     36.070    513.777   1007.448    513.777    514.126    513.777
 34.070   1089.000   1073.841     15.159    513.555   1073.438    513.555    513.898    513.555
 34.170   1036.000   1024.342     11.658    513.335   1023.973    513.335    513.672    513.335
 34.270    869.000    895.866    -26.866    513.115    895.527    513.115    513.448    513.115
 34.370    772.000    757.808     14.192    512.898    757.487    512.898    513.226    512.898
 34.470    635.000    652.712    -17.712    512.681    652.397    512.681    513.005    512.681
 34.570    633.105    589.094     44.011    512.467    588.779    512.467    512.787    512.467
 34.670    562.866    556.441      6.425    512.253    556.126    512.253    512.570    512.253
 34.770    522.380    540.966    -18.585    512.041    540.653    512.041    512.355    512.041
 34.870    486.000    533.279    -47.279    511.831    532.968    511.831    512.142    511.831
 34.970    524.780    528.812     -4.032    511.622    528.503    511.622    511.930    511.622
 35.070    522.000    525.763     -3.763    511.415    525.457    511.415    511.720    511.415
 35.170    533.000    523.474      9.526    511.209    523.170    511.209    511.512    511.209
 35.270    485.000    521.672    -36.672    511.004    521.370    511.004    511.306    511.004
 35.370    482.000    520.215    -38.215    510.801    519.915    510.801    511.101    510.801
 35.470    546.383    519.013     27.369    510.600    518.714    510.600    510.898    510.600
 35.570    537.318    518.004     19.315    510.400    517.706    510.400    510.697    510.400
 35.670    545.000    517.143     27.857    510.201    516.847    510.201    510.497    510.201
 35.770    485.354    516.400    -31.045    510.004    516.104    510.004    510.299    510.004
 35.870    535.000    515.750     19.250    509.809    515.456    509.809    510.103    509.809
 35.970    494.000    515.177    -21.177    509.615    514.883    509.615    509.909    509.615
 36.070    547.000    514.668     32.332    509.423    514.374    509.423    509.716    509.423
 36.170    525.000    514.212     10.788    509.232    513.919    509.232    509.525    509.232
 36.270    511.023    513.803     -2.780    509.042    513.510    509.042    509.335    509.042
 36.370    452.000    513.436    -61.436    508.854    513.144    508.854    509.147    508.854
 36.470    516.000    513.108      2.892    508.668    512.816    508.668    508.961    508.668
 36.570    486.253    512.818    -26.565    508.483    512.525    508.483    508.776    508.483
 36.670    532.000    512.568     19.432    508.300    512.275    508.300    508.593    508.300
 36.770    488.352    512.365    -24.013    508.118    512.072    508.118    508.412    508.118
 36.870    504.000    512.233     -8.233    507.938    511.939    507.938    508.232    507.938
 36.970    535.826    512.228     23.598    507.760    511.934    507.760    508.054    507.760
 37.070    516.000    512.480      3.520    507.582    512.185    507.582    507.878    507.582
 37.170    530.000    513.219     16.781    507.407    512.923    507.407    507.703    507.407
 37.270    480.000    514.750    -34.750    507.233    514.454    507.233    507.530    507.233
 37.370    540.000    517.301     22.699    507.060    517.004    507.060    507.359    507.060
 37.470    549.000    520.748     28.252    506.890    520.450    506.890    507.189    506.890
 37.570    525.578    524.316      1.261    506.720    524.019    506.720    507.021    506.720
 37.670    526.000    526.559     -0.559    506.552    526.262    506.552    506.854    506.552
 37.770    481.000    526.277    -45.277    506.386    525.980    506.386    506.689    506.386
 37.870    517.000    523.767     -6.767    506.222    523.471    506.222    506.526    506.222
 37.970    511.000    520.328     -9.328    506.058    520.033    506.058    506.365    506.058
 38.070    497.946    516.982    -19.037    505.897    516.685    505.897    506.205    505.897
 38.170    543.340    514.168     29.172    505.737    513.868    505.737    506.047    505.737
 38.270    529.000    512.032     16.968    505.578    511.728    505.578    505.890    505.578
 38.370    490.000    510.545    -20.545    505.422    510.236    505.422    505.735    505.422
 38.470    511.680    509.562      2.117    505.266    509.249    505.266    505.582    505.266
 38.570    503.000    508.923     -5.923    505.113    508.607    505.113    505.430    505.113
 38.670    472.900    508.494    -35.594    504.960    508.175    504.960    505.280    504.960
 38.770    475.000    508.183    -33.183    504.810    507.861    504.810    505.132    504.810
 38.870    507.000    507.934     -0.934    504.661    507.610    504.661    504.985    504.661
 38.970    473.000    507.721    -34.721    504.513    507.394    504.513    504.840    504.513
 39.070    532.000    507.530     24.470    504.367    507.201    504.367    504.697    504.367
 39.170    508.000    507.355      0.645    504.223    507.023    504.223    504.555    504.223
 39.270    510.000    507.194      2.806    504.080    506.859    504.080    504.416    504.080
 39.370    492.000    507.044    -15.044    503.939    506.706    503.939    504.277    503.939
 39.470    500.000    506.903     -6.903    503.800    506.563    503.800    504.141    503.800
 39.570    529.000    506.772     22.228    503.661    506.428    503.661    504.006    503.661
 39.670    545.840    506.649     39.190    503.525    506.302    503.525    503.872    503.525
 39.770    507.560    506.535      1.025    503.390    506.184    503.390    503.741    503.390
 39.870    532.000    506.429     25.571    503.257    506.075    503.257    503.611    503.257
 39.970    545.000    506.330     38.670    503.125    505.973    503.125    503.483    503.125
 40.070    584.000    506.241     77.759    502.995    505.880    502.995    503.356    502.995
 40.170    518.549    506.160     12.389    502.866    505.795    502.866    503.231    502.866
 40.270    521.372    506.088     15.284    502.739    505.720    502.739    503.108    502.739
 40.370    484.000    506.027    -22.027    502.614    505.654    502.614    502.987    502.614
 40.470    504.000    505.977     -1.977    502.490    505.600    502.490    502.867    502.490
 40.570    482.322    505.940    -23.618    502.367    505.559    502.367    502.749    502.367
 40.670    535.841    505.917     29.924    502.247    505.532    502.247    502.632    502.247
 40.770    491.000    505.911    -14.911    502.127    505.521    502.127    502.518    502.127
 40.870    508.000    505.924      2.076    502.010    505.529    502.010    502.405    502.010
 40.970    480.000    505.960    -25.960    501.894    505.560    501.894    502.294    501.894
 41.070    476.260    506.024    -29.763    501.779    505.619    501.779    502.184    501.779
 41.170    471.496    506.122    -34.626    501.666    505.712    501.666    502.076    501.666
 41.270    515.064    506.262      8.802    501.555    505.847    501.555    501.970    501.555
 41.370    523.532    506.457     17.075    501.445    506.036    501.445    501.866    501.445
 41.470    492.918    506.721    -13.803    501.336    506.296    501.336    501.763    501.336
 41.570    476.000    507.083    -31.083    501.230    506.651    501.230    501.662    501.230
 41.670    497.266    507.588    -10.322    501.124    507.151    501.124    501.563    501.124
 41.770    471.265    508.343    -37.079    501.021    507.900    501.021    501.466    501.021
 41.870    489.000    509.604    -20.604    500.919    509.155    500.919    501.370    500.919
 41.970    467.000    511.949    -44.949    500.818    511.494    500.818    501.277    500.818
 42.070    496.836    516.517    -19.681    500.719    516.057    500.719    501.185    500.719
 42.170    501.000    525.096    -24.096    500.622    524.632    500.622    501.094    500.622
 42.270    505.000    539.691    -34.691    500.526    539.226    500.526    501.006    500.526
 42.370    546.000    561.288    -15.288    500.431    560.827    500.431    500.919    500.431
 42.470    620.327    588.050     32.277    500.339    587.594    500.339    500.835    500.339
 42.570    580.000    613.766    -33.766    500.247    613.316    500.247    500.752    500.247
 42.670    665.944    628.444     37.500    500.157    627.995    500.157    500.671    500.157
 42.770    575.000    624.493    -49.493    500.069    624.037    500.069    500.591    500.069
 42.870    567.000    604.220    -37.220    499.982    603.746    499.982    500.514    499.982
 42.970    573.000    577.109     -4.109    499.897    576.611    499.897    500.439    499.897
 43.070    533.000    551.884    -18.884    499.814    551.362    499.814    500.365    499.814
 43.170    519.000    532.929    -13.929    499.731    532.385    499.731    500.293    499.731
 43.270    506.000    520.776    -14.776    499.651    520.214    499.651    500.224    499.651
 43.370    517.096    513.874      3.222    499.572    513.296    499.572    500.156    499.572
 43.470    517.811    510.225      7.587    499.494    509.632    499.494    500.090    499.494
 43.570    536.000    508.291     27.709    499.418    507.685    499.418    500.027    499.418
 43.670    498.173    507.176     -9.004    499.343    506.557    499.343    499.965    499.343
 43.770    490.000    506.450    -16.450    499.270    505.816    499.270    499.905    499.270
 43.870    489.000    505.926    -16.926    499.199    505.278    499.199    499.848    499.199
 43.970    486.797    505.527    -18.730    499.128    504.864    499.128    499.793    499.128
 44.070    471.627    505.215    -33.588    499.060    504.536    499.060    499.740    499.060
 44.170    522.629    504.969     17.660    498.993    504.274    498.993    499.689    498.993
 44.270    522.000    504.776     17.224    498.927    504.063    498.927    499.640    498.927
 44.370    494.641    504.624     -9.983    498.863    503.893    498.863    499.594    498.863
 44.470    485.574    504.506    -18.933    498.800    503.756    498.800    499.550    498.800
 44.570    510.000    504.418      5.582    498.739    503.649    498.739    499.509    498.739
 44.670    515.585    504.356     11.229    498.679    503.565    498.679    499.470    498.679
 44.770    512.000    504.316      7.684    498.621    503.503    498.621    499.434    498.621
 44.870    483.397    504.297    -20.900    498.564    503.460    498.564    499.401    498.564
 44.970    529.036    504.296     24.739    498.509    503.435    498.509    499.370    498.509
 45.070    524.631    504.314     20.317    498.455    503.426    498.455    499.343    498.455
 45.170    530.000    504.349     25.651    498.402    503.433    498.402    499.318    498.402
 45.270    468.000    504.401    -36.401    498.352    503.456    498.352    499.296    498.352
 45.370    490.000    504.470    -14.470    498.302    503.493    498.302    499.278    498.302
 45.470    499.000    504.556     -5.556    498.254    503.546    498.254    499.264    498.254
 45.570    508.000    504.661      3.339    498.207    503.615    498.207    499.253    498.207
 45.670    488.000    504.785    -16.785    498.162    503.701    498.162    499.246    498.162
 45.770    522.000    504.930     17.070    498.118    503.804    498.118    499.243    498.118
 45.870    535.000    505.097     29.903    498.076    503.928    498.076    499.245    498.076
 45.970    503.000    505.289     -2.289    498.035    504.072    498.035    499.251    498.035
 46.070    493.000    505.509    -12.509    497.995    504.241    497.995    499.263    497.995
 46.170    493.270    505.760    -12.489    497.957    504.436    497.957    499.280    497.957
 46.270    476.577    506.047    -29.470    497.920    504.664    497.920    499.303    497.920
 46.370    528.000    506.376     21.624    497.885    504.928    497.885    499.332    497.885
 46.470    490.190    506.755    -16.566    497.851    505.236    497.851    499.369    497.851
 46.570    477.260    507.196    -29.936    497.818    505.599    497.818    499.413    497.818
 46.670    510.000    507.714      2.286    497.787    506.033    497.787    499.467    497.787
 46.770    482.652    508.338    -25.686    497.757    506.564    497.757    499.530    497.757
 46.870    472.381    509.128    -36.748    497.729    507.251    497.729    499.604    497.729
 46.970    519.000    510.217      8.783    497.702    508.227    497.702    499.690    497.702
 47.070    514.000    511.886      2.114    497.676    509.768    497.676    499.790    497.676
 47.170    502.000    514.666    -12.666    497.652    512.406    497.652    499.906    497.652
 47.270    514.000    519.399     -5.399    497.629    516.979    497.629    500.040    497.629
 47.370    530.000    527.112      2.888    497.607    524.509    497.607    500.195    497.607
 47.470    559.000    538.622     20.378    497.587    535.811    497.587    500.375    497.587
 47.570    543.000    553.779    -10.779    497.568    550.729    497.568    500.584    497.568
 47.670    543.000    570.744    -27.744    497.550    567.422    497.550    500.826    497.550
 47.770    576.000    585.567     -9.567    497.534    581.936    497.534    501.110    497.534
 47.870    580.000    593.020    -13.020    497.519    589.036    497.519    501.444    497.519
 47.970    559.000    590.022    -31.022    497.505    585.631    497.505    501.842    497.505
 48.070    578.000    578.674     -0.674    497.493    573.803    497.493    502.321    497.493
 48.170    529.040    564.085    -35.045    497.482    558.625    497.482    502.910    497.482
 48.270    566.000    550.697     15.303    497.472    544.497    497.472    503.650    497.472
 48.370    521.000    540.956    -19.956    497.464    533.797    497.464    504.608    497.464
 48.470    494.000    535.503    -41.503    497.457    527.070    497.457    505.881    497.457
 48.570    510.000    533.895    -23.895    497.451    523.734    497.451    507.606    497.451
 48.670    594.000    535.357     58.643    497.446    522.832    497.446    509.966    497.446
 48.770    515.000    539.291    -24.291    497.443    523.543    497.443    513.186    497.443
 48.870    518.000    545.441    -27.441    497.441    525.370    497.441    517.508    497.441
 48.970    571.000    553.853     17.147    497.440    528.143    497.440    523.145    497.440
 49.070    567.000    564.788      2.212    497.440    532.005    497.440    530.218    497.440
 49.170    568.000    578.794    -10.794    497.442    537.581    497.442    538.647    497.442
 49.270    615.000    597.208     17.792    497.445    546.638    497.445    548.005    497.445
 49.370    638.498    623.537     14.961    497.449    563.661    497.449    557.309    497.449
 49.470    699.000    666.141     32.859    497.455    598.655    497.455    564.914    497.455
 49.570    665.000    741.790    -76.790    497.461    670.345    497.461    568.858    497.461
 49.670    933.000    877.088     55.912    497.469    806.588    497.469    567.887    497.469
 49.770   1184.000   1101.740     82.260    497.478   1036.741    497.478    562.350    497.478
 49.870   1504.000   1429.585     74.415    497.488   1372.986    497.488    553.918    497.488
 49.970   1796.918   1833.188    -36.271    497.500   1786.007    497.500    544.494    497.500
 50.070   2202.000   2228.422    -26.422    497.512   2190.317    497.512    535.464    497.512
 50.170   2566.980   2488.849     78.131    497.526   2458.741    497.526    527.574    497.526
 50.270   2604.653   2506.342     98.311    497.541   2482.846    497.541    521.097    497.541
 50.370   2297.000   2270.453     26.547    497.557   2252.139    497.557    516.025    497.557
 50.470   1783.000   1878.628    -95.628    497.574   1864.199    497.574    512.192    497.574
 50.570   1468.000   1461.623      6.377    497.593   1450.022    497.593    509.368    497.593
 50.670    994.000   1114.461   -120.461    497.612   1104.895    497.612    507.313    497.612
 50.770    839.928    875.063    -35.135    497.633    866.971    497.633    505.819    497.633
 50.870    738.966    735.289      3.677    497.655    728.287    497.655    504.720    497.655
 50.970    693.000    664.742     28.258    497.678    658.572    497.678    503.894    497.678
 51.070    642.000    631.466     10.534    497.702    625.948    497.702    503.258    497.702
 51.170    636.828    612.704     24.125    497.727    607.708    497.727    502.756    497.727
 51.270    603.115    597.157      5.958    497.753    592.586    497.753    502.353    497.753
 51.370    584.010    581.930      2.080    497.781    577.711    497.781    502.023    497.781
 51.470    532.106    567.787    -35.681    497.809    563.861    497.809    501.752    497.809
 51.570    595.280    555.974     39.306    497.839    552.296    497.839    501.528    497.839
 51.670    578.000    547.120     30.880    497.870    543.655    497.870    501.343    497.870
 51.770    567.000    541.159     25.841    497.901    537.875    497.901    501.190    497.901
 51.870    610.000    537.587     72.413    497.934    534.459    497.934    501.065    497.934
 51.970    530.454    535.791     -5.337    497.968    532.798    497.968    500.964    497.968
 52.070    557.550    535.275     22.275    498.003    532.396    498.003    500.883    498.003
 52.170    558.000    535.755     22.245    498.039    532.974    498.039    500.821    498.039
 52.270    548.418    537.186     11.232    498.076    534.489    498.076    500.774    498.076
 52.370    520.125    539.811    -19.686    498.114    537.184    498.114    500.741    498.114
 52.470    566.000    544.328     21.672    498.153    541.760    498.153    500.722    498.153
 52.570    550.000    552.255     -2.255    498.193    549.734    498.193    500.713    498.193
 52.670    582.000    566.443     15.557    498.234    563.960    498.234    500.715    498.234
 52.770    637.000    591.534     45.466    498.276    589.081    498.276    500.727    498.276
 52.870    604.852    633.821    -28.968    498.319    631.388    498.319    500.747    498.319
 52.970    729.947    699.846     30.102    498.363    697.426    498.363    500.776    498.363
 53.070    770.849    793.417    -22.568    498.407    791.004    498.407    500.813    498.407
 53.170    904.000    911.558     -7.558    498.453    909.147    498.453    500.858    498.453
 53.270   1082.000   1040.711     41.289    498.500   1038.299    498.500    500.909    498.500
 53.370   1119.489   1155.021    -35.532    498.548   1152.605    498.548    500.968    498.548
 53.470   1272.000   1220.960     51.040    498.597   1218.540    498.597    501.034    498.597
 53.570   1164.276   1214.046    -49.769    498.646   1211.615    498.646    501.106    498.646
 53.670   1105.000   1137.353    -32.353    498.697   1134.901    498.697    501.185    498.697
 53.770    976.000   1018.683    -42.683    498.748   1016.198    498.748    501.270    498.748
 53.870    867.000    890.784    -23.784    498.801    888.254    498.801    501.363    498.801
 53.970    703.000    777.248    -74.248    498.854    774.665    498.854    501.462    498.854
 54.070    717.000    689.466     27.534    498.908    686.824    498.908    501.568    498.908
 54.170    695.000    628.869     66.131    498.963    626.163    498.963    501.681    498.963
 54.270    628.054    590.885     37.169    499.019    588.109    499.019    501.802    499.019
 54.370    611.000    568.867     42.133    499.076    566.016    499.076    501.931    499.076
 54.470    575.000    556.785     18.215    499.134    553.854    499.134    502.068    499.134
 54.570    572.000    550.348     21.652    499.192    547.330    499.192    502.213    499.192
 54.670    542.000    546.982     -4.982    499.252    543.868    499.252    502.367    499.252
 54.770    576.000    545.338     30.662    499.312    542.119    499.312    502.531    499.312
 54.870    564.000    544.779     19.221    499.373    541.448    499.373    502.706    499.373
 54.970    539.000    545.033     -6.033    499.435    541.577    499.435    502.891    499.435
 55.070    579.000    545.994     33.006    499.497    542.404    499.497    503.088    499.497
 55.170    575.000    547.644     27.356    499.561    543.907    499.561    503.299    499.561
 55.270    574.690    550.020     24.671    499.625    546.122    499.625    503.523    499.625
 55.370    578.000    553.209     24.791    499.690    549.137    499.690    503.763    499.690
 55.470    538.214    557.382    -19.168    499.756    553.119    499.756    504.020    499.756
 55.570    560.327    562.869     -2.542    499.822    558.396    499.822    504.295    499.822
 55.670    615.000    570.362     44.638    499.890    565.661    499.890    504.591    499.890
 55.770    593.524    581.368     12.156    499.958    576.415    499.958    504.910    499.958
 55.870    555.823    599.057    -43.235    500.026    593.826    500.026    505.255    500.026
 55.970    601.000    629.597    -28.597    500.096    624.059    500.096    505.628    500.096
 56.070    684.000    683.660      0.340    500.166    677.779    500.166    506.034    500.166
 56.170    766.642    777.128    -10.486    500.237    770.864    500.237    506.476    500.237
 56.270    951.852    929.321     22.532    500.309    922.630    500.309    506.960    500.309
 56.370   1133.901   1157.174    -23.273    500.381   1150.008    500.381    507.491    500.381
 56.470   1473.000   1465.416      7.584    500.454   1457.726    500.454    508.077    500.454
 56.570   1836.000   1835.508      0.492    500.528   1827.245    500.528    508.725    500.528
 56.670   2232.000   2217.847     14.153    500.602   2208.963    500.602    509.446    500.602
 56.770   2467.000   2532.462    -65.462    500.677   2522.902    500.677    510.253    500.677
 56.870   2629.469   2688.646    -59.177    500.753   2678.336    500.753    511.160    500.753
 56.970   2556.000   2632.213    -76.213    500.830   2621.037    500.830    512.187    500.830
 57.070   2366.215   2385.244    -19.029    500.907   2373.026    500.907    513.361    500.907
 57.170   2022.586   2027.797     -5.211    500.984   2014.311    500.984    514.719    500.984
 57.270   1593.215   1648.189    -54.974    501.062   1633.164    501.062    516.312    501.062
 57.370   1317.508   1311.096      6.412    501.141   1294.197    501.141    518.219    501.141
 57.470   1006.000   1049.306    -43.306    501.221   1030.098    501.221    520.558    501.221
 57.570    908.000    868.179     39.821    501.301    846.060    501.301    523.504    501.301
 57.670    810.000    755.845     54.155    501.381    729.963    501.381    527.313    501.381
 57.770    664.727    694.225    -29.498    501.462    663.376    501.462    532.337    501.462
 57.870    620.584    667.073    -46.489    501.544    629.583    501.544    539.045    501.544
 57.970    620.974    663.733    -42.758    501.627    617.354    501.627    548.004    501.627
 58.070    647.081    679.464    -32.382    501.709    621.309    501.709    559.853    501.709
 58.170    727.000    713.869     13.131    501.793    640.424    501.793    575.216    501.793
 58.270    758.066    768.596    -10.530    501.877    675.847    501.877    594.592    501.877
 58.370    845.627    845.022      0.605    501.961    728.741    501.961    618.197    501.961
 58.470    893.000    942.062    -49.062    502.046    798.295    502.046    645.757    502.046
 58.570   1062.000   1054.604      7.396    502.132    880.439    502.132    676.236    502.132
 58.670   1197.038   1172.875     24.163    502.217    967.572    502.217    707.463    502.217
 58.770   1333.000   1283.769     49.231    502.304   1050.244    502.304    735.780    502.304
 58.870   1423.877   1373.905     49.972    502.391   1120.027    502.391    756.237    502.391
 58.970   1430.000   1431.746     -1.746    502.478   1170.156    502.478    764.055    502.478
 59.070   1442.000   1448.666     -6.666    502.566   1194.114    502.566    757.124    502.566
 59.170   1423.632   1422.481      1.150    502.654   1187.775    502.654    737.381    502.654
 59.270   1337.866   1361.557    -23.691    502.743   1154.794    502.743    709.530    502.743
 59.370   1338.834   1282.963     55.871    502.832   1107.258    502.832    678.550    502.832
 59.470   1236.000   1205.638     30.362    502.921   1060.380    502.921    648.168    502.921
 59.570   1176.080   1146.320     29.759    503.011   1028.662    503.011    620.624    503.011
 59.670   1177.000   1119.666     57.334    503.102   1025.676    503.102    597.002    503.102
 59.770   1172.000   1137.051     34.949    503.193   1062.494    503.193    577.607    503.193
 59.870   1229.000   1201.707     27.293    503.284   1142.547    503.284    562.245    503.284
 59.970   1359.000   1304.038     54.962    503.375   1256.732    503.375    550.429    503.375
 60.070   1426.703   1420.305      6.398    503.467   1381.945    503.467    541.536    503.467
 60.170   1596.000   1515.502     80.498    503.559   1483.828    503.559    534.930    503.559
 60.270   1575.000   1552.792     22.208    503.652   1526.125    503.652    530.037    503.652
 60.370   1543.000   1510.842     32.158    503.745   1487.970    503.745    526.390    503.745
 60.470   1378.000   1396.688    -18.688    503.838   1376.734    503.838    523.630    503.838
 60.570   1177.644   1239.045    -61.401    503.931   1221.373    503.931    521.503    503.931
 60.670   1113.000   1071.275     41.725    504.025   1055.412    504.025    519.834    504.025
 60.770    919.000    919.580     -0.580    504.119    905.165    504.119    518.509    504.119
 60.870    758.000    798.852    -40.852    504.214    785.599    504.214    517.456    504.214
 60.970    673.578    713.371    -39.793    504.308    701.044    504.308    516.629    504.308
 61.070    683.000    660.291     22.709    504.403    648.690    504.403    515.997    504.403
 61.170    611.290    634.103    -22.813    504.499    623.052    504.499    515.537    504.499
 61.270    653.000    630.390     22.610    504.594    619.733    504.594    515.230    504.594
 61.370    665.473    647.904     17.569    504.690    637.504    504.690    515.056    504.690
 61.470    709.000    688.736     20.264    504.786    678.484    504.786    514.986    504.786
 61.570    724.782    756.750    -31.968    504.882    746.573    504.882    514.983    504.882
 61.670    887.000    854.657     32.343    504.978    844.536    504.978    514.994    504.978
 61.770    930.146    980.461    -50.314    505.075    970.445    505.075    514.952    505.075
 61.870   1083.000   1124.351    -41.351    505.172   1114.559    505.172    514.796    505.172
 61.970   1216.000   1267.210    -51.210    505.269   1257.799    505.269    514.493    505.269
 62.070   1359.000   1381.939    -22.939    505.366   1373.066    505.366    514.053    505.366
 62.170   1399.000   1439.948    -40.948    505.463   1431.727    505.463    513.521    505.463
 62.270   1333.000   1423.964    -90.964    505.561   1416.448    505.561    512.955    505.561
 62.370   1335.743   1338.669     -2.925    505.658   1331.850    505.658    512.401    505.658
 62.470   1139.000   1207.381    -68.381    505.756   1201.210    505.756    511.891    505.756
 62.570   1085.903   1059.102     26.801    505.854   1053.505    505.854    511.442    505.854
 62.670    853.000    918.099    -65.099    505.952    912.998    505.952    511.059    505.952
 62.770    735.000    799.657    -64.657    506.050    794.975    506.050    510.744    506.050
 62.870    684.000    709.878    -25.878    506.148    705.547    506.148    510.490    506.148
 62.970    686.167    647.727     38.440    506.246    643.689    506.246    510.290    506.246
 63.070    577.258    608.087    -30.829    506.345    604.297    506.345    510.138    506.345
 63.170    601.000    584.653     16.347    506.443    581.073    506.443    510.023    506.443
 63.270    569.000    571.895     -2.895    506.542    568.495    506.542    509.939    506.542
 63.370    526.477    565.942    -39.465    506.640    562.698    506.640    509.879    506.640
 63.470    555.000    564.715     -9.715    506.739    561.609    506.739    509.838    506.739
 63.570    559.356    567.711     -8.356    506.838    564.726    506.838    509.813    506.838
 63.670    543.069    575.724    -32.654    506.936    572.845    506.936    509.800    506.936
 63.770    665.000    590.561     74.439    507.035    587.776    507.035    509.798    507.035
 63.870    696.000    614.662     81.338    507.134    611.960    507.134    509.805    507.134
 63.970    680.000    650.472     29.528    507.233    647.839    507.233    509.819    507.233
 64.070    743.081    699.518     43.563    507.331    696.945    507.331    509.840    507.331
 64.170    750.426    761.318    -10.892    507.430    758.796    507.430    509.868    507.430
 64.270    861.000    832.348     28.652    507.529    829.870    507.529    509.900    507.529
 64.370    849.629    905.398    -55.769    507.627    902.963    507.627    509.938    507.627
 64.470   1007.000    969.819     37.181    507.726    967.430    507.726    509.981    507.726
 64.570   1045.000   1013.763     31.237    507.824   1011.428    507.824    510.027    507.824
 64.670   1010.000   1028.751    -18.751    507.923   1026.478    507.923    510.078    507.923
 64.770    964.533   1013.413    -48.879    508.021   1011.208    508.021    510.132    508.021
 64.870    989.000    973.074     15.926    508.119    970.938    508.119    510.189    508.119
 64.970    940.000    916.881     23.119    508.218    914.812    508.218    510.250    508.218
 65.070    871.836    854.805     17.030    508.316    852.794    508.316    510.314    508.316
 65.170    758.000    794.972    -36.972    508.414    793.011    508.414    510.380    508.414
 65.270    679.000    742.142    -63.142    508.512    740.223    508.512    510.449    508.512
 65.370    656.000    697.907    -41.907    508.609    696.020    508.609    510.521    508.609
 65.470    625.878    661.989    -36.110    508.707    660.126    508.707    510.595    508.707
 65.570    625.602    633.487     -7.885    508.804    631.643    508.804    510.671    508.804
 65.670    652.888    611.390     41.498    508.902    609.560    508.902    510.749    508.902
 65.770    551.075    594.675    -43.600    508.999    592.856    508.999    510.829    508.999
 65.870    582.535    582.383      0.152    509.096    580.575    509.096    510.912    509.096
 65.970    545.000    573.695    -28.695    509.192    571.895    509.192    510.996    509.192
 66.070    609.000    567.940     41.060    509.289    566.147    509.289    511.083    509.289
 66.170    537.790    564.571    -26.781    509.385    562.785    509.385    511.171    509.385
 66.270    550.000    563.152    -13.152    509.481    561.372    509.481    511.261    509.481
 66.370    545.827    563.362    -17.535    509.577    561.586    509.577    511.353    509.577
 66.470    565.120    565.028      0.092    509.673    563.255    509.673    511.446    509.673
 66.570    523.000    568.201    -45.201    509.768    566.428    509.768    511.542    509.768
 66.670    577.000    573.271      3.729    509.864    571.496    509.864    511.639    509.864
 66.770    615.000    581.191     33.809    509.959    579.412    509.959    511.738    509.959
 66.870    567.000    593.819    -26.819    510.053    592.033    510.053    511.839    510.053
 66.970    599.800    614.395    -14.595    510.148    612.599    510.148    511.941    510.148
 67.070    658.000    648.038      9.962    510.242    646.229    510.242    512.046    510.242
 67.170    719.078    702.018     17.060    510.336    700.191    510.336    512.152    510.336
 67.270    808.000    785.431     22.569    510.429    783.584    510.429    512.261    510.429
 67.370    899.000    907.858     -8.858    510.522    905.989    510.522    512.372    510.522
 67.470   1132.745   1076.805     55.941    510.615   1074.913    510.615    512.484    510.615
 67.570   1248.808   1294.177    -45.368    510.708   1292.267    510.708    512.599    510.708
 67.670   1581.000   1552.596     28.404    510.800   1550.677    510.800    512.717    510.800
 67.770   1794.000   1832.649    -38.649    510.892   1830.733    510.892    512.837    510.892
 67.870   2161.879   2102.112     59.767    510.983   2100.212    510.983    512.960    510.983
 67.970   2317.000   2318.577     -1.577    511.074   2316.705    511.074    513.085    511.074
 68.070   2380.735   2438.387    -57.652    511.165   2436.548    511.165    513.214    511.165
 68.170   2359.555   2433.037    -73.481    511.256   2431.221    511.256    513.345    511.256
 68.270   2346.000   2303.977     42.023    511.346   2302.155    511.346    513.481    511.346
 68.370   2150.000   2081.720     68.280    511.435   2079.856    511.435    513.620    511.435
 68.470   1800.480   1810.301     -9.820    511.524   1808.362    511.524    513.763    511.524
 68.570   1630.000   1531.455     98.545    511.613   1529.418    511.613    513.910    511.613
 68.670   1256.000   1276.356    -20.356    511.701   1274.206    511.701    514.062    511.701
 68.770   1107.930   1063.337     44.593    511.789   1061.067    511.789    514.220    511.789
 68.870    916.000    898.870     17.130    511.877    896.479    511.877    514.383    511.877
 68.970    784.926    780.435      4.491    511.964    777.925    511.964    514.553    511.964
 69.070    729.806    700.233     29.572    512.050    697.607    512.050    514.729    512.050
 69.170    668.560    648.649     19.912    512.136    645.905    512.136    514.913    512.136
 69.270    611.000    616.703     -5.703    512.222    613.841    512.222    515.106    512.222
 69.370    593.000    597.295     -4.295    512.307    594.309    512.307    515.308    512.307
 69.470    585.000    585.459     -0.459    512.392    582.340    512.392    515.520    512.392
 69.570    569.000    578.051     -9.051    512.476    574.790    512.476    515.744    512.476
 69.670    591.000    573.240     17.760    512.560    569.823    512.560    515.981    512.560
 69.770    602.000    570.028     31.972    512.643    566.441    512.643    516.233    512.643
 69.870    575.000    567.901      7.099    512.725    564.127    512.725    516.501    512.725
 69.970    584.000    566.602     17.398    512.807    562.622    512.807    516.788    512.807
 70.070    603.000    566.015     36.985    512.889    561.808    512.889    517.096    512.889
 70.170    584.902    566.105     18.797    512.970    561.646    512.970    517.429    512.970
 70.270    596.988    566.907     30.081    513.050    562.166    513.050    517.789    513.050
 70.370    584.000    568.544     15.456    513.130    563.490    513.130    518.181    513.130
 70.470    582.000    571.288     10.712    513.209    565.883    513.209    518.611    513.209
 70.570    578.000    575.665      2.335    513.288    569.863    513.288    519.084    513.288
 70.670    622.000    582.626     39.374    513.366    576.373    513.366    519.610    513.366
 70.770    593.077    593.773     -0.696    513.443    587.003    513.443    520.200    513.443
 70.870    592.000    611.628    -19.628    513.520    604.257    513.520    520.871    513.520
 70.970    606.000    639.834    -33.834    513.596    631.753    513.596    521.647    513.596
 71.070    641.000    683.157    -42.157    513.672    674.219    513.672    522.565    513.672
 71.170    754.000    747.124      6.876    513.747    737.127    513.747    523.680    513.747
 71.270    830.000    837.091     -7.091    513.821    825.751    513.821    525.071    513.821
 71.370    898.834    956.778    -57.944    513.895    943.694    513.895    526.858    513.895
 71.470   1074.000   1106.443    -32.443    513.968   1091.055    513.968    529.204    513.968
 71.570   1253.000   1281.105    -28.105    514.040   1262.635    514.040    532.327    514.040
 71.670   1511.000   1469.294     41.706    514.112   1446.695    514.112    536.502    514.112
 71.770   1653.000   1652.771      0.229    514.183   1624.677    514.183    542.054    514.183
 71.870   1803.000   1807.782     -4.782    514.253   1772.483    514.253    549.333    514.253
 71.970   1934.458   1909.123     25.335    514.322   1864.578    514.322    558.670    514.322
 72.070   2019.230   1937.969     81.262    514.391   1881.875    514.391    570.323    514.391
 72.170   1850.704   1890.421    -39.717    514.459   1820.358    514.459    584.400    514.459
 72.270   1789.000   1779.654      9.346    514.527   1693.317    514.527    600.780    514.527
 72.370   1600.000   1629.229    -29.229    514.594   1524.749    514.594    619.021    514.594
 72.470   1458.000   1463.852     -5.852    514.660   1340.209    514.660    638.273    514.660
 72.570   1267.989   1303.430    -35.441    514.725   1160.953    514.725    657.185    514.725
 72.670   1149.000   1160.774    -11.774    514.789   1001.681    514.789    673.873    514.789
 72.770    996.532   1041.525    -44.993    514.853    870.277    514.853    686.094    514.853
 72.870    920.241    945.587    -25.346    514.916    768.711    514.916    691.785    514.916
 72.970    845.000    869.538    -24.538    514.978    694.653    514.978    689.856    514.978
 73.070    721.000    809.025    -88.025    515.040    643.343    515.040    680.713    515.040
 73.170    808.629    760.226     48.404    515.100    609.269    515.100    666.049    515.100
 73.270    756.049    720.279     35.770    515.160    587.336    515.160    648.097    515.160
 73.370    725.228    687.200     38.028    515.219    573.467    515.219    628.947    515.219
 73.470    632.000    659.691    -27.691    515.277    564.755    515.277    610.209    515.277
 73.570    650.000    636.953     13.047    515.335    559.317    515.335    592.970    515.335
 73.670    594.000    618.505    -24.505    515.392    556.040    515.392    577.858    515.392
 73.770    546.000    604.009    -58.009    515.447    554.319    515.447    565.142    515.447
 73.870    591.000    593.144     -2.144    515.502    553.838    515.502    554.816    515.502
 73.970    572.000    585.525    -13.525    515.556    554.408    515.556    546.686    515.556
 74.070    596.000    580.677     15.323    515.610    555.855    515.610    540.450    515.610
 74.170    603.978    578.022     25.956    515.662    557.950    515.662    535.758    515.662
 74.270    565.350    576.903    -11.553    515.713    560.374    515.713    532.273    515.713
 74.370    545.288    576.598    -31.310    515.764    562.706    515.764    529.692    515.764
 74.470    579.568    576.373      3.196    515.814    564.458    515.814    527.770    515.814
 74.570    599.791    575.576     24.216    515.863    565.166    515.863    526.317    515.863
 74.670    582.840    573.776      9.065    515.911    564.537    515.911    525.194    515.911
 74.770    624.000    570.888     53.112    515.958    562.584    515.958    524.304    515.958
 74.870    563.467    567.165     -3.698    516.004    559.628    516.004    523.580    516.004
 74.970    624.000    563.064     60.936    516.049    556.169    516.049    522.976    516.049
 75.070    586.000    559.104     26.896    516.094    552.760    516.094    522.464    516.094
 75.170    568.000    555.800     12.200    516.137    549.933    516.137    522.024    516.137
 75.270    572.000    553.640     18.360    516.180    548.192    516.180    521.640    516.180
 75.370    568.875    553.108     15.766    516.221    548.032    516.221    521.305    516.221
 75.470    565.000    554.707     10.293    516.262    549.961    516.262    521.008    516.262
 75.570    518.150    558.957    -40.807    516.301    554.507    516.301    520.746    516.301
 75.670    589.907    566.373     23.534    516.340    562.188    516.340    520.514    516.340
 75.770    606.000    577.377     28.623    516.378    573.430    516.378    520.306    516.378
 75.870    607.905    592.165     15.740    516.415    588.434    516.415    520.121    516.415
 75.970    564.403    610.548    -46.145    516.451    607.010    516.451    519.955    516.451
 76.070    635.000    631.794      3.206    516.485    628.430    516.485    519.806    516.485
 76.170    669.181    654.528     14.654    516.519    651.323    516.519    519.671    516.519
 76.270    681.000    676.709      4.291    516.552    673.651    516.552    519.550    516.552
 76.370    714.153    695.736     18.417    516.584    692.814    516.584    519.441    516.584
 76.470    753.000    708.772     44.228    516.615    705.978    516.615    519.342    516.615
 76.570    674.000    713.448    -39.448    516.645    710.776    516.645    519.252    516.645
 76.670    689.850    708.777    -18.927    516.674    706.222    516.674    519.170    516.674
 76.770    697.000    695.628      1.372    516.701    693.183    516.701    519.096    516.701
 76.870    687.074    676.295     10.779    516.728    673.954    516.728    519.028    516.728
 76.970    657.000    653.590      3.410    516.754    651.346    516.754    518.966    516.754
 77.070    644.619    630.121     14.497    516.779    627.968    516.779    518.909    516.779
 77.170    578.000    607.939    -29.939    516.802    605.868    516.802    518.857    516.802
 77.270    587.000    588.414     -1.414    516.825    586.420    516.825    518.808    516.825
 77.370    549.985    572.253    -22.268    516.847    570.328    516.847    518.764    516.847
 77.470    587.738    559.592     28.146    516.867    557.732    516.867    518.723    516.867
 77.570    581.000    550.152     30.848    516.887    548.351    516.887    518.684    516.887
 77.670    576.675    543.416     33.259    516.905    541.670    516.905    518.649    516.905
 77.770    562.000    538.781     23.219    516.922    537.086    516.922    518.616    516.922
 77.870    494.000    535.678    -41.678    516.939    534.030    516.939    518.584    516.939
 77.970    514.000    533.628    -19.628    516.954    532.026    516.954    518.555    516.954
 78.070    542.625    532.258     10.367    516.968    530.697    516.968    518.528    516.968
 78.170    533.000    531.330      1.670    516.981    529.808    516.981    518.502    516.981
 78.270    485.000    530.712    -45.712    516.993    529.226    516.993    518.477    516.993
 78.370    502.781    530.285    -27.503    517.003    528.833    517.003    518.454    517.003
 78.470    551.059    529.994     21.065    517.013    528.574    517.013    518.432    517.013
 78.570    539.695    529.816      9.879    517.022    528.425    517.022    518.411    517.022
 78.670    519.000    529.744    -10.744    517.029    528.381    517.029    518.392    517.029
 78.770    534.648    529.786      4.862    517.035    528.448    517.035    518.373    517.035
 78.870    488.000    529.960    -41.960    517.041    528.643    517.041    518.356    517.041
 78.970    546.870    530.286     16.584    517.045    528.989    517.045    518.340    517.045
 79.070    537.000    530.797      6.203    517.048    529.516    517.048    518.326    517.048
 79.170    505.994    531.521    -25.527    517.049    530.253    517.049    518.315    517.049
 79.270    520.000    532.486    -12.486    517.050    531.228    517.050    518.305    517.050
 79.370    543.131    533.718      9.412    517.049    532.466    517.049    518.299    517.049
 79.470    496.217    535.247    -39.030    517.048    533.995    517.048    518.296    517.048
 79.570    513.000    537.107    -24.107    517.045    535.850    517.045    518.298    517.045
 79.670    518.256    539.354    -21.098    517.041    538.086    517.041    518.303    517.041
 79.770    510.301    542.079    -31.778    517.036    540.796    517.036    518.313    517.036
 79.870    563.000    545.430     17.570    517.030    544.126    517.030    518.328    517.030
 79.970    506.520    549.637    -43.117    517.022    548.307    517.022    518.346    517.022
 80.070    533.000    555.030    -22.030    517.013    553.670    517.013    518.368    517.013
 80.170    522.596    562.041    -39.444    517.004    560.649    517.004    518.392    517.004
 80.270    563.000    571.153     -8.153    516.993    569.728    516.993    518.415    516.993
 80.370    585.000    582.802      2.198    516.980    581.347    516.980    518.436    516.980
 80.470    557.000    597.265    -40.265    516.967    595.787    516.967    518.450    516.967
 80.570    564.000    614.551    -50.551    516.952    613.058    516.952    518.454    516.952
 80.670    651.000    634.318     16.682    516.937    632.825    516.937    518.443    516.937
 80.770    616.035    655.835    -39.800    516.920    654.357    516.920    518.416    516.920
 80.870    726.406    678.003     48.403    516.901    676.557    516.901    518.372    516.901
 80.970    656.000    699.475    -43.475    516.882    698.073    516.882    518.315    516.882
 81.070    734.000    718.842     15.158    516.861    717.495    516.861    518.246    516.861
 81.170    696.603    734.818    -38.214    516.840    733.531    516.840    518.171    516.840
 81.270    741.000    746.358     -5.358    516.817    745.134    516.817    518.092    516.817
 81.370    760.000    752.742      7.258    516.792    751.578    516.792    518.013    516.792
 81.470    714.056    753.646    -39.590    516.767    752.539    516.767    517.935    516.767
 81.570    769.000    749.164     19.836    516.740    748.109    516.740    517.860    516.740
 81.670    766.000    739.766     26.234    516.712    738.757    516.712    517.789    516.712
 81.770    738.399    726.276     12.123    516.683    725.305    516.683    517.722    516.683
 81.870    747.000    709.845     37.155    516.653    708.907    516.653    517.658    516.653
 81.970    715.000    691.791     23.209    516.621    690.879    516.621    517.599    516.621
 82.070    701.834    673.323     28.511    516.588    672.432    516.588    517.542    516.588
 82.170    605.876    655.323    -49.446    516.554    654.447    516.554    517.488    516.554
 82.270    626.552    638.291    -11.739    516.519    637.428    516.519    517.437    516.519
 82.370    589.000    622.454    -33.454    516.482    621.600    516.482    517.386    516.482
 82.470    631.000    607.924     23.076    516.444    607.076    516.444    517.337    516.444
 82.570    599.448    594.826      4.622    516.405    593.981    516.405    517.289    516.405
 82.670    564.000    583.323    -19.323    516.365    582.480    516.365    517.241    516.365
 82.770    530.983    573.587    -42.604    516.323    572.743    516.323    517.193    516.323
 82.870    566.000    565.764      0.236    516.281    564.919    516.281    517.144    516.281
 82.970    575.891    559.963     15.928    516.236    559.116    516.236    517.095    516.236
 83.070    599.078    556.238     42.841    516.191    555.387    516.191    517.046    516.191
 83.170    522.473    554.571    -32.098    516.144    553.717    516.144    516.996    516.144
 83.270    573.000    554.858     18.142    516.097    553.999    516.097    516.945    516.097
 83.370    526.073    556.884    -30.811    516.047    556.020    516.047    516.893    516.047
 83.470    515.000    560.316    -45.316    515.997    559.447    515.997    516.841    515.997
 83.570    555.754    564.703     -8.949    515.945    563.829    515.945    516.788    515.945
 83.670    591.114    569.489     21.625    515.893    568.610    515.893    516.734    515.893
 83.770    562.000    574.042    -12.042    515.838    573.160    515.838    516.678    515.838
 83.870    548.938    577.705    -28.767    515.783    576.820    515.783    516.623    515.783
 83.970    594.930    579.876     15.054    515.726    578.991    515.726    516.566    515.726
 84.070    600.000    580.138     19.862    515.668    579.253    515.668    516.508    515.668
 84.170    601.000    578.361     22.639    515.609    577.478    515.609    516.449    515.609
 84.270    606.000    574.740     31.260    515.548    573.860    515.548    516.389    515.548
 84.370    552.000    569.710    -17.710    515.487    568.834    515.487    516.328    515.487
 84.470    516.000    563.815    -47.815    515.423    562.943    515.423    516.267    515.423
 84.570    545.225    557.596    -12.370    515.359    556.727    515.359    516.204    515.359
 84.670    574.634    551.517     23.117    515.293    550.651    515.293    516.141    515.293
 84.770    544.000    545.931     -1.931    515.227    545.066    515.227    516.076    515.227
 84.870    516.378    541.069    -24.690    515.158    540.205    515.158    516.010    515.158
 84.970    536.646    537.043     -0.396    515.089    536.179    515.089    515.944    515.089
 85.070    520.000    533.868    -13.868    515.018    533.002    515.018    515.876    515.018
 85.170    577.000    531.485     45.515    514.946    530.618    514.946    515.808    514.946
 85.270    517.000    529.797    -12.797    514.873    528.926    514.873    515.738    514.873
 85.370    536.000    528.690      7.310    514.798    527.816    514.798    515.668    514.798
 85.470    501.096    528.062    -26.966    514.723    527.183    514.723    515.597    514.723
 85.570    520.380    527.834     -7.454    514.645    526.950    514.645    515.524    514.645
 85.670    509.000    527.964    -18.964    514.567    527.074    514.567    515.451    514.567
 85.770    488.000    528.449    -40.449    514.487    527.553    514.487    515.377    514.487
 85.870    543.000    529.333     13.667    514.406    528.429    514.406    515.302    514.406
 85.970    490.000    530.699    -40.699    514.324    529.787    514.324    515.226    514.324
 86.070    537.000    532.676      4.324    514.241    531.755    514.241    515.149    514.241
 86.170    537.000    535.426      1.574    514.156    534.494    514.156    515.071    514.156
 86.270    569.085    539.132     29.953    514.070    538.189    514.070    514.992    514.070
 86.370    560.000    543.983     16.017    513.983    543.025    513.983    514.913    513.983
 86.470    505.000    550.136    -45.136    513.894    549.162    513.894    514.832    513.894
 86.570    599.607    557.687     41.920    513.804    556.696    513.804    514.751    513.804
 86.670    560.720    566.631     -5.911    513.713    565.620    513.713    514.669    513.713
 86.770    567.908    576.818     -8.910    513.621    575.786    513.621    514.586    513.621
 86.870    601.000    587.927     13.073    513.527    586.873    513.527    514.502    513.527
 86.970    646.000    599.450     46.550    513.432    598.373    513.432    514.418    513.432
 87.070    622.407    610.697     11.710    513.336    609.598    513.336    514.333    513.336
 87.170    657.453    620.826     36.627    513.239    619.707    513.239    514.247    513.239
 87.270    673.778    628.919     44.859    513.140    627.783    513.140    514.160    513.140
 87.370    657.000    634.129     22.871    513.040    632.978    513.040    514.073    513.040
 87.470    678.000    635.871     42.129    512.939    634.709    512.939    513.985    512.939
 87.570    666.000    633.996     32.004    512.837    632.827    512.837    513.897    512.837
 87.670    686.000    628.829     57.171    512.733    627.656    512.733    513.808    512.733
 87.770    607.000    621.099    -14.099    512.628    619.923    512.628    513.718    512.628
 87.870    627.560    611.729     15.831    512.522    610.551    512.522    513.628    512.522
 87.970    655.000    601.678     53.322    512.415    600.497    512.415    513.538    512.415
 88.070    579.339    591.859    -12.520    512.306    590.673    512.306    513.447    512.306
 88.170    636.000    583.063     52.937    512.196    581.870    512.196    513.356    512.196
 88.270    609.000    575.913     33.087    512.085    574.711    512.085    513.264    512.085
 88.370    557.000    570.840    -13.840    511.973    569.628    511.973    513.173    511.973
 88.470    553.554    568.075    -14.521    511.859    566.850    511.859    513.081    511.859
 88.570    583.000    567.651     15.349    511.744    566.411    511.744    512.989    511.744
 88.670    557.000    569.415    -12.415    511.628    568.159    511.628    512.898    511.628
 88.770    583.000    573.050      9.950    511.511    571.775    511.511    512.806    511.511
 88.870    595.000    578.090     16.910    511.393    576.796    511.393    512.715    511.393
 88.970    576.917    583.953     -7.036    511.273    582.638    511.273    512.624    511.273
 89.070    590.000    589.966      0.034    511.152    588.628    511.152    512.534    511.152
 89.170    600.631    595.406      5.225    511.030    594.042    511.030    512.444    511.030
 89.270    645.046    599.562     45.484    510.907    598.170    510.907    512.355    510.907
 89.370    578.000    601.829    -23.829    510.782    600.405    510.782    512.267    510.782
 89.470    585.000    601.816    -16.816    510.657    600.355    510.657    512.180    510.657
 89.570    640.000    599.439     40.561    510.530    597.937    510.530    512.094    510.530
 89.670    616.000    594.927     21.073    510.402    593.379    510.402    512.010    510.402
 89.770    635.050    588.741     46.310    510.272    587.142    510.272    511.928    510.272
 89.870    536.694    581.453    -44.760    510.142    579.799    510.142    511.849    510.142
 89.970    560.000    573.645    -13.645    510.010    571.929    510.010    511.771    510.010
 90.070    519.000    565.833    -46.833    509.878    564.052    509.878    511.697    509.878
 90.170    576.000    558.438     17.562    509.744    556.587    509.744    511.627    509.744
 90.270    514.000    551.765    -37.765    509.609    549.839    509.609    511.560    509.609
 90.370    555.000    546.004      8.996    509.472    543.997    509.472    511.499    509.472
 90.470    557.000    541.236     15.764    509.335    539.142    509.335    511.444    509.335
 90.570    552.049    537.457     14.592    509.196    535.268    509.196    511.397    509.196
 90.670    526.000    534.601     -8.601    509.057    532.305    509.057    511.359    509.057
 90.770    513.391    532.562    -19.171    508.916    530.149    508.916    511.334    508.916
 90.870    543.393    531.225     12.168    508.774    528.679    508.774    511.323    508.774
 90.970    546.000    530.483     15.517    508.631    527.783    508.631    511.332    508.631
 91.070    569.244    530.252     38.992    508.487    527.373    508.487    511.365    508.487
 91.170    517.147    530.481    -13.334    508.341    527.391    508.341    511.430    508.341
 91.270    524.000    531.156     -7.156    508.195    527.813    508.195    511.535    508.195
 91.370    558.000    532.272     25.728    508.047    528.626    508.047    511.690    508.047
 91.470    511.000    533.978    -22.978    507.899    529.965    507.899    511.908    507.899
 91.570    514.000    536.393    -22.393    507.749    531.934    507.749    512.201    507.749
 91.670    539.461    539.666     -0.205    507.598    534.669    507.598    512.587    507.598
 91.770    537.000    543.999     -6.999    507.446    538.353    507.446    513.082    507.446
 91.870    574.235    549.623     24.612    507.293    543.198    507.293    513.704    507.293
 91.970    538.000    556.775    -18.775    507.139    549.427    507.139    514.469    507.139
 92.070    546.000    565.683    -19.683    506.984    557.250    506.984    515.394    506.984
 92.170    543.414    576.534    -33.120    506.828    566.843    506.828    516.491    506.828
 92.270    601.000    589.452     11.548    506.671    578.321    506.671    517.768    506.671
 92.370    600.000    604.463     -4.463    506.512    591.708    506.512    519.226    506.512
 92.470    582.037    621.474    -39.437    506.353    606.920    506.353    520.859    506.353
 92.570    619.000    640.250    -21.250    506.193    623.739    506.193    522.649    506.193
 92.670    660.000    660.406     -0.406    506.031    641.806    506.031    524.568    506.031
 92.770    686.000    681.397      4.603    505.869    660.623    505.869    526.573    505.869
 92.870    738.941    702.539     36.402    505.706    679.567    505.706    528.603    505.706
 92.970    737.000    723.073     13.927    505.541    697.955    505.541    530.580    505.541
 93.070    725.669    742.254    -16.585    505.376    715.142    505.376    532.406    505.376
 93.170    828.000    759.471     68.529    505.210    730.631    505.210    533.966    505.210
 93.270    791.478    774.366     17.111    505.042    744.185    505.042    535.141    505.042
 93.370    818.000    786.868     31.132    504.874    755.839    504.874    535.822    504.874
 93.470    767.452    797.136    -29.684    504.705    765.830    504.705    535.932    504.705
 93.570    799.000    805.475     -6.475    504.535    774.486    504.535    535.447    504.535
 93.670    825.563    812.271     13.292    504.364    782.160    504.364    534.399    504.364
 93.770    910.000    817.979     92.021    504.192    789.227    504.192    532.871    504.192
 93.870    842.000    823.146     18.854    504.019    796.120    504.019    530.975    504.019
 93.970    807.522    828.403    -20.881    503.845    803.349    503.845    528.831    503.845
 94.070    830.000    834.375     -4.375    503.670    811.429    503.670    526.551    503.670
 94.170    791.810    841.525    -49.714    503.494    820.725    503.494    524.230    503.494
 94.270    897.000    849.978     47.022    503.317    831.288    503.317    521.946    503.317
 94.370    858.000    859.418     -1.418    503.140    842.744    503.140    519.755    503.140
 94.470    893.000    869.063     23.937    502.962    854.270    502.962    517.700    502.962
 94.570    939.000    877.728     61.272    502.782    864.655    502.782    515.806    502.782
 94.670    922.000    883.960     38.040    502.602    872.429    502.602    514.089    502.602
 94.770    916.101    886.253     29.848    502.421    876.081    502.421    512.556    502.421
 94.870    863.028    883.330    -20.303    502.239    874.338    502.239    511.203    502.239
 94.970    921.055    874.446     46.609    502.057    866.461    502.057    510.022    502.057
 95.070    912.000    859.587     52.413    501.873    852.448    501.873    509.000    501.873
 95.170    799.330    839.492    -40.161    501.689    833.055    501.689    508.122    501.689
 95.270    851.000    815.499     35.501    501.504    809.635    501.504    507.369    501.504
 95.370    842.000    789.312     52.688    501.318    783.909    501.318    506.726    501.318
 95.470    808.584    762.783     45.801    501.132    757.747    501.132    506.175    501.132
 95.570    711.000    737.752    -26.752    500.944    733.003    500.944    505.701    500.944
 95.670    737.000    715.999     21.001    500.756    711.471    500.756    505.290    500.756
 95.770    702.418    699.112      3.306    500.567    694.752    500.567    504.929    500.567
 95.870    637.000    688.494    -51.494    500.378    684.257    500.378    504.611    500.378
 95.970    675.881    685.350     -9.469    500.187    681.200    500.187    504.328    500.187
 96.070    679.000    690.689    -11.689    499.996    686.595    499.996    504.072    499.996
 96.170    661.256    705.313    -44.057    499.805    701.251    499.805    503.839    499.805
 96.270    729.000    729.803     -0.803    499.612    725.752    499.612    503.625    499.612
 96.370    782.000    764.475     17.525    499.419    760.417    499.419    503.428    499.419
 96.470    768.022    809.305    -41.283    499.225    805.225    499.225    503.245    499.225
 96.570    869.500    863.844      5.657    499.031    859.726    499.031    503.075    499.031
 96.670    890.000    927.114    -37.114    498.836    922.947    498.836    502.918    498.836
 96.770   1003.000    997.532      5.468    498.640    993.306    498.640    502.772    498.640
 96.870   1134.000   1072.853     61.147    498.444   1068.557    498.444    502.637    498.444
 96.970   1158.000   1150.157      7.843    498.247   1145.782    498.247    502.514    498.247
 97.070   1233.000   1225.893      7.107    498.049   1221.432    498.049    502.403    498.049
 97.170   1352.000   1296.001     55.999    497.851   1291.444    497.851    502.304    497.851
 97.270   1408.000   1356.151     51.849    497.653   1351.491    497.653    502.217    497.653
 97.370   1353.670   1402.154    -48.483    497.453   1397.381    497.453    502.144    497.453
 97.470   1391.000   1430.545    -39.545    497.253   1425.648    497.253    502.086    497.253
 97.570   1444.526   1439.214      5.313    497.053   1434.179    497.053    502.043    497.053
 97.670   1432.000   1427.809      4.191    496.852   1422.619    496.852    502.019    496.852
 97.770   1463.025   1397.774     65.251    496.651   1392.408    496.651    502.015    496.651
 97.870   1320.000   1351.970    -31.970    496.449   1346.400    496.449    502.035    496.449
 97.970   1330.902   1294.116     36.786    496.247   1288.312    496.247    502.082    496.247
 98.070   1207.000   1228.284    -21.284    496.044   1222.207    496.044    502.163    496.044
 98.170   1149.000   1158.518     -9.518    495.841   1152.124    495.841    502.283    495.841
 98.270   1050.000   1088.606    -38.606    495.637   1081.841    495.637    502.454    495.637
 98.370   1031.000   1021.928      9.072    495.433   1014.726    495.433    502.685    495.433
 98.470    940.000    961.384    -21.384    495.228    953.666    495.228    502.993    495.228
 98.570    949.335    909.365     39.970    495.023    901.034    495.023    503.395    495.023
 98.670    817.000    867.774    -50.774    494.818    858.710    494.818    503.915    494.818
 98.770    874.000    838.066     35.934    494.612    828.122    494.612    504.580    494.612
 98.870    789.000    821.314    -32.314    494.406    810.309    494.406    505.425    494.406
 98.970    776.000    818.275    -42.275    494.200    805.992    494.200    506.487    494.200
 99.070    820.620    829.454     -8.833    493.993    815.631    493.993    507.811    493.993
 99.170    880.000    855.129     24.871    493.786    839.457    493.786    509.445    493.786
 99.270    883.000    895.342    -12.342    493.579    877.459    493.579    511.441    493.579
 99.370    979.000    949.905     29.095    493.371    929.397    493.371    513.854    493.371
 99.470   1031.000   1018.279     12.721    493.163    994.678    493.163    516.735    493.163
 99.570   1160.000   1099.503     60.497    492.955   1072.294    492.955    520.135    492.955
 99.670   1207.742   1192.117     15.625    492.747   1160.742    492.747    524.095    492.747
 99.770   1313.000   1294.076     18.924    492.538   1257.949    492.538    528.645    492.538
 99.870   1422.920   1402.695     20.225    492.330   1361.217    492.330    533.799    492.330
 99.970   1442.413   1514.644    -72.231    492.121   1467.219    492.121    539.550    492.121
100.070   1599.147   1626.020    -26.873    491.912   1572.086    491.912    545.868    491.912
100.170   1707.074   1732.543    -25.469    491.702   1671.599    491.702    552.690    491.702
100.270   1857.000   1829.868     27.132    491.493   1761.506    491.493    559.924    491.493
100.370   2029.000   1913.969    115.031    491.283   1837.911    491.283    567.436    491.283
100.470   1917.000   1981.455    -64.455    491.074   1897.599    491.074    575.049    491.074
100.570   2027.729   2029.731     -2.001    490.864   1938.195    490.864    582.543    490.864
100.670   2135.984   2056.985     78.999    490.654   1958.158    490.654    589.646    490.654
100.770   2053.224   2062.169     -8.944    490.444   1956.748    490.444    596.047    490.444
100.870   2046.000   2045.090      0.910    490.234   1934.113    490.234    601.408    490.234
100.970   2076.646   2006.667     69.980    490.024   1891.503    490.024    605.393    490.024
101.070   1957.000   1949.143      7.857    489.815   1831.448    489.815    607.718    489.815
101.170   1900.000   1876.086     23.914    489.605   1757.702    489.605    608.195    489.605
101.270   1749.383   1792.048    -42.665    489.395   1674.872    489.395    606.770    489.395
101.370   1733.000   1702.023     30.977    489.185   1587.859    489.185    603.538    489.185
101.470   1561.061   1610.870    -49.809    488.975   1501.302    488.975    598.719    488.975
101.570   1537.414   1522.863     14.551    488.766   1419.170    488.766    592.619    488.766
101.670   1434.000   1441.405     -7.405    488.556   1344.528    488.556    585.577    488.556
101.770   1339.000   1368.885    -29.885    488.347   1279.433    488.347    577.928    488.347
101.870   1297.066   1306.647     -9.581    488.137   1224.927    488.137    569.972    488.137
101.970   1187.000   1255.019    -68.019    487.928   1181.084    487.928    561.966    487.928
102.070   1148.792   1213.412    -64.620    487.719   1147.105    487.719    554.118    487.719
102.170   1112.976   1180.445    -67.469    487.510   1121.448    487.510    546.592    487.510
102.270   1165.000   1154.120     10.880    487.302   1101.995    487.302    539.507    487.302
102.370   1122.000   1132.045    -10.045    487.094   1086.267    487.094    532.949    487.094
102.470   1136.327   1111.693     24.634    486.886   1071.683    486.886    526.971    486.886
102.570   1037.093   1090.705    -53.612    486.678   1055.865    486.678    521.596    486.678
102.670   1066.000   1067.202     -1.202    486.470   1036.929    486.470    516.823    486.470
102.770   1026.000   1040.001    -14.001    486.263   1013.711    486.263    512.633    486.263
102.870    992.000   1008.692    -16.692    486.056    985.836    486.056    508.992    486.056
102.970    932.077    973.556    -41.479    485.850    953.628    485.850    505.857    485.850
103.070    960.000    935.376     24.624    485.644    917.920    485.644    503.176    485.644
103.170    918.000    895.217     22.783    485.438    879.833    485.438    500.897    485.438
103.270    872.000    854.254     17.746    485.233    840.592    485.233    498.965    485.233
103.370    785.000    813.634    -28.634    485.028    801.397    485.028    497.329    485.028
103.470    801.258    774.395     26.863    484.824    763.334    484.824    495.942    484.824
103.570    706.239    737.411    -31.172    484.620    727.321    484.620    494.762    484.620
103.670    736.000    703.357     32.643    484.417    694.067    484.417    493.750    484.417
103.770    666.000    672.693     -6.693    484.214    664.068    484.214    492.877    484.214
103.870    675.000    645.670     29.330    484.011    637.599    484.011    492.115    484.011
103.970    634.000    622.346     11.654    483.810    614.740    483.810    491.442    483.810
104.070    634.431    602.611     31.820    483.609    595.400    483.609    490.841    483.609
104.170    595.000    586.238      8.762    483.408    579.365    483.408    490.298    483.408
104.270    585.000    572.910     12.090    483.208    566.329    483.208    489.802    483.208
104.370    529.257    562.262    -33.005    483.009    555.936    483.009    489.344    483.009
104.470    587.897    553.917     33.980    482.810    547.815    482.810    488.919    482.810
104.570    583.000    547.505     35.495    482.612    541.602    482.612    488.520    482.612
104.670    500.000    542.711    -42.711    482.415    536.984    482.415    488.145    482.415
104.770    588.000    539.248     48.752    482.219    533.679    482.219    487.789    482.219
104.870    544.783    536.885      7.898    482.023    531.457    482.023    487.451    482.023
104.970    510.000    535.447    -25.447    481.828    530.145    481.828    487.128    481.828
105.070    512.883    534.814    -21.931    481.634    529.625    481.634    486.819    481.634
105.170    539.445    534.914      4.531    481.441    529.826    481.441    486.524    481.441
105.270    556.000    535.723     20.277    481.249    530.725    481.249    486.240    481.249
105.370    568.000    537.254     30.746    481.057    532.335    481.057    485.968    481.057
105.470    532.000    539.556     -7.556    480.867    534.707    480.867    485.706    480.867
105.570    576.364    542.704     33.660    480.677    537.915    480.677    485.453    480.677
105.670    538.145    546.787     -8.642    480.489    542.051    480.489    485.210    480.489
105.770    508.580    551.902    -43.322    480.301    547.210    480.301    484.976    480.301
105.870    598.174    558.131     40.042    480.114    553.476    480.114    484.750    480.114
105.970    567.000    565.536      1.464    479.929    560.909    479.929    484.532    479.929
106.070    567.847    574.137     -6.290    479.744    569.533    479.744    484.322    479.744
106.170    612.000    583.906     28.094    479.561    579.317    479.561    484.120    479.561
106.270    572.000    594.755    -22.755    479.378    590.176    479.378    483.924    479.378
106.370    583.000    606.531    -23.531    479.197    601.956    479.197    483.736    479.197
106.470    639.000    619.016     19.984    479.017    614.438    479.017    483.555    479.017
106.570    609.000    631.925    -22.925    478.838    627.339    478.838    483.381    478.838
106.670    645.000    644.918      0.082    478.660    640.319    478.660    483.214    478.660
106.770    659.000    657.607      1.393    478.484    652.991    478.484    483.053    478.484
106.870    607.000    669.578    -62.578    478.309    664.940    478.309    482.900    478.309
106.970    630.000    680.411    -50.411    478.135    675.746    478.135    482.753    478.135
107.070    733.117    689.721     43.396    477.962    685.025    477.962    482.612    477.962
107.170    694.000    697.207     -3.207    477.791    692.475    477.791    482.478    477.791
107.270    670.000    702.695    -32.695    477.621    697.923    477.621    482.352    477.621
107.370    670.160    706.181    -36.021    477.452    701.364    477.452    482.231    477.452
107.470    665.000    707.837    -42.837    477.285    702.970    477.285    482.118    477.285
107.570    679.000    707.986    -28.986    477.120    703.063    477.120    482.012    477.120
107.670    684.000    707.043    -23.043    476.956    702.059    476.956    481.914    476.956
107.770    702.000    705.456     -3.456    476.793    700.405    476.793    481.822    476.793
107.870    652.000    703.651    -51.651    476.632    698.527    476.632    481.738    476.632
107.970    751.413    701.982     49.431    476.472    696.779    476.472    481.662    476.472
108.070    737.920    700.706     37.214    476.314    695.417    476.314    481.594    476.314
108.170    672.000    699.964    -27.964    476.158    694.582    476.158    481.535    476.158
108.270    691.000    699.774     -8.774    476.003    694.293    476.003    481.483    476.003
108.370    731.000    700.029     30.971    475.850    694.440    475.850    481.441    475.850
108.470    692.000    700.504     -8.504    475.699    694.801    475.699    481.408    475.699
108.570    714.000    700.882     13.118    475.549    695.055    475.549    481.384    475.549
108.670    660.000    700.774    -40.774    475.401    694.816    475.401    481.371    475.401
108.770    659.000    699.771    -40.771    475.255    693.673    475.255    481.368    475.255
108.870    707.757    697.498     10.259    475.111    691.251    475.111    481.376    475.111
108.970    682.000    693.668    -11.668    474.969    687.260    474.969    481.395    474.969
109.070    653.000    688.128    -35.128    474.828    681.550    474.828    481.427    474.828
109.170    682.000    680.881      1.119    474.690    674.121    474.690    481.471    474.690
109.270    705.000    672.075     32.925    474.553    665.121    474.553    481.529    474.553
109.370    674.000    661.968     12.032    474.418    654.807    474.418    481.602    474.418
109.470    636.000    650.887    -14.887    474.286    643.505    474.286    481.689    474.286
109.570    607.278    639.188    -31.910    474.155    631.570    474.155    481.794    474.155
109.670    621.000    627.228     -6.228    474.026    619.358    474.026    481.916    474.026
109.770    619.000    615.340      3.660    473.900    607.200    473.900    482.056    473.900
109.870    566.608    603.821    -37.213    473.775    595.394    473.775    482.218    473.775
109.970    579.200    592.924    -13.723    473.653    584.188    473.653    482.403    473.653
110.070    597.000    582.828     14.172    473.533    573.761    473.533    482.612    473.533
110.170    573.000    573.716     -0.716    473.415    564.291    473.415    482.850    473.415
110.270    568.000    565.705      2.295    473.300    555.893    473.300    483.119    473.300
110.370    599.000    558.827     40.173    473.186    548.595    473.186    483.424    473.186
110.470    577.000    553.088     23.912    473.075    542.398    473.075    483.769    473.075
110.570    514.819    548.461    -33.642    472.967    537.268    472.967    484.162    472.967
110.670    572.000    544.892     27.108    472.860    533.144    472.860    484.609    472.860
110.770    616.000    542.308     73.692    472.756    529.942    472.756    485.121    472.756
110.870    555.000    540.622     14.378    472.655    527.566    472.655    485.708    472.655
110.970    561.090    539.748     21.342    472.556    525.915    472.556    486.385    472.556
111.070    579.000    539.600     39.400    472.459    524.886    472.459    487.169    472.459
111.170    529.154    540.099    -10.945    472.366    524.380    472.366    488.078    472.366
111.270    606.000    541.178     64.822    472.274    524.308    472.274    489.138    472.274
111.370    517.000    542.785    -25.785    472.185    524.588    472.185    490.374    472.185
111.470    540.000    544.879     -4.879    472.099    525.149    472.099    491.821    472.099
111.570    536.000    547.437    -11.437    472.016    525.932    472.016    493.513    472.016
111.670    550.000    550.453     -0.453    471.935    526.886    471.935    495.493    471.935
111.770    532.433    553.933    -21.500    471.857    527.974    471.857    497.806    471.857
111.870    556.000    557.902     -1.902    471.782    529.170    471.782    500.503    471.782
111.970    557.000    562.399     -5.399    471.710    530.459    471.710    503.640    471.710
112.070    586.000    567.477     18.523    471.640    531.834    471.640    507.272    471.640
112.170    565.000    573.201     -8.201    471.574    533.303    471.574    511.460    471.574
112.270    573.000    579.646     -6.646    471.510    534.880    471.510    516.264    471.510
112.370    534.000    586.895    -52.895    471.449    536.590    471.449    521.743    471.449
112.470    617.000    595.036     21.964    471.391    538.464    471.391    527.951    471.391
112.570    586.000    604.158    -18.158    471.337    540.545    471.337    534.937    471.337
112.670    556.000    614.355    -58.355    471.285    542.886    471.285    542.741    471.285
112.770    588.000    625.721    -37.721    471.236    545.553    471.236    551.390    471.236
112.870    615.000    638.357    -23.357    471.191    548.633    471.191    560.899    471.191
112.970    628.000    652.368    -24.368    471.149    552.237    471.149    571.262    471.149
113.070    616.000    667.874    -51.874    471.110    556.512    471.110    582.453    471.110
113.170    647.000    685.018    -38.018    471.074    561.650    471.074    594.422    471.074
113.270    732.000    703.974     28.026    471.041    567.901    471.041    607.092    471.041
113.370    740.000    724.962     15.038    471.012    575.593    471.012    620.357    471.012
113.470    714.545    748.267    -33.722    470.986    585.149    470.986    634.076    470.986
113.570    765.000    774.258     -9.258    470.964    597.115    470.964    648.076    470.964
113.670    824.319    803.412     20.908    470.945    612.176    470.945    662.144    470.945
113.770    796.572    836.332    -39.761    470.929    631.191    470.929    676.028    470.929
113.870    861.000    873.784    -12.784    470.917    655.214    470.917    689.436    470.917
113.970    894.000    916.713    -22.713    470.908    685.521    470.908    702.040    470.908
114.070    936.000    966.276    -30.276    470.903    723.624    470.903    713.482    470.903
114.170   1008.775   1023.858    -15.083    470.902    771.284    470.902    723.387    470.902
114.270   1095.000   1091.111      3.889    470.905    830.509    470.905    731.400    470.905
114.370   1161.000   1169.940     -8.940    470.911    903.530    470.911    737.191    470.911
114.470   1263.412   1262.509      0.904    470.920    992.767    470.920    740.507    470.920
114.570   1359.252   1371.206    -11.954    470.934   1100.761    470.934    741.194    470.934
114.670   1570.000   1498.574     71.426    470.951   1230.085    470.951    739.221    470.951
114.770   1682.321   1647.194     35.126    470.973   1383.227    470.973    734.680    470.973
114.870   1864.000   1819.533     44.467    470.998   1562.450    470.998    727.778    470.998
114.970   2022.000   2017.751      4.249    471.027   1769.619    471.027    718.807    471.027
115.070   2339.000   2243.492     95.508    471.060   2006.033    471.060    708.116    471.060
115.170   2649.000   2497.662    151.338    471.097   2272.227    471.097    696.077    471.097
115.270   2899.000   2780.227    118.773    471.138   2567.801    471.138    683.055    471.138
115.370   3092.569   3090.026      2.543    471.184   2891.252    471.184    669.396    471.184
115.470   3412.452   3424.630    -12.177    471.233   3239.848    471.233    655.403    471.233
115.570   3788.000   3780.269      7.731    471.287   3609.534    471.287    641.364    471.287
115.670   4194.000   4151.760     42.240    471.344   3994.905    471.344    627.505    471.344
115.770   4446.541   4532.557    -86.016    471.407   4389.222    471.407    614.018    471.407
115.870   4832.000   4914.832    -82.832    471.473   4784.504    471.473    601.061    471.473
115.970   5321.726   5289.633     32.093    471.544   5171.678    471.544    588.756    471.544
116.070   5691.000   5647.111     43.889    471.619   5540.805    471.619    577.195    471.619
116.170   5980.000   5976.829      3.171    471.699   5881.386    471.699    566.440    471.699
116.270   6277.000   6268.168      8.832    471.783   6182.764    471.783    556.531    471.783
116.370   6492.849   6510.858    -18.009    471.871   6434.655    471.871    547.483    471.871
116.470   6624.000   6695.621    -71.621    471.964   6627.781    471.964    539.290    471.964
116.570   6673.000   6814.897   -141.897    472.062   6754.605    472.062    531.933    472.062
116.670   6961.295   6863.559     97.736    472.165   6810.027    472.165    525.377    472.165
116.770   6904.000   6839.450     64.550    472.272   6791.932    472.272    519.578    472.272
116.870   6819.000   6743.627     75.373    472.384   6701.422    472.384    514.484    472.384
116.970   6736.307   6580.216    156.091    472.500   6542.678    472.500    510.037    472.500
117.070   6402.000   6355.940     46.060    472.622   6322.477    472.622    506.178    472.622
117.170   6046.000   6079.458    -33.458    472.748   6049.534    472.748    502.847    472.748
117.270   5823.825   5760.662     63.163    472.880   5733.800    472.880    499.986    472.880
117.370   5508.008   5409.918     98.090    473.016   5385.694    473.016    497.539    473.016
117.470   4916.719   5037.585   -120.866    473.157   5015.629    473.157    495.452    473.157
117.570   4573.000   4653.563    -80.563    473.303   4633.552    473.303    493.678    473.303
117.670   4155.000   4266.964   -111.964    473.455   4248.623    473.455    492.172    473.455
117.770   3995.000   3885.874    109.126    473.611   3868.964    473.611    490.896    473.611
117.870   3438.401   3517.186    -78.786    473.773   3501.508    473.773    489.816    473.773
117.970   3082.526   3166.511    -83.986    473.940   3151.895    473.940    488.902    473.940
118.070   2866.000   2838.149     27.851    474.113   2824.453    474.113    488.129    474.113
118.170   2499.000   2535.126    -36.126    474.290   2522.233    474.290    487.474    474.290
118.270   2308.328   2259.279     49.049    474.473   2247.090    474.473    486.920    474.473
118.370   1962.550   2011.375    -48.825    474.662   1999.810    474.662    486.451    474.662
118.470   1745.000   1791.268    -46.268    474.855   1780.259    474.855    486.055    474.855
118.570   1593.817   1598.054     -4.237    475.055   1587.546    475.055    485.723    475.055
118.670   1402.000   1430.246    -28.246    475.260   1420.192    475.260    485.444    475.260
118.770   1302.000   1285.933     16.067    475.470   1276.295    475.470    485.213    475.470
118.870   1157.434   1162.939     -5.505    475.687   1153.683    475.687    485.024    475.687
118.970    986.000   1058.957    -72.957    475.909   1050.054    475.909    484.873    475.909
119.070    988.167    971.666     16.501    476.136    963.093    476.136    484.756    476.136
119.170    917.000    898.826     18.174    476.370    890.559    476.370    484.670    476.370
119.270    815.632    838.340    -22.708    476.609    830.359    476.609    484.613    476.609
119.370    786.000    788.300     -2.300    476.855    780.587    476.855    484.583    476.855
119.470    786.000    747.013     38.987    477.106    739.549    477.106    484.579    477.106
119.570    722.000    713.005      8.995    477.363    705.774    477.363    484.599    477.363
119.670    715.000    685.017     29.983    477.626    678.003    477.626    484.642    477.626
119.770    633.785    661.990    -28.205    477.896    655.177    477.896    484.709    477.896
119.870    656.000    643.048     12.952    478.171    636.421    478.171    484.799    478.171
119.970    583.000    627.473    -44.473    478.453    621.016    478.453    484.910    478.453
120.070    592.000    614.683    -22.683    478.741    608.380    478.741    485.044    478.741
120.170    603.711    604.212     -0.501    479.035    598.048    479.035    485.199    479.035
120.270    579.000    595.689    -16.689    479.336    589.648    479.336    485.377    479.336
120.370    609.000    588.819     20.181    479.643    582.886    479.643    485.577    479.643
120.470    581.000    583.372     -2.372    479.957    577.531    479.957    485.800    479.957
120.570    589.000    579.166      9.834    480.277    573.400    480.277    486.045    480.277
120.670    576.000    576.057     -0.057    480.603    570.350    480.603    486.313    480.603
120.770    531.148    573.935    -42.786    480.937    568.270    480.937    486.605    480.937
120.870    588.000    572.709     15.291    481.276    567.070    481.276    486.920    481.276
120.970    546.000    572.309    -26.309    481.623    566.679    481.623    487.258    481.623
121.070    576.709    572.673      4.036    481.976    567.035    481.976    487.621    481.976
121.170    617.685    573.748     43.937    482.336    568.085    482.336    488.007    482.336
121.270    546.981    575.484    -28.503    482.704    569.780    482.704    488.417    482.704
121.370    566.000    577.831    -11.831    483.078    572.069    483.078    488.850    483.078
121.470    553.000    580.735    -27.735    483.458    574.901    483.458    489.306    483.458
121.570    570.000    584.141    -14.141    483.846    578.218    483.846    489.785    483.846
121.670    601.000    587.983     13.017    484.241    581.957    484.241    490.284    484.241
121.770    634.000    592.189     41.811    484.644    586.049    484.644    490.804    484.644
121.870    552.696    596.681    -43.985    485.053    590.414    485.053    491.342    485.053
121.970    604.498    601.369      3.129    485.470    594.966    485.470    491.897    485.470
122.070    586.127    606.157    -20.031    485.894    599.611    485.894    492.467    485.894
122.170    678.000    610.943     67.057    486.325    604.248    486.325    493.050    486.325
122.270    642.000    615.617     26.383    486.764    608.771    486.764    493.641    486.764
122.370    633.983    620.067     13.916    487.210    613.072    487.210    494.240    487.210
122.470    604.000    624.181    -20.181    487.664    617.042    487.664    494.841    487.664
122.570    599.000    627.852    -28.852    488.125    620.576    488.125    495.441    488.125
122.670    616.000    630.981    -14.981    488.594    623.581    488.594    496.036    488.594
122.770    585.512    633.484    -47.972    489.070    625.976    489.070    496.622    489.070
122.870    681.400    635.297     46.103    489.555    627.702    489.555    497.194    489.555
122.970    633.963    636.380     -2.418    490.047    628.724    490.047    497.749    490.047
123.070    640.000    636.721      3.279    490.547    629.032    490.547    498.282    490.547
123.170    650.000    636.333     13.667    491.055    628.643    491.055    498.791    491.055
123.270    637.000    635.251      1.749    491.571    627.593    491.571    499.274    491.571
123.370    641.814    633.532      8.283    492.095    625.941    492.095    499.730    492.095
123.470    596.000    631.244    -35.244    492.627    623.754    492.627    500.159    492.627
123.570    651.402    628.467     22.935    493.167    621.110    493.167    500.565    493.167
123.670    643.000    625.285     17.715    493.716    618.090    493.716    500.948    493.716
123.770    641.000    621.782     19.218    494.272    614.776    494.272    501.313    494.272
123.870    625.000    618.040      6.960    494.837    611.247    494.837    501.663    494.837
123.970    630.978    614.138     16.840    495.411    607.575    495.411    502.003    495.411
124.070    575.994    610.146    -34.152    495.992    603.828    495.992    502.338    495.992
124.170    620.819    606.126     14.694    496.583    600.062    496.583    502.670    496.583
124.270    582.000    602.128    -20.128    497.182    596.326    497.182    503.004    497.182
124.370    601.000    598.194      2.806    497.789    592.657    497.789    503.344    497.789
124.470    568.000    594.355    -26.355    498.405    589.083    498.405    503.692    498.405
124.570    583.000    590.629     -7.629    499.030    585.621    499.030    504.052    499.030
124.670    609.000    587.031     21.969    499.664    582.280    499.664    504.425    499.664
124.770    620.000    583.563     36.437    500.306    579.064    500.306    504.815    500.306
124.870    612.000    580.225     31.775    500.958    575.969    500.958    505.222    500.958
124.970    563.254    577.014    -13.760    501.618    572.991    501.618    505.647    501.618
