neutron_powder_diffraction_0128
R_wp: 3.905
Temperature (K): 1027.396
Counts: 83442.00
Wavelength (Ã…): 2.52098
COMMENTS
Test file for demonstrating the .xyy file format in Reel1.0
END OF HEADER
   tth       Y_obs     Y_calc      Y_res    Background    Phase_1_Nuc    Phase_1_Mag    Phase_2_Nuc    Phase_2_Mag
  9.970    600.000    567.948     32.052    566.876    567.834    566.876    566.990    566.876
 10.070    603.000    568.171     34.829    567.016    568.057    567.016    567.130    567.016
 10.170    548.015    568.400    -20.386    567.149    568.285    567.149    567.263    567.149
 10.270    601.087    568.637     32.450    567.275    568.522    567.275    567.390    567.275
 10.370    571.000    568.885      2.115    567.395    568.769    567.395    567.510    567.395
 10.470    604.000    569.148     34.852    567.508    569.031    567.508    567.623    567.508
 10.570    613.000    569.431     43.569    567.614    569.314    567.614    567.730    567.614
 10.670    599.000    569.742     29.258    567.714    569.624    567.714    567.831    567.714
 10.770    616.275    570.089     46.186    567.807    569.971    567.807    567.924    567.807
 10.870    597.000    570.485     26.515    567.894    570.366    567.894    568.012    567.894
 10.970    597.000    570.948     26.052    567.975    570.828    567.975    568.093    567.975
 11.070    597.000    571.501     25.499    568.049    571.381    568.049    568.168    568.049
 11.170    537.253    572.182    -34.929    568.117    572.061    568.117    568.237    568.117
 11.270    583.877    573.048     10.829    568.180    572.926    568.180    568.299    568.180
 11.370    603.082    574.207     28.874    568.236    574.084    568.236    568.356    568.236
 11.470    595.565    575.899     19.666    568.286    575.775    568.286    568.406    568.286
 11.570    566.000    578.692    -12.692    568.330    578.565    568.330    568.451    568.330
 11.670    627.000    583.814     43.186    568.368    583.684    568.368    568.490    568.368
 11.770    595.224    593.414      1.810    568.400    593.278    568.400    568.522    568.400
 11.870    637.000    610.119     26.881    568.426    609.973    568.426    568.549    568.426
 11.970    653.000    635.202     17.798    568.447    635.041    568.447    568.571    568.447
 12.070    627.542    665.198    -37.656    568.462    665.020    568.462    568.586    568.462
 12.170    684.347    688.743     -4.396    568.472    688.551    568.472    568.596    568.472
 12.270    654.000    691.361    -37.361    568.475    691.167    568.475    568.601    568.475
 12.370    634.000    670.922    -36.922    568.474    670.739    568.474    568.600    568.474
 12.470    586.000    640.879    -54.879    568.467    640.713    568.467    568.593    568.467
 12.570    626.000    614.287     11.713    568.454    614.134    568.454    568.581    568.454
 12.670    591.000    595.966     -4.966    568.436    595.824    568.436    568.564    568.436
 12.770    582.939    585.226     -2.286    568.413    585.089    568.413    568.541    568.413
 12.870    558.000    579.476    -21.476    568.385    579.342    568.385    568.514    568.385
 12.970    575.103    576.391     -1.288    568.352    576.258    568.352    568.481    568.352
 13.070    611.000    574.571     36.429    568.313    574.438    568.313    568.443    568.313
 13.170    565.000    573.354     -8.354    568.269    573.221    568.269    568.400    568.269
 13.270    556.043    572.462    -16.419    568.221    572.329    568.221    568.352    568.221
 13.370    567.000    571.769     -4.769    568.167    571.636    568.167    568.299    568.167
 13.470    524.000    571.213    -47.213    568.109    571.079    568.109    568.241    568.109
 13.570    558.000    570.755    -12.755    568.045    570.621    568.045    568.178    568.045
 13.670    604.289    570.368     33.921    567.977    570.234    567.977    568.111    567.977
 13.770    569.000    570.036     -1.036    567.904    569.901    567.904    568.038    567.904
 13.870    562.000    569.744     -7.744    567.827    569.608    567.827    567.961    567.827
 13.970    537.304    569.482    -32.178    567.744    569.346    567.744    567.880    567.744
 14.070    603.000    569.244     33.756    567.658    569.108    567.658    567.794    567.658
 14.170    561.000    569.026     -8.026    567.566    568.889    567.566    567.703    567.566
 14.270    587.000    568.822     18.178    567.470    568.684    567.470    567.608    567.470
 14.370    575.171    568.627      6.544    567.370    568.488    567.370    567.509    567.370
 14.470    549.989    568.440    -18.450    567.266    568.301    567.266    567.405    567.266
 14.570    540.000    568.259    -28.259    567.157    568.119    567.157    567.296    567.157
 14.670    553.875    568.083    -14.208    567.043    567.942    567.043    567.184    567.043
 14.770    559.000    567.910     -8.910    566.926    567.769    566.926    567.067    566.926
 14.870    562.000    567.740     -5.740    566.804    567.598    566.804    566.946    566.804
 14.970    581.000    567.570     13.430    566.679    567.428    566.679    566.821    566.679
 15.070    582.059    567.402     14.657    566.549    567.259    566.549    566.692    566.549
 15.170    544.517    567.234    -22.717    566.415    567.090    566.415    566.559    566.415
 15.270    588.000    567.065     20.935    566.277    566.920    566.277    566.422    566.277
 15.370    509.000    566.896    -57.896    566.136    566.750    566.136    566.281    566.136
 15.470    541.000    566.726    -25.726    565.990    566.579    565.990    566.137    565.990
 15.570    611.772    566.555     45.217    565.841    566.407    565.841    565.988    565.841
 15.670    567.000    566.382      0.618    565.688    566.234    565.688    565.836    565.688
 15.770    569.000    566.207      2.793    565.531    566.058    565.531    565.680    565.531
 15.870    565.000    566.030     -1.030    565.370    565.880    565.370    565.520    565.370
 15.970    536.000    565.851    -29.851    565.206    565.700    565.206    565.356    565.206
 16.070    540.000    565.670    -25.670    565.038    565.519    565.038    565.189    565.038
 16.170    549.000    565.496    -16.496    564.866    565.344    564.866    565.019    564.866
 16.270    599.459    565.328     34.131    564.692    565.175    564.692    564.845    564.692
 16.370    538.803    565.141    -26.339    564.513    564.988    564.513    564.667    564.513
 16.470    528.000    564.951    -36.951    564.332    564.796    564.332    564.487    564.332
 16.570    578.143    564.759     13.384    564.146    564.603    564.146    564.302    564.146
 16.670    539.000    564.566    -25.566    563.958    564.409    563.958    564.115    563.958
 16.770    560.000    564.371     -4.371    563.766    564.213    563.766    563.924    563.766
 16.870    572.008    564.171      7.837    563.571    564.012    563.571    563.730    563.571
 16.970    564.000    563.968      0.032    563.373    563.809    563.373    563.533    563.373
 17.070    588.192    563.763     24.429    563.172    563.603    563.172    563.333    563.172
 17.170    593.976    563.556     30.420    562.968    563.394    562.968    563.130    562.968
 17.270    519.583    563.346    -43.763    562.761    563.183    562.761    562.923    562.761
 17.370    592.889    563.133     29.755    562.550    562.970    562.550    562.714    562.550
 17.470    572.000    562.918      9.082    562.337    562.754    562.337    562.502    562.337
 17.570    572.834    562.701     10.133    562.121    562.536    562.121    562.287    562.121
 17.670    542.000    562.482    -20.482    561.902    562.315    561.902    562.069    561.902
 17.770    539.424    562.259    -22.835    561.680    562.092    561.680    561.848    561.680
 17.870    526.000    562.035    -36.035    561.455    561.866    561.455    561.624    561.455
 17.970    553.000    561.809     -8.809    561.228    561.639    561.228    561.398    561.228
 18.070    590.129    561.581     28.548    560.998    561.410    560.998    561.169    560.998
 18.170    600.000    561.358     38.642    560.765    561.185    560.765    560.938    560.765
 18.270    514.000    561.125    -47.125    560.529    560.952    560.529    560.703    560.529
 18.370    573.000    560.890     12.110    560.291    560.715    560.291    560.467    560.291
 18.470    541.000    560.652    -19.652    560.051    560.476    560.051    560.227    560.051
 18.570    534.993    560.412    -25.419    559.808    560.235    559.808    559.986    559.808
 18.670    583.000    560.170     22.830    559.562    559.992    559.562    559.742    559.562
 18.770    595.000    559.926     35.074    559.315    559.746    559.315    559.495    559.315
 18.870    545.000    559.681    -14.681    559.064    559.499    559.064    559.246    559.064
 18.970    541.000    559.433    -18.433    558.812    559.250    558.812    558.995    558.812
 19.070    515.211    559.183    -43.972    558.557    558.999    558.557    558.742    558.557
 19.170    561.274    558.934      2.341    558.300    558.748    558.300    558.486    558.300
 19.270    515.307    558.711    -43.404    558.041    558.524    558.041    558.228    558.041
 19.370    559.000    558.529      0.471    557.779    558.340    557.779    557.968    557.779
 19.470    559.000    558.279      0.721    557.516    558.089    557.516    557.706    557.516
 19.570    546.000    558.021    -12.021    557.250    557.830    557.250    557.442    557.250
 19.670    521.000    557.761    -36.761    556.982    557.568    556.982    557.176    556.982
 19.770    576.000    557.500     18.500    556.712    557.306    556.712    556.908    556.712
 19.870    539.000    557.238    -18.238    556.441    557.041    556.441    556.637    556.441
 19.970    544.000    556.974    -12.974    556.167    556.776    556.167    556.365    556.167
 20.070    547.000    556.709     -9.709    555.891    556.509    555.891    556.092    555.891
 20.170    545.397    556.442    -11.045    555.614    556.240    555.614    555.816    555.614
 20.270    535.000    556.174    -21.174    555.335    555.971    555.335    555.538    555.335
 20.370    564.000    555.906      8.094    555.053    555.700    555.053    555.259    555.053
 20.470    599.000    555.636     43.364    554.771    555.429    554.771    554.978    554.771
 20.570    515.512    555.365    -39.853    554.486    555.156    554.486    554.696    554.486
 20.670    591.244    555.093     36.151    554.200    554.882    554.200    554.411    554.200
 20.770    528.000    554.821    -26.821    553.912    554.608    553.912    554.126    553.912
 20.870    526.000    554.551    -28.551    553.622    554.336    553.622    553.838    553.622
 20.970    541.000    554.312    -13.312    553.331    554.095    553.331    553.549    553.331
 21.070    549.117    554.070     -4.953    553.039    553.851    553.039    553.259    553.039
 21.170    540.000    553.800    -13.800    552.745    553.578    552.745    552.967    552.745
 21.270    511.864    553.526    -41.662    552.449    553.302    552.449    552.674    552.449
 21.370    560.000    553.254      6.746    552.152    553.027    552.152    552.379    552.152
 21.470    566.476    552.996     13.480    551.854    552.767    551.854    552.083    551.854
 21.570    582.204    552.735     29.469    551.554    552.504    551.554    551.786    551.554
 21.670    526.570    552.467    -25.897    551.253    552.233    551.253    551.487    551.253
 21.770    573.000    552.196     20.804    550.950    551.959    550.950    551.188    550.950
 21.870    573.716    551.927     21.789    550.647    551.687    550.647    550.887    550.647
 21.970    567.642    551.659     15.983    550.342    551.417    550.342    550.585    550.342
 22.070    574.000    551.394     22.606    550.036    551.149    550.036    550.282    550.036
 22.170    577.236    551.131     26.105    549.728    550.883    549.728    549.977    549.728
 22.270    512.382    550.872    -38.491    549.420    550.621    549.420    549.672    549.420
 22.370    580.000    550.629     29.371    549.110    550.375    549.110    549.366    549.110
 22.470    569.000    550.414     18.586    548.800    550.156    548.800    549.059    548.800
 22.570    538.000    550.177    -12.177    548.488    549.916    548.488    548.750    548.488
 22.670    526.000    549.940    -23.940    548.175    549.675    548.175    548.441    548.175
 22.770    587.116    549.712     37.404    547.862    549.443    547.862    548.132    547.862
 22.870    576.000    549.501     26.499    547.547    549.229    547.547    547.821    547.547
 22.970    546.527    549.299     -2.771    547.232    549.022    547.232    547.509    547.232
 23.070    524.000    549.109    -25.109    546.916    548.829    546.916    547.197    546.916
 23.170    530.000    548.939    -18.939    546.598    548.654    546.598    546.884    546.598
 23.270    562.000    548.794     13.206    546.280    548.505    546.280    546.571    546.280
 23.370    574.723    548.680     26.043    545.962    548.387    545.962    546.257    545.962
 23.470    587.991    548.608     39.383    545.642    548.310    545.642    545.942    545.642
 23.570    539.000    548.590     -9.590    545.322    548.286    545.322    545.627    545.322
 23.670    546.991    548.643     -1.653    545.001    548.335    545.001    545.311    545.001
 23.770    543.000    548.797     -5.797    544.679    548.484    544.679    544.995    544.679
 23.870    553.045    549.102      3.943    544.357    548.783    544.357    544.679    544.357
 23.970    565.000    549.655     15.345    544.034    549.331    544.034    544.362    544.034
 24.070    550.000    550.660     -0.660    543.711    550.330    543.711    544.045    543.711
 24.170    515.000    552.577    -37.577    543.386    552.242    543.386    543.727    543.386
 24.270    544.000    556.314    -12.314    543.062    555.975    543.062    543.410    543.062
 24.370    549.000    563.274    -14.274    542.737    562.933    542.737    543.092    542.737
 24.470    620.573    574.894     45.679    542.411    574.554    542.411    542.774    542.411
 24.570    566.000    591.343    -25.343    542.085    591.007    542.085    542.456    542.085
 24.670    585.000    609.753    -24.753    541.759    609.422    541.759    542.138    541.759
 24.770    616.805    622.719     -5.914    541.432    622.388    541.432    541.820    541.432
 24.870    659.704    622.176     37.528    541.105    621.836    541.105    541.503    541.105
 24.970    626.000    608.352     17.648    540.778    607.993    540.778    541.185    540.778
 25.070    632.199    589.391     42.808    540.450    589.007    540.450    540.868    540.450
 25.170    589.000    572.542     16.458    540.122    572.136    540.122    540.551    540.122
 25.270    575.719    560.582     15.136    539.794    560.155    539.794    540.235    539.794
 25.370    536.000    553.221    -17.221    539.465    552.776    539.465    539.919    539.465
 25.470    549.000    549.026     -0.026    539.137    548.565    539.137    539.604    539.137
 25.570    567.000    546.621     20.379    538.808    546.143    538.808    539.289    538.808
 25.670    564.000    545.115     18.885    538.479    544.621    538.479    538.976    538.479
 25.770    548.639    544.054      4.585    538.150    543.543    538.150    538.663    538.150
 25.870    552.258    543.239      9.019    537.820    542.710    537.820    538.351    537.820
 25.970    595.000    542.591     52.409    537.491    542.043    537.491    538.041    537.491
 26.070    555.000    542.043     12.957    537.162    541.474    537.162    537.732    537.162
 26.170    547.589    541.576      6.012    536.832    540.986    536.832    537.424    536.832
 26.270    585.000    541.180     43.820    536.503    540.565    536.503    537.119    536.503
 26.370    496.095    540.846    -44.752    536.174    540.206    536.174    536.815    536.174
 26.470    531.000    540.566     -9.566    535.844    539.897    535.844    536.514    535.844
 26.570    499.664    540.338    -40.674    535.515    539.639    535.515    536.215    535.515
 26.670    523.000    540.166    -17.166    535.186    539.433    535.186    535.919    535.186
 26.770    590.000    540.052     49.948    534.857    539.283    534.857    535.626    534.857
 26.870    498.936    540.005    -41.070    534.528    539.197    534.528    535.337    534.528
 26.970    563.000    540.038     22.962    534.199    539.186    534.199    535.052    534.199
 27.070    532.000    540.168     -8.168    533.871    539.267    533.871    534.772    533.871
 27.170    573.000    540.422     32.578    533.543    539.468    533.543    534.497    533.543
 27.270    541.000    540.841      0.159    533.215    539.828    533.215    534.228    533.215
 27.370    512.895    541.490    -28.595    532.887    540.410    532.887    533.967    532.887
 27.470    580.000    542.477     37.523    532.559    541.323    532.559    533.713    532.559
 27.570    580.144    544.113     36.031    532.232    542.874    532.232    533.470    532.232
 27.670    520.734    547.571    -26.837    531.905    546.236    531.905    533.238    531.905
 27.770    568.603    557.120     11.483    531.579    555.673    531.579    533.020    531.579
 27.870    603.000    584.222     18.778    531.253    582.641    531.253    532.818    531.253
 27.970    607.571    647.856    -40.285    530.927    646.110    530.927    532.636    530.927
 28.070    704.000    758.250    -54.250    530.601    756.305    530.601    532.478    530.601
 28.170    886.000    885.887      0.113    530.276    883.719    530.276    532.348    530.276
 28.270    982.000    955.389     26.611    529.952    952.994    529.952    532.253    529.952
 28.370    929.000    912.984     16.016    529.628    910.354    529.628    532.199    529.628
 28.470    818.000    802.724     15.276    529.304    799.812    529.304    532.195    529.304
 28.570    718.350    710.367      7.983    528.981    707.094    528.981    532.249    528.981
 28.670    679.000    685.974     -6.974    528.659    682.252    528.659    532.373    528.659
 28.770    728.000    727.738      0.262    528.337    723.483    528.337    532.575    528.337
 28.870    848.463    796.393     52.070    528.016    791.523    528.016    532.865    528.016
 28.970    795.000    833.283    -38.283    527.695    827.715    527.695    533.250    527.695
 29.070    750.480    800.951    -50.471    527.375    794.601    527.375    533.729    527.375
 29.170    649.000    723.247    -74.247    527.055    716.029    527.055    534.289    527.055
 29.270    620.953    645.903    -24.949    526.736    637.758    526.736    534.897    526.736
 29.370    604.000    593.514     10.486    526.418    584.452    526.418    535.491    526.418
 29.470    606.000    566.413     39.587    526.101    556.541    526.101    535.978    526.101
 29.570    590.029    554.693     35.336    525.784    544.232    525.784    536.247    525.784
 29.670    586.059    549.672     36.387    525.468    538.943    525.468    536.198    525.468
 29.770    578.000    546.914     31.086    525.152    536.287    525.152    535.780    525.152
 29.870    549.000    544.819      4.181    524.838    534.643    524.838    535.014    524.838
 29.970    585.936    542.970     42.966    524.524    533.512    524.524    533.982    524.524
 30.070    535.653    541.326     -5.673    524.211    532.741    524.211    532.796    524.211
 30.170    595.000    539.969     55.031    523.898    532.309    523.898    531.558    523.898
 30.270    568.000    539.093     28.907    523.587    532.335    523.587    530.343    523.587
 30.370    568.000    539.181     28.819    523.276    533.257    523.276    529.198    523.276
 30.470    565.000    541.347     23.653    522.967    536.165    522.967    528.144    522.967
 30.570    583.101    547.513     35.588    522.658    542.976    522.658    527.184    522.658
 30.670    603.000    559.675     43.325    522.350    555.688    522.350    526.317    522.350
 30.770    617.000    577.718     39.282    522.043    574.194    522.043    525.533    522.043
 30.870    619.000    596.679     22.321    521.737    593.548    521.737    524.822    521.737
 30.970    561.530    606.406    -44.875    521.432    603.612    521.432    524.176    521.432
 31.070    546.000    599.456    -53.456    521.127    596.958    521.127    523.583    521.127
 31.170    560.000    580.710    -20.710    520.824    578.469    520.824    523.036    520.824
 31.270    589.284    560.459     28.826    520.522    558.437    520.522    522.527    520.522
 31.370    553.000    545.134      7.866    520.221    543.297    520.221    522.049    520.221
 31.470    520.762    535.938    -15.175    519.920    534.256    519.920    521.598    519.920
 31.570    553.000    531.213     21.787    519.621    529.662    519.621    521.169    519.621
 31.670    521.591    528.910     -7.319    519.323    527.473    519.323    520.759    519.323
 31.770    539.000    527.696     11.304    519.026    526.357    519.026    520.364    519.026
 31.870    540.751    526.950     13.801    518.730    525.697    518.730    519.982    518.730
 31.970    562.039    526.441     35.598    518.435    525.264    518.435    519.612    518.435
 32.070    544.000    526.090     17.910    518.141    524.979    518.141    519.251    518.141
 32.170    524.612    525.868     -1.256    517.848    524.817    517.848    518.899    517.848
 32.270    520.653    525.765     -5.113    517.557    524.767    517.557    518.554    517.557
 32.370    566.000    525.783     40.217    517.266    524.833    517.266    518.216    517.266
 32.470    490.000    525.931    -35.931    516.977    525.024    516.977    517.884    516.977
 32.570    508.000    526.228    -18.228    516.689    525.359    516.689    517.558    516.689
 32.670    537.000    526.700     10.300    516.402    525.866    516.402    517.236    516.402
 32.770    550.000    527.390     22.610    516.116    526.587    516.116    516.919    516.116
 32.870    511.000    528.359    -17.359    515.832    527.585    515.832    516.606    515.832
 32.970    532.991    529.696      3.295    515.548    528.947    515.548    516.297    515.548
 33.070    572.000    531.544     40.456    515.266    530.819    515.266    515.991    515.266
 33.170    564.000    534.173     29.827    514.986    533.468    514.986    515.689    514.986
 33.270    505.000    538.206    -33.206    514.706    537.521    514.706    515.390    514.706
 33.370    502.604    545.254    -42.650    514.428    544.586    514.428    515.093    514.428
 33.470    562.000    559.183      2.817    514.151    558.528    514.151    514.800    514.151
 33.570    611.893    587.632     24.260    513.875    586.988    513.875    514.509    513.875
 33.670    665.098    641.733     23.365    513.600    641.094    513.600    514.221    513.600
 33.770    760.551    730.813     29.738    513.327    730.173    513.327    513.935    513.327
 33.870    876.000    851.208     24.792    513.056    850.566    513.056    513.652    513.056
 33.970    910.937    973.593    -62.656    512.785    972.955    512.785    513.371    512.785
 34.070   1073.593   1041.802     31.791    512.516   1041.183    512.516    513.092    512.516
 34.170   1024.237   1012.583     11.654    512.248   1011.995    512.248    512.815    512.248
 34.270    897.000    906.520     -9.520    511.982    905.961    511.982    512.541    511.982
 34.370    775.000    780.208     -5.208    511.717    779.666    511.717    512.268    511.717
 34.470    638.000    675.435    -37.435    511.453    674.900    511.453    511.998    511.453
 34.570    609.000    605.938      3.062    511.191    605.407    511.191    511.730    511.191
 34.670    566.000    566.735     -0.735    510.930    566.206    510.930    511.463    510.930
 34.770    590.651    546.694     43.957    510.671    546.168    510.671    511.198    510.671
 34.870    540.000    536.488      3.512    510.413    535.966    510.413    510.936    510.413
 34.970    560.000    530.728     29.272    510.157    530.210    510.157    510.675    510.157
 35.070    563.000    526.957     36.043    509.902    526.443    509.902    510.416    509.902
 35.170    483.000    524.192    -41.192    509.648    523.681    509.648    510.159    509.648
 35.270    528.000    522.034      5.966    509.396    521.527    509.396    509.904    509.396
 35.370    493.000    520.294    -27.294    509.145    519.790    509.145    509.650    509.145
 35.470    529.000    518.859     10.141    508.896    518.357    508.896    509.399    508.896
 35.570    549.000    517.654     31.346    508.648    517.153    508.648    509.149    508.648
 35.670    533.879    516.625     17.254    508.402    516.127    508.402    508.901    508.402
 35.770    505.000    515.737    -10.737    508.158    515.240    508.158    508.655    508.158
 35.870    542.000    514.959     27.041    507.914    514.464    507.914    508.410    507.914
 35.970    518.000    514.273      3.727    507.673    513.779    507.673    508.168    507.673
 36.070    539.000    513.662     25.338    507.433    513.169    507.433    507.927    507.433
 36.170    536.394    513.115     23.279    507.194    512.622    507.194    507.688    507.194
 36.270    504.000    512.624     -8.624    506.957    512.131    506.957    507.450    506.957
 36.370    524.000    512.183     11.817    506.722    511.690    506.722    507.215    506.722
 36.470    485.000    511.788    -26.788    506.488    511.295    506.488    506.981    506.488
 36.570    535.000    511.438     23.562    506.255    510.945    506.255    506.749    506.255
 36.670    534.000    511.138     22.862    506.025    510.645    506.025    506.519    506.025
 36.770    481.000    510.899    -29.899    505.796    510.405    505.796    506.290    505.796
 36.870    481.000    510.749    -29.749    505.568    510.255    505.568    506.064    505.568
 36.970    519.000    510.750      8.250    505.342    510.254    505.342    505.839    505.342
 37.070    543.000    511.010     31.990    505.118    510.514    505.118    505.616    505.118
 37.170    495.000    511.693    -16.693    504.895    511.196    504.895    505.394    504.895
 37.270    546.000    512.981     33.019    504.674    512.482    504.674    505.175    504.674
 37.370    551.000    514.984     36.016    504.454    514.483    504.454    504.957    504.454
 37.470    522.000    517.601      4.399    504.236    517.099    504.236    504.741    504.236
 37.570    498.000    520.351    -22.351    504.020    519.848    504.020    504.526    504.020
 37.670    525.278    522.314      2.964    503.806    521.811    503.806    504.314    503.806
 37.770    558.000    522.578     35.422    503.593    522.074    503.593    504.103    503.593
 37.870    510.000    521.047    -11.047    503.381    520.543    503.381    503.895    503.381
 37.970    493.000    518.470    -25.470    503.172    517.965    503.172    503.688    503.172
 38.070    484.000    515.608    -31.608    502.964    515.101    502.964    503.482    502.964
 38.170    493.000    512.880    -19.880    502.757    512.369    502.757    503.279    502.757
 38.270    506.000    510.564     -4.564    502.553    510.047    502.553    503.077    502.553
 38.370    548.347    508.798     39.548    502.350    508.276    502.350    502.878    502.350
 38.470    493.743    507.551    -13.807    502.148    507.024    502.148    502.680    502.148
 38.570    453.000    506.701    -53.701    501.949    506.169    501.949    502.484    501.949
 38.670    523.000    506.116     16.884    501.751    505.579    501.751    502.289    501.751
 38.770    506.840    505.690      1.151    501.554    505.149    501.554    502.097    501.554
 38.870    559.000    505.352     53.648    501.360    504.807    501.360    501.906    501.360
 38.970    517.000    505.066     11.934    501.167    504.516    501.167    501.718    501.167
 39.070    480.000    504.811    -24.811    500.976    504.257    500.976    501.531    500.976
 39.170    469.000    504.578    -35.578    500.786    504.019    500.786    501.346    500.786
 39.270    499.000    504.362     -5.362    500.598    503.799    500.598    501.163    500.598
 39.370    520.000    504.160     15.840    500.412    503.592    500.412    500.982    500.412
 39.470    553.000    503.971     49.029    500.228    503.398    500.228    500.802    500.228
 39.570    557.000    503.794     53.206    500.046    503.216    500.046    500.625    500.046
 39.670    508.000    503.627      4.373    499.865    503.044    499.865    500.449    499.865
 39.770    525.000    503.470     21.530    499.685    502.882    499.685    500.276    499.685
 39.870    545.000    503.324     41.676    499.508    502.729    499.508    500.104    499.508
 39.970    479.000    503.187    -24.187    499.332    502.587    499.332    499.934    499.332
 40.070    480.092    503.061    -22.969    499.158    502.454    499.158    499.766    499.158
 40.170    493.602    502.945     -9.343    498.986    502.332    498.986    499.600    498.986
 40.270    547.311    502.841     44.470    498.816    502.222    498.816    499.436    498.816
 40.370    495.000    502.749     -7.749    498.647    502.123    498.647    499.274    498.647
 40.470    472.000    502.670    -30.670    498.480    502.037    498.480    499.114    498.480
 40.570    501.453    502.607     -1.153    498.315    501.967    498.315    498.956    498.315
 40.670    523.096    502.561     20.536    498.151    501.913    498.151    498.800    498.151
 40.770    453.000    502.534    -49.534    497.989    501.879    497.989    498.646    497.989
 40.870    514.456    502.531     11.925    497.829    501.868    497.829    498.493    497.829
 40.970    527.154    502.554     24.599    497.671    501.884    497.671    498.343    497.671
 41.070    504.000    502.611      1.389    497.514    501.932    497.514    498.195    497.514
 41.170    493.000    502.707     -9.707    497.360    502.020    497.360    498.049    497.360
 41.270    535.938    502.854     33.084    497.207    502.158    497.207    497.905    497.207
 41.370    497.806    503.064     -5.258    497.055    502.358    497.055    497.763    497.055
 41.470    521.000    503.356     17.644    496.906    502.641    496.906    497.623    496.906
 41.570    506.319    503.762      2.557    496.758    503.038    496.758    497.485    496.758
 41.670    531.048    504.341     26.706    496.612    503.607    496.612    497.349    496.612
 41.770    501.000    505.219     -4.219    496.468    504.475    496.468    497.215    496.468
 41.870    474.737    506.672    -31.935    496.325    505.918    496.325    497.084    496.325
 41.970    513.875    509.264      4.612    496.185    508.500    496.185    496.954    496.185
 42.070    485.451    513.994    -28.542    496.046    513.220    496.046    496.827    496.046
 42.170    517.000    522.301     -5.301    495.908    521.520    495.908    496.701    495.908
 42.270    562.995    535.695     27.300    495.773    534.907    495.773    496.578    495.773
 42.370    544.769    554.872    -10.103    495.639    554.081    495.639    496.458    495.639
 42.470    549.000    578.463    -29.463    495.507    577.671    495.507    496.339    495.507
 42.570    606.521    601.836      4.684    495.377    601.044    495.377    496.223    495.377
 42.670    659.901    617.152     42.749    495.249    616.356    495.249    496.109    495.249
 42.770    578.000    617.295    -39.295    495.122    616.487    495.122    495.997    495.122
 42.870    588.000    602.143    -14.143    494.997    601.313    494.997    495.887    494.997
 42.970    551.000    578.708    -27.708    494.874    577.850    494.874    495.780    494.874
 43.070    541.000    554.894    -13.894    494.753    554.006    494.753    495.676    494.753
 43.170    527.000    535.427     -8.427    494.633    534.510    494.633    495.573    494.633
 43.270    543.000    521.742     21.258    494.515    520.799    494.515    495.473    494.515
 43.370    553.191    513.179     40.012    494.399    512.211    494.399    495.376    494.399
 43.470    529.000    508.235     20.765    494.284    507.244    494.284    495.281    494.284
 43.570    475.000    505.461    -30.461    494.172    504.449    494.172    495.189    494.172
 43.670    476.000    503.847    -27.847    494.061    502.812    494.061    495.099    494.061
 43.770    500.000    502.818     -2.818    493.952    501.760    493.952    495.013    493.952
 43.870    516.000    502.095     13.905    493.844    501.013    493.844    494.928    493.844
 43.970    500.000    501.548     -1.548    493.738    500.442    493.738    494.847    493.738
 44.070    482.000    501.119    -19.119    493.634    499.987    493.634    494.768    493.634
 44.170    509.000    500.776      8.224    493.532    499.617    493.532    494.693    493.532
 44.270    492.000    500.500     -8.500    493.432    499.313    493.432    494.620    493.432
 44.370    472.639    500.277    -27.639    493.333    499.061    493.333    494.551    493.333
 44.470    499.000    500.099     -1.099    493.236    498.851    493.236    494.485    493.236
 44.570    477.982    499.957    -21.975    493.140    498.677    493.140    494.422    493.140
 44.670    467.000    499.848    -32.848    493.047    498.533    493.047    494.362    493.047
 44.770    529.000    499.766     29.234    492.955    498.416    492.955    494.306    492.955
 44.870    492.000    499.710     -7.710    492.865    498.322    492.865    494.254    492.865
 44.970    501.000    499.677      1.323    492.776    498.249    492.776    494.206    492.776
 45.070    505.000    499.667      5.333    492.690    498.196    492.690    494.161    492.690
 45.170    477.242    499.677    -22.435    492.605    498.161    492.605    494.121    492.605
 45.270    499.000    499.708     -0.708    492.521    498.145    492.521    494.085    492.521
 45.370    524.000    499.759     24.241    492.440    498.146    492.440    494.054    492.440
 45.470    517.000    499.832     17.168    492.360    498.164    492.360    494.028    492.360
 45.570    483.000    499.926    -16.926    492.281    498.201    492.281    494.007    492.281
 45.670    504.000    500.043      3.957    492.205    498.257    492.205    493.992    492.205
 45.770    512.000    500.185     11.815    492.130    498.333    492.130    493.982    492.130
 45.870    481.000    500.353    -19.353    492.057    498.432    492.057    493.979    492.057
 45.970    474.000    500.550    -26.550    491.985    498.554    491.985    493.982    491.985
 46.070    501.000    500.779      0.221    491.916    498.703    491.916    493.993    491.916
 46.170    501.024    501.046     -0.022    491.847    498.882    491.847    494.012    491.847
 46.270    531.440    501.354     30.085    491.781    499.097    491.781    494.039    491.781
 46.370    515.000    501.712     13.288    491.716    499.353    491.716    494.075    491.716
 46.470    484.000    502.128    -18.128    491.653    499.659    491.653    494.122    491.653
 46.570    516.778    502.616     14.162    491.591    500.028    491.591    494.179    491.591
 46.670    512.000    503.195      8.805    491.532    500.477    491.532    494.249    491.532
 46.770    460.593    503.903    -43.310    491.473    501.042    491.473    494.333    491.473
 46.870    519.000    504.805     14.195    491.417    501.788    491.417    494.432    491.417
 46.970    476.000    506.061    -30.061    491.362    502.872    491.362    494.549    491.362
 47.070    552.000    507.945     44.055    491.309    504.566    491.309    494.685    491.309
 47.170    515.000    510.928      4.072    491.257    507.337    491.257    494.843    491.257
 47.270    537.660    515.690     21.970    491.207    511.862    491.207    495.027    491.207
 47.370    515.000    522.996     -7.996    491.158    518.901    491.158    495.241    491.158
 47.470    547.531    533.397     14.134    491.112    528.999    491.112    495.490    491.112
 47.570    529.000    546.756    -17.756    491.066    542.013    491.066    495.780    491.066
 47.670    537.000    561.737    -24.737    491.023    556.600    491.023    496.119    491.023
 47.770    560.288    575.429    -15.141    490.981    569.843    490.981    496.518    490.981
 47.870    587.000    583.756      3.244    490.940    577.656    490.940    496.989    490.940
 47.970    625.000    583.705     41.295    490.902    577.012    490.902    497.545    490.902
 48.070    565.000    575.901    -10.901    490.864    568.517    490.864    498.206    490.864
 48.170    533.000    563.996    -30.996    490.829    555.801    490.829    498.992    490.829
 48.270    526.193    551.899    -25.706    490.794    542.743    490.794    499.927    490.794
 48.370    535.861    542.136     -6.275    490.762    531.843    490.762    501.040    490.762
 48.470    511.000    535.747    -24.747    490.731    524.110    490.731    502.359    490.731
 48.570    551.000    532.714     18.286    490.701    519.494    490.701    503.916    490.701
 48.670    558.000    532.477     25.523    490.673    517.409    490.673    505.738    490.673
 48.770    553.000    534.371     18.629    490.647    517.165    490.647    507.851    490.647
 48.870    539.114    537.878      1.237    490.622    518.233    490.622    510.266    490.622
 48.970    527.000    542.718    -15.718    490.599    520.342    490.599    512.973    490.599
 49.070    511.926    548.877    -36.952    490.577    523.526    490.577    515.928    490.577
 49.170    557.000    556.757      0.243    490.557    528.286    490.557    519.026    490.557
 49.270    613.000    567.730     45.270    490.538    536.174    490.538    522.091    490.538
 49.370    543.853    585.531    -41.677    490.521    551.186    490.521    524.858    490.521
 49.470    587.000    618.794    -31.794    490.505    582.280    490.505    527.001    490.505
 49.570    770.000    684.112     85.888    490.491    646.362    490.491    528.204    490.491
 49.670    786.545    806.904    -20.359    490.478    769.052    490.478    528.261    490.478
 49.770    996.421   1015.331    -18.909    490.466    978.526    490.466    527.163    490.466
 49.870   1358.000   1323.988     34.012    490.456   1289.202    490.456    525.101    490.456
 49.970   1634.766   1711.417    -76.650    490.448   1679.329    490.448    522.388    490.448
 50.070   2135.000   2104.873     30.127    490.441   2075.857    490.441    519.351    490.441
 50.170   2345.000   2389.458    -44.458    490.435   2363.618    490.435    516.262    490.435
 50.270   2383.000   2455.759    -72.759    490.431   2432.984    490.431    513.306    490.431
 50.370   2187.000   2273.486    -86.486    490.429   2253.508    490.429    510.591    490.429
 50.470   1885.000   1918.791    -33.791    490.427   1901.263    490.427    508.167    490.427
 50.570   1524.000   1514.508      9.492    490.427   1499.082    490.427    506.046    490.427
 50.670   1113.025   1160.303    -47.279    490.429   1146.664    490.429    504.216    490.429
 50.770    848.208    904.299    -56.091    490.432    892.177    490.432    502.656    490.432
 50.870    777.000    747.574     29.426    490.436    736.743    490.436    501.336    490.436
 50.970    641.127    664.843    -23.717    490.442    655.109    490.442    500.226    490.442
 51.070    638.000    625.434     12.566    490.449    616.628    490.449    499.295    490.449
 51.170    603.000    605.510     -2.510    490.457    597.485    490.457    498.517    490.457
 51.270    566.303    591.604    -25.301    490.467    584.235    490.467    497.867    490.467
 51.370    541.415    578.802    -37.387    490.478    571.983    490.478    497.324    490.478
 51.470    584.000    566.671     17.329    490.491    560.314    490.491    496.868    490.491
 51.570    550.000    556.001     -6.001    490.505    550.035    490.505    496.486    490.505
 51.670    572.000    547.439     24.561    490.520    541.806    490.520    496.166    490.520
 51.770    551.320    541.205     10.115    490.536    535.854    490.536    495.896    490.536
 51.870    582.000    537.159     44.841    490.554    532.051    490.554    495.669    490.554
 51.970    539.000    534.970      4.030    490.573    530.069    490.573    495.480    490.573
 52.070    545.307    534.284     11.023    490.593    529.561    490.593    495.321    490.593
 52.170    543.000    534.859      8.141    490.615    530.288    490.615    495.191    490.615
 52.270    528.000    536.652     -8.652    490.638    532.210    490.638    495.084    490.638
 52.370    561.000    539.916     21.084    490.662    535.583    490.662    494.999    490.662
 52.470    590.000    545.375     44.625    490.688    541.133    490.688    494.932    490.688
 52.570    539.412    554.494    -15.081    490.714    550.328    490.714    494.884    490.714
 52.670    583.115    569.812     13.303    490.742    565.706    490.742    494.851    490.742
 52.770    612.272    595.143     17.129    490.771    591.084    490.771    494.832    490.771
 52.870    676.000    635.315     40.685    490.802    631.291    490.802    494.828    490.802
 52.970    723.698    695.098     28.600    490.833    691.097    490.833    494.836    490.833
 53.070    755.103    777.178    -22.075    490.866    773.191    490.866    494.857    490.866
 53.170    891.701    879.505     12.196    490.900    875.523    490.900    494.888    490.900
 53.270   1011.760    992.627     19.133    490.935    988.644    490.935    494.931    490.935
 53.370   1127.000   1097.871     29.129    490.972   1093.882    490.972    494.985    490.972
 53.470   1179.614   1168.986     10.628    491.009   1164.983    491.009    495.050    491.009
 53.570   1249.021   1182.219     66.802    491.048   1178.191    491.048    495.125    491.048
 53.670   1133.000   1132.419      0.581    491.088   1128.351    491.088    495.210    491.088
 53.770    976.019   1037.656    -61.637    491.129   1033.532    491.129    495.305    491.129
 53.870    883.000    925.343    -42.343    491.171    921.148    491.171    495.411    491.171
 53.970    799.000    817.832    -18.832    491.214    813.555    491.214    495.527    491.214
 54.070    656.000    728.039    -72.039    491.258    723.670    491.258    495.655    491.258
 54.170    651.000    660.568     -9.568    491.304    656.098    491.304    495.793    491.304
 54.270    563.000    614.212    -51.212    491.350    609.634    491.350    495.943    491.350
 54.370    612.000    584.704     27.296    491.398    580.007    491.398    496.104    491.398
 54.470    611.000    567.028     43.972    491.446    562.203    491.446    496.278    491.446
 54.570    528.000    556.892    -28.892    491.496    551.928    491.496    496.466    491.496
 54.670    583.000    551.259     31.741    491.547    546.144    491.547    496.667    491.547
 54.770    600.000    548.271     51.729    491.599    542.992    491.599    496.882    491.599
 54.870    562.000    546.915     15.085    491.652    541.457    491.652    497.114    491.652
 54.970    542.000    546.688     -4.688    491.705    541.036    491.705    497.362    491.705
 55.070    643.000    547.371     95.629    491.760    541.507    491.760    497.628    491.760
 55.170    571.879    548.887     22.992    491.816    542.793    491.816    497.914    491.816
 55.270    575.000    551.249     23.751    491.873    544.905    491.873    498.221    491.873
 55.370    580.782    554.539     26.243    491.931    547.922    491.931    498.551    491.931
 55.470    524.745    558.938    -34.192    491.990    552.025    491.990    498.906    491.990
 55.570    540.277    564.811    -24.535    492.050    557.576    492.050    499.289    492.050
 55.670    583.294    572.920     10.374    492.110    565.332    492.110    499.703    492.110
 55.770    617.000    584.848     32.152    492.172    576.874    492.172    500.149    492.172
 55.870    607.215    603.761      3.453    492.235    595.364    492.235    500.634    492.235
 55.970    623.000    635.495    -12.495    492.298    626.632    492.298    501.160    492.298
 56.070    660.843    689.667    -28.824    492.363    680.290    492.363    501.732    492.363
 56.170    765.000    780.024    -15.024    492.428    770.079    492.428    502.358    492.428
 56.270    874.629    922.796    -48.167    492.494    912.222    492.494    503.044    492.494
 56.370   1070.000   1132.011    -62.011    492.561   1120.742    492.561    503.799    492.561
 56.470   1350.000   1411.900    -61.900    492.629   1399.865    492.629    504.634    492.629
 56.570   1668.000   1748.285    -80.285    492.698   1735.407    492.698    505.562    492.698
 56.670   2032.000   2101.975    -69.975    492.768   2088.167    492.768    506.600    492.768
 56.770   2454.126   2407.865     46.261    492.838   2393.024    492.838    507.768    492.838
 56.870   2551.340   2587.578    -36.237    492.910   2571.568    492.910    509.091    492.910
 56.970   2505.242   2584.147    -78.905    492.982   2566.778    492.982    510.601    492.982
 57.070   2372.007   2399.622    -27.615    493.055   2380.638    493.055    512.336    493.055
 57.170   2142.000   2093.448     48.552    493.129   2072.533    493.129    514.342    493.129
 57.270   1762.992   1743.941     19.051    493.203   1720.738    493.203    516.673    493.203
 57.370   1477.549   1414.982     62.568    493.278   1389.083    493.278    519.392    493.278
 57.470   1087.874   1144.421    -56.547    493.355   1115.363    493.355    522.571    493.355
 57.570    928.000    945.432    -17.432    493.431    912.683    493.431    526.289    493.431
 57.670    810.000    813.388     -3.388    493.509    776.337    493.509    530.630    493.509
 57.770    707.000    734.625    -27.625    493.587    692.572    493.587    535.684    493.587
 57.870    666.832    694.101    -27.269    493.666    646.257    493.666    541.534    493.666
 57.970    683.000    680.117      2.883    493.746    625.615    493.746    548.259    493.746
 58.070    672.380    685.937    -13.557    493.826    623.849    493.826    555.915    493.826
 58.170    706.000    709.195     -3.195    493.907    638.569    493.907    564.525    493.907
 58.270    754.000    750.140      3.860    493.989    670.060    493.989    574.052    493.989
 58.370    785.914    809.495    -23.580    494.072    719.176    494.072    584.364    494.072
 58.470    870.000    886.448    -16.448    494.155    785.378    494.155    595.192    494.155
 58.570    968.000    977.132     -9.132    494.238    865.262    494.238    606.075    494.238
 58.670   1131.634   1074.007     57.627    494.323    951.968    494.323    616.333    494.323
 58.770   1131.000   1166.917    -35.917    494.408   1036.214    494.408    625.093    494.408
 58.870   1220.000   1245.916    -25.916    494.493   1109.004    494.493    631.403    494.493
 58.970   1270.073   1303.013    -32.940    494.579   1163.151    494.579    634.458    494.579
 59.070   1289.864   1331.331    -41.467    494.666   1192.199    494.666    633.833    494.666
 59.170   1325.036   1326.324     -1.288    494.753   1191.489    494.753    629.636    494.753
 59.270   1288.080   1290.733     -2.653    494.841   1163.157    494.841    622.467    494.841
 59.370   1257.857   1236.501     21.356    494.930   1118.252    494.930    613.215    494.930
 59.470   1265.000   1179.795     85.205    495.018   1072.003    495.018    602.821    495.018
 59.570   1087.045   1135.763    -48.718    495.108   1038.756    495.108    592.091    495.108
 59.670   1109.000   1117.472     -8.472    495.198   1030.986    495.198    581.616    495.198
 59.770   1190.000   1135.308     54.692    495.288   1058.700    495.288    571.781    495.288
 59.870   1138.625   1193.165    -54.539    495.379   1125.583    495.379    562.796    495.379
 59.970   1250.784   1284.227    -33.442    495.471   1224.735    495.471    554.753    495.471
 60.070   1427.000   1389.563     37.437    495.563   1337.221    495.563    547.663    495.563
 60.170   1548.000   1480.228     67.772    495.655   1434.142    495.655    541.489    495.655
 60.270   1600.044   1524.230     75.814    495.748   1483.578    495.748    536.166    495.748
 60.370   1519.000   1499.715     19.285    495.841   1463.752    495.841    531.613    495.841
 60.470   1430.000   1407.108     22.892    495.935   1375.160    495.935    527.744    495.935
 60.570   1213.000   1267.706    -54.706    496.029   1239.173    496.029    524.474    496.029
 60.670   1099.000   1110.751    -11.751    496.123   1085.106    496.123    521.719    496.123
 60.770    937.984    961.721    -23.737    496.218    938.511    496.218    519.405    496.218
 60.870    838.589    837.159      1.430    496.313    816.001    496.313    517.463    496.313
 60.970    748.000    744.200      3.800    496.409    724.771    496.409    515.834    496.409
 61.070    723.000    682.798     40.202    496.505    664.831    496.505    514.468    496.505
 61.170    641.693    649.262     -7.569    496.601    632.535    496.601    513.319    496.601
 61.270    630.531    639.699     -9.169    496.698    624.028    496.698    512.352    496.698
 61.370    697.380    652.287     45.093    496.795    637.520    496.795    511.533    496.795
 61.470    656.000    687.885    -31.885    496.892    673.898    496.892    510.834    496.892
 61.570    739.823    749.008     -9.185    496.989    735.704    496.989    510.229    496.989
 61.670    790.403    837.530    -47.127    497.087    824.835    497.087    509.693    497.087
 61.770    918.000    951.755    -33.755    497.185    939.622    497.185    509.203    497.185
 61.870   1125.846   1083.757     42.090    497.284   1072.161    497.284    508.742    497.284
 61.970   1239.927   1217.881     22.046    497.382   1206.818    497.382    508.297    497.382
 62.070   1372.982   1331.343     41.640    497.481   1320.818    497.481    507.860    497.481
 62.170   1381.428   1398.646    -17.218    497.580   1388.672    497.580    507.431    497.580
 62.270   1384.208   1401.299    -17.091    497.679   1391.876    497.679    507.014    497.679
 62.370   1253.000   1338.127    -85.127    497.779   1329.241    497.779    506.614    497.779
 62.470   1272.000   1226.067     45.933    497.878   1217.689    497.878    506.236    497.878
 62.570   1025.000   1090.412    -65.412    497.978   1082.505    497.978    505.886    497.978
 62.670   1013.185    954.490     58.695    498.078    947.015    498.078    505.566    498.078
 62.770    796.457    834.638    -38.181    498.178    827.557    498.178    505.276    498.178
 62.870    691.000    739.208    -48.208    498.278    732.485    498.278    505.017    498.278
 62.970    674.000    669.700      4.300    498.379    663.303    498.379    504.787    498.379
 63.070    618.000    623.014     -5.014    498.479    616.916    498.479    504.584    498.479
 63.170    573.000    593.973    -20.973    498.580    588.148    498.580    504.407    498.580
 63.270    556.000    577.350    -21.350    498.681    571.776    498.681    504.254    498.681
 63.370    530.859    569.066    -38.206    498.781    563.721    498.781    504.123    498.781
 63.470    557.000    566.616     -9.616    498.882    561.482    498.882    504.012    498.882
 63.570    574.000    569.042      4.958    498.983    564.099    498.983    503.919    498.983
 63.670    584.000    576.686      7.314    499.084    571.917    499.084    503.842    499.084
 63.770    549.874    590.880    -41.006    499.185    586.267    499.185    503.780    499.185
 63.870    639.000    613.545     25.455    499.286    609.073    499.286    503.731    499.286
 63.970    673.000    646.640     26.360    499.387    642.294    499.387    503.694    499.387
 64.070    665.000    691.426    -26.426    499.488    687.192    499.488    503.668    499.488
 64.170    782.000    747.601     34.399    499.589    743.468    499.589    503.652    499.589
 64.270    839.000    812.470     26.530    499.690    808.429    499.690    503.644    499.690
 64.370    881.790    880.317      1.472    499.791    876.363    499.791    503.645    499.791
 64.470    911.949    942.396    -30.447    499.891    938.528    499.891    503.653    499.891
 64.570    945.878    988.350    -42.472    499.992    984.569    499.992    503.669    499.992
 64.670   1007.000   1009.604     -2.604    500.093   1005.916    500.093    503.690    500.093
 64.770   1058.034   1002.948     55.086    500.194    999.353    500.194    503.718    500.194
 64.870    994.000    971.362     22.638    500.294    967.857    500.294    503.750    500.294
 64.970    943.000    922.153     20.847    500.395    918.734    500.395    503.788    500.395
 65.070    830.318    864.319    -34.001    500.495    860.978    500.495    503.831    500.495
 65.170    797.000    805.993     -8.993    500.595    802.720    500.595    503.879    500.595
 65.270    745.000    752.719     -7.719    500.695    749.506    500.695    503.930    500.695
 65.370    663.000    707.141    -44.141    500.795    703.977    500.795    503.986    500.795
 65.470    641.000    669.786    -28.786    500.895    666.664    500.895    504.046    500.895
 65.570    647.000    640.112      6.888    500.994    637.025    500.994    504.109    500.994
 65.670    631.000    617.162     13.838    501.093    614.103    501.093    504.177    501.093
 65.770    568.000    599.831    -31.831    501.193    596.795    501.193    504.247    501.193
 65.870    587.956    587.023      0.933    501.292    584.009    501.292    504.321    501.292
 65.970    598.156    577.795     20.362    501.390    574.798    501.390    504.398    501.390
 66.070    527.000    571.415    -44.415    501.489    568.434    501.489    504.478    501.489
 66.170    537.000    567.366    -30.366    501.587    564.397    501.587    504.562    501.587
 66.270    576.000    565.286     10.714    501.685    562.327    501.685    504.648    501.685
 66.370    586.000    564.942     21.058    501.782    561.991    501.782    504.738    501.782
 66.470    562.590    566.230     -3.641    501.880    563.285    501.880    504.830    501.880
 66.570    605.897    569.240     36.656    501.977    566.297    501.977    504.926    501.977
 66.670    558.000    574.375    -16.375    502.074    571.430    502.074    505.024    502.074
 66.770    556.000    582.560    -26.560    502.170    579.611    502.170    505.125    502.170
 66.870    577.186    595.549    -18.363    502.266    592.590    502.266    505.230    502.266
 66.970    571.000    616.305    -45.305    502.362    613.333    502.362    505.337    502.362
 67.070    598.000    649.380    -51.380    502.458    646.392    502.458    505.448    502.458
 67.170    702.000    701.087      0.913    502.553    698.077    502.553    505.562    502.553
 67.270    764.000    779.179    -15.179    502.647    776.146    502.647    505.679    502.647
 67.370    874.459    891.763    -17.304    502.742    888.704    502.742    505.800    502.742
 67.470   1033.939   1045.279    -11.340    502.835   1042.197    502.835    505.924    502.835
 67.570   1269.317   1241.764     27.552    502.929   1238.664    502.929    506.052    502.929
 67.670   1490.000   1475.926     14.074    503.022   1472.815    503.022    506.184    503.022
 67.770   1734.991   1732.812      2.179    503.115   1729.702    503.115    506.320    503.115
 67.870   1986.000   1986.762     -0.762    503.207   1983.663    503.207    506.460    503.207
 67.970   2168.000   2202.582    -34.582    503.299   2199.501    503.299    506.605    503.299
 68.070   2326.000   2341.125    -15.125    503.390   2338.061    503.390    506.754    503.390
 68.170   2384.188   2371.615     12.573    503.481   2368.550    503.481    506.909    503.481
 68.270   2270.026   2286.448    -16.422    503.571   2283.348    503.571    507.070    503.571
 68.370   2113.000   2105.775      7.225    503.661   2102.600    503.661    507.236    503.661
 68.470   1979.000   1866.584    112.416    503.750   1863.296    503.750    507.408    503.750
 68.570   1589.000   1607.434    -18.434    503.839   1604.006    503.839    507.588    503.839
 68.670   1330.215   1359.305    -29.091    503.927   1355.721    503.927    507.775    503.927
 68.770   1133.000   1142.620     -9.620    504.015   1138.869    504.015    507.970    504.015
 68.870    975.000    967.383      7.617    504.102    963.463    504.102    508.174    504.102
 68.970    830.180    834.951     -4.770    504.189    830.860    504.189    508.387    504.189
 69.070    744.000    740.734      3.266    504.275    736.472    504.275    508.611    504.275
 69.170    706.408    677.137     29.271    504.360    672.701    504.360    508.847    504.360
 69.270    663.000    635.990     27.010    504.445    631.375    504.445    509.095    504.445
 69.370    639.000    610.125     28.875    504.529    605.322    504.529    509.357    504.529
 69.470    564.000    594.053    -30.053    504.613    589.049    504.613    509.635    504.613
 69.570    595.491    583.995     11.495    504.695    578.775    504.695    509.930    504.695
 69.670    608.769    577.567     31.202    504.778    572.113    504.778    510.244    504.778
 69.770    548.000    573.374    -25.374    504.859    567.663    504.859    510.580    504.859
 69.870    602.000    570.647     31.353    504.940    564.655    504.940    510.940    504.940
 69.970    556.000    568.985    -12.985    505.021    562.685    505.021    511.328    505.021
 70.070    549.000    568.197    -19.197    505.100    561.556    505.100    511.748    505.100
 70.170    558.656    568.213     -9.556    505.179    561.193    505.179    512.204    505.179
 70.270    606.000    569.053     36.947    505.258    561.612    505.258    512.702    505.258
 70.370    588.000    570.844     17.156    505.335    562.930    505.335    513.252    505.335
 70.470    590.000    573.861     16.139    505.412    565.414    505.412    513.861    505.412
 70.570    545.000    578.628    -33.628    505.488    569.574    505.488    514.542    505.488
 70.670    544.803    586.059    -41.256    505.563    576.308    505.563    515.312    505.563
 70.770    616.125    597.649     18.476    505.638    587.092    505.638    516.189    505.638
 70.870    601.774    615.680    -13.905    505.711    604.182    505.711    517.200    505.711
 70.970    641.000    643.369     -2.369    505.784    630.763    505.784    518.374    505.784
 71.070    643.000    684.850    -41.850    505.857    670.930    505.857    519.751    505.857
 71.170    730.000    744.848    -14.848    505.928    729.361    505.928    521.376    505.928
 71.270    850.000    827.941     22.059    505.999    810.582    505.999    523.302    505.999
 71.370    904.000    937.404    -33.404    506.068    917.806    506.068    525.589    506.068
 71.470   1057.000   1073.760    -16.760    506.137   1051.492    506.137    528.305    506.137
 71.570   1208.219   1233.352    -25.133    506.205   1207.915    506.205    531.519    506.205
 71.670   1462.297   1407.248     55.048    506.273   1378.076    506.273    535.302    506.273
 71.770   1528.000   1580.737    -52.737    506.339   1547.202    506.339    539.718    506.339
 71.870   1691.000   1733.749    -42.749    506.404   1695.175    506.404    544.822    506.404
 71.970   1881.000   1843.238     37.762    506.469   1798.918    506.469    550.647    506.469
 72.070   1923.000   1889.106     33.894    506.533   1838.330    506.533    557.195    506.533
 72.170   1894.000   1862.663     31.337    506.596   1804.757    506.596    564.424    506.596
 72.270   1807.000   1771.212     35.788    506.658   1705.604    506.658    572.226    506.658
 72.370   1663.000   1633.986     29.014    506.719   1560.294    506.719    580.405    506.719
 72.470   1513.570   1473.724     39.847    506.779   1391.874    506.779    588.646    506.779
 72.570   1337.000   1310.432     26.568    506.838   1220.807    506.838    596.495    506.838
 72.670   1153.861   1158.768     -4.908    506.896   1062.335    506.896    603.367    506.896
 72.770   1015.838   1027.544    -11.706    506.953    925.931    506.953    608.605    506.953
 72.870    973.381    920.286     53.094    507.009    815.729    507.009    611.602    507.009
 72.970    815.000    836.460    -21.460    507.065    731.584    507.065    611.970    507.065
 73.070    757.000    773.008    -16.008    507.119    670.485    507.119    609.666    507.119
 73.170    708.788    725.817    -17.029    507.172    628.005    507.172    605.003    507.172
 73.270    666.158    690.795    -24.638    507.225    599.483    507.225    598.552    507.225
 73.370    666.000    664.488      1.512    507.276    580.805    507.276    590.972    507.276
 73.470    680.585    644.290     36.295    507.326    568.752    507.326    582.876    507.326
 73.570    587.460    628.417    -40.957    507.376    561.054    507.376    574.749    507.376
 73.670    601.645    615.744    -14.099    507.424    556.242    507.424    566.937    507.424
 73.770    615.000    605.608      9.392    507.471    553.429    507.471    559.663    507.471
 73.870    580.000    597.625    -17.625    507.517    552.105    507.517    553.052    507.517
 73.970    623.000    591.549     31.451    507.562    551.971    507.562    547.159    507.562
 74.070    583.000    587.162     -4.162    507.606    552.800    507.606    541.991    507.606
 74.170    574.000    584.208    -10.208    507.649    554.366    507.649    537.520    507.649
 74.270    593.000    582.352     10.648    507.691    556.382    507.691    533.696    507.691
 74.370    584.000    581.169      2.831    507.731    558.484    507.731    530.456    507.731
 74.470    609.000    580.153     28.847    507.771    560.238    507.771    527.731    507.771
 74.570    627.000    578.780     48.220    507.809    561.188    507.809    525.449    507.809
 74.670    602.000    576.629     25.371    507.847    560.981    507.847    523.544    507.847
 74.770    654.000    573.533     80.467    507.883    559.511    507.883    521.953    507.883
 74.870    628.000    569.643     58.357    507.918    556.985    507.918    520.621    507.918
 74.970    670.000    565.346    104.654    507.952    553.836    507.952    519.500    507.952
 75.070    611.000    561.129     49.871    507.984    550.595    507.984    518.552    507.984
 75.170    641.000    557.496     83.504    508.016    547.796    508.016    517.742    508.016
 75.270    594.000    554.933     39.067    508.046    545.955    508.046    517.045    508.046
 75.370    588.000    553.923     34.077    508.075    545.572    508.075    516.439    508.075
 75.470    561.000    554.948      6.052    508.103    547.149    508.103    515.909    508.103
 75.570    570.522    558.490     12.032    508.130    551.181    508.130    515.441    508.130
 75.670    548.000    564.999    -16.999    508.156    558.126    508.156    515.024    508.156
 75.770    526.000    574.830    -48.830    508.180    568.348    508.180    514.650    508.180
 75.870    634.000    588.141     45.859    508.203    582.012    508.203    514.314    508.203
 75.970    651.000    604.779     46.221    508.225    598.967    508.225    514.010    508.225
 76.070    639.000    624.157     14.843    508.246    618.635    508.246    513.733    508.246
 76.170    630.000    645.170    -15.170    508.265    639.913    508.265    513.481    508.265
 76.270    685.000    666.157     18.843    508.283    661.143    508.283    513.250    508.283
 76.370    671.000    684.940    -13.940    508.300    680.150    508.300    513.038    508.300
 76.470    643.000    699.032    -56.032    508.316    694.451    508.316    512.842    508.316
 76.570    699.588    706.141     -6.553    508.330    701.756    508.330    512.662    508.330
 76.670    655.524    704.912    -49.388    508.343    700.712    508.343    512.495    508.343
 76.770    706.000    695.494     10.506    508.355    691.467    508.355    512.340    508.355
 76.870    701.205    679.465     21.739    508.366    675.600    508.366    512.195    508.366
 76.970    673.592    659.187     14.405    508.375    655.473    508.375    512.061    508.375
 77.070    604.000    637.085    -33.085    508.383    633.512    508.383    511.935    508.383
 77.170    615.000    615.215     -0.215    508.389    611.773    508.389    511.816    508.389
 77.270    594.156    595.087     -0.931    508.395    591.767    508.395    511.705    508.395
 77.370    558.911    577.640    -18.730    508.398    574.432    508.398    511.600    508.398
 77.470    544.574    563.291    -18.717    508.401    560.187    508.401    511.501    508.401
 77.570    521.000    552.032    -31.032    508.402    549.025    508.402    511.407    508.402
 77.670    553.000    543.563      9.437    508.402    540.646    508.402    511.318    508.402
 77.770    526.339    537.420    -11.081    508.401    534.587    508.401    511.233    508.401
 77.870    483.000    533.094    -50.094    508.398    530.340    508.398    511.152    508.398
 77.970    506.000    530.109    -24.109    508.393    527.428    508.393    511.075    508.393
 78.070    523.000    528.057     -5.057    508.388    525.446    508.388    511.001    508.388
 78.170    516.381    526.631    -10.251    508.381    524.084    508.381    510.930    508.381
 78.270    488.846    525.661    -36.815    508.373    523.174    508.373    510.861    508.373
 78.370    522.000    524.981     -2.981    508.363    522.551    508.363    510.795    508.363
 78.470    544.000    524.503     19.497    508.352    522.125    508.352    510.731    508.352
 78.570    514.000    524.179    -10.179    508.339    521.850    508.339    510.670    508.339
 78.670    494.000    523.988    -29.988    508.325    521.704    508.325    510.610    508.325
 78.770    558.000    523.924     34.076    508.310    521.683    508.310    510.553    508.310
 78.870    507.000    523.996    -16.996    508.293    521.793    508.293    510.497    508.293
 78.970    532.000    524.217      7.783    508.275    522.050    508.275    510.444    508.275
 79.070    502.000    524.609    -22.609    508.255    522.474    508.255    510.392    508.255
 79.170    505.589    525.194    -19.605    508.234    523.088    508.234    510.341    508.234
 79.270    514.000    525.998    -11.998    508.211    523.917    508.211    510.293    508.211
 79.370    528.026    527.049      0.978    508.187    524.991    508.187    510.246    508.187
 79.470    507.000    528.383    -21.383    508.162    526.344    508.162    510.200    508.162
 79.570    547.000    530.051     16.949    508.135    528.028    508.135    510.157    508.135
 79.670    574.000    532.127     41.873    508.106    530.118    508.106    510.114    508.106
 79.770    547.000    534.724     12.276    508.077    532.726    508.077    510.073    508.077
 79.870    526.000    538.003    -12.003    508.045    536.014    508.045    510.033    508.045
 79.970    520.000    542.192    -22.192    508.013    540.209    508.013    509.994    508.013
 80.070    539.000    547.595     -8.595    507.978    545.617    507.978    509.955    507.978
 80.170    532.593    554.598    -22.005    507.942    552.625    507.942    509.916    507.942
 80.270    545.685    563.635    -17.950    507.905    561.667    507.905    509.876    507.905
 80.370    606.391    575.110     31.281    507.866    573.147    507.866    509.834    507.866
 80.470    582.838    589.294     -6.456    507.826    587.339    507.826    509.789    507.826
 80.570    571.000    606.223    -35.223    507.784    604.280    507.784    509.740    507.784
 80.670    592.000    625.615    -33.615    507.741    623.686    507.741    509.687    507.741
 80.770    612.475    646.823    -34.348    507.696    644.915    507.696    509.627    507.696
 80.870    641.000    668.852    -27.852    507.650    666.969    507.650    509.562    507.650
 80.970    739.213    690.440     48.773    507.602    688.587    507.602    509.491    507.602
 81.070    707.000    710.225     -3.225    507.553    708.406    507.553    509.415    507.553
 81.170    737.000    726.925     10.075    507.502    725.142    507.502    509.335    507.502
 81.270    766.000    739.471     26.529    507.450    737.725    507.450    509.252    507.450
 81.370    762.000    747.098     14.902    507.396    745.389    507.396    509.166    507.396
 81.470    698.128    749.427    -51.298    507.341    747.755    507.341    509.080    507.341
 81.570    766.000    746.488     19.512    507.284    744.852    507.284    508.992    507.284
 81.670    770.882    738.665     32.217    507.225    737.062    507.225    508.904    507.225
 81.770    738.551    726.641     11.909    507.165    725.067    507.165    508.817    507.165
 81.870    676.000    711.386    -35.386    507.103    709.838    507.103    508.729    507.103
 81.970    696.000    694.081      1.919    507.040    692.554    507.040    508.642    507.040
 82.070    713.000    675.913     37.087    506.976    674.406    506.976    508.555    506.976
 82.170    619.000    657.843    -38.843    506.909    656.352    506.909    508.469    506.909
 82.270    670.000    640.488     29.512    506.842    639.010    506.842    508.382    506.842
 82.370    648.000    624.170     23.830    506.772    622.704    506.772    508.296    506.772
 82.470    622.000    609.060     12.940    506.701    607.603    506.701    508.211    506.701
 82.570    621.000    595.303     25.697    506.629    593.853    506.629    508.125    506.629
 82.670    597.000    583.074     13.926    506.555    581.630    506.555    508.039    506.555
 82.770    607.626    572.563     35.063    506.479    571.122    506.479    507.953    506.479
 82.870    525.000    563.940    -38.940    506.402    562.502    506.402    507.866    506.402
 82.970    573.534    557.334     16.200    506.323    555.896    506.323    507.779    506.323
 83.070    556.146    552.816      3.330    506.243    551.377    506.243    507.692    506.243
 83.170    556.310    550.388      5.923    506.161    548.947    506.161    507.604    506.161
 83.270    564.000    549.963     14.037    506.077    548.520    506.077    507.516    506.077
 83.370    502.000    551.352    -49.352    505.992    549.906    505.992    507.426    505.992
 83.470    549.000    554.253     -5.253    505.906    552.802    505.906    507.336    505.906
 83.570    561.000    558.249      2.751    505.818    556.794    505.818    507.245    505.818
 83.670    609.685    562.822     46.863    505.728    561.363    505.728    507.153    505.728
 83.770    581.635    567.372     14.263    505.636    565.909    505.636    507.061    505.636
 83.870    612.000    571.258     40.742    505.544    569.792    505.544    506.967    505.544
 83.970    558.000    573.865    -15.865    505.449    572.398    505.449    506.872    505.449
 84.070    530.395    574.714    -44.318    505.353    573.246    505.353    506.776    505.353
 84.170    550.000    573.572    -23.572    505.255    572.105    505.255    506.679    505.255
 84.270    532.000    570.517    -38.517    505.156    569.053    505.156    506.581    505.156
 84.370    599.000    565.893     33.107    505.055    564.432    505.055    506.482    505.055
 84.470    585.130    560.194     24.936    504.953    558.735    504.953    506.382    504.953
 84.570    516.888    553.948    -37.059    504.849    552.491    504.849    506.281    504.849
 84.670    588.883    547.635     41.248    504.743    546.180    504.743    506.179    504.743
 84.770    551.000    541.646      9.354    504.636    540.192    504.636    506.076    504.636
 84.870    503.000    536.264    -33.264    504.527    534.809    504.527    505.972    504.527
 84.970    529.000    531.657     -2.657    504.417    530.200    504.417    505.866    504.417
 85.070    499.000    527.894    -28.894    504.305    526.434    504.305    505.760    504.305
 85.170    557.547    524.961     32.587    504.191    523.496    504.191    505.652    504.191
 85.270    548.000    522.790     25.210    504.076    521.320    504.076    505.544    504.076
 85.370    548.397    521.286     27.111    503.960    519.810    503.960    505.434    503.960
 85.470    515.000    520.349     -5.349    503.841    518.866    503.841    505.323    503.841
 85.570    522.000    519.895      2.105    503.722    518.404    503.722    505.212    503.722
 85.670    539.000    519.868     19.132    503.600    518.367    503.600    505.099    503.600
 85.770    492.000    520.248    -28.248    503.477    518.737    503.477    504.985    503.477
 85.870    518.000    521.054     -3.054    503.353    519.532    503.353    504.870    503.353
 85.970    496.000    522.346    -26.346    503.227    520.812    503.227    504.754    503.227
 86.070    487.723    524.221    -36.498    503.099    522.674    503.099    504.638    503.099
 86.170    498.000    526.807    -28.807    502.970    525.245    502.970    504.520    502.970
 86.270    525.979    530.250     -4.271    502.839    528.671    502.839    504.401    502.839
 86.370    532.076    534.698     -2.622    502.707    533.101    502.707    504.282    502.707
 86.470    581.699    540.282     41.418    502.573    538.665    502.573    504.161    502.573
 86.570    587.599    547.084     40.516    502.437    545.445    502.437    504.040    502.437
 86.670    602.000    555.110     46.890    502.300    553.448    502.300    503.918    502.300
 86.770    530.932    564.262    -33.330    502.162    562.574    502.162    503.795    502.162
 86.870    552.254    574.306    -22.051    502.022    572.590    502.022    503.671    502.022
 86.970    614.000    584.861     29.139    501.880    583.118    501.880    503.547    501.880
 87.070    639.000    595.392     43.608    501.737    593.620    501.737    503.421    501.737
 87.170    654.000    605.220     48.780    501.592    603.421    501.592    503.295    501.592
 87.270    586.000    613.566    -27.566    501.446    611.741    501.446    503.169    501.446
 87.370    656.000    619.640     36.360    501.298    617.791    501.298    503.042    501.298
 87.470    652.000    622.806     29.194    501.149    620.936    501.149    502.914    501.149
 87.570    645.000    622.749     22.251    500.998    620.861    500.998    502.786    500.998
 87.670    618.000    619.579     -1.579    500.845    617.675    500.845    502.658    500.845
 87.770    596.000    613.794    -17.794    500.691    611.875    500.691    502.529    500.691
 87.870    643.687    606.140     37.547    500.536    604.207    500.536    502.400    500.536
 87.970    631.208    597.466     33.742    500.379    595.518    500.379    502.270    500.379
 88.070    599.000    588.611     10.389    500.221    586.646    500.221    502.141    500.221
 88.170    594.000    580.335     13.665    500.061    578.353    500.061    502.011    500.061
 88.270    604.000    573.277     30.723    499.899    571.274    499.899    501.881    499.899
 88.370    594.000    567.919     26.081    499.736    565.892    499.736    501.752    499.736
 88.470    606.755    564.568     42.188    499.572    562.515    499.572    501.623    499.572
 88.570    552.000    563.352    -11.352    499.406    561.272    499.406    501.494    499.406
 88.670    551.000    564.223    -13.223    499.239    562.112    499.239    501.366    499.239
 88.770    637.000    566.964     70.036    499.070    564.820    499.070    501.238    499.070
 88.870    570.000    571.208     -1.208    498.899    569.028    498.899    501.111    498.899
 88.970    610.189    576.459     33.730    498.728    574.241    498.728    500.985    498.728
 89.070    613.000    582.117     30.883    498.554    579.858    498.554    500.860    498.554
 89.170    597.000    587.511      9.489    498.380    585.208    498.380    500.736    498.380
 89.270    618.000    591.951     26.049    498.203    589.600    498.203    500.615    498.203
 89.370    633.739    594.797     38.942    498.026    592.392    498.026    500.495    498.026
 89.470    611.000    595.568     15.432    497.847    593.105    497.847    500.377    497.847
 89.570    558.131    594.051    -35.920    497.666    591.524    497.666    500.263    497.666
 89.670    557.335    590.341    -33.006    497.485    587.742    497.485    500.151    497.485
 89.770    599.478    584.795     14.683    497.301    582.118    497.301    500.043    497.301
 89.870    551.000    577.926    -26.926    497.117    575.164    497.117    499.939    497.117
 89.970    528.000    570.291    -42.291    496.931    567.436    496.931    499.841    496.931
 90.070    537.000    562.413    -25.413    496.743    559.456    496.743    499.748    496.743
 90.170    567.271    554.736     12.536    496.554    551.669    496.554    499.663    496.554
 90.270    518.000    547.609    -29.609    496.364    544.422    496.364    499.586    496.364
 90.370    501.000    541.273    -40.273    496.173    537.957    496.173    499.518    496.173
 90.470    520.000    535.869    -15.869    495.980    532.412    495.980    499.461    495.980
 90.570    512.000    531.448    -19.448    495.785    527.835    495.785    499.418    495.785
 90.670    549.000    527.988     21.012    495.590    524.204    495.590    499.389    495.590
 90.770    524.423    525.419     -0.996    495.393    521.446    495.393    499.377    495.393
 90.870    473.000    523.638    -50.638    495.194    519.456    495.194    499.386    495.194
 90.970    526.000    522.544      3.456    494.995    518.130    494.995    499.416    494.995
 91.070    552.293    522.074     30.219    494.794    517.401    494.794    499.472    494.794
 91.170    505.488    522.150    -16.663    494.591    517.190    494.591    499.557    494.591
 91.270    522.000    522.744     -0.744    494.388    517.462    494.388    499.673    494.388
 91.370    476.000    523.866    -47.866    494.183    518.227    494.183    499.825    494.183
 91.470    496.000    525.571    -29.571    493.977    519.534    493.977    500.015    493.977
 91.570    558.000    527.953     30.047    493.769    521.475    493.769    500.248    493.769
 91.670    565.000    531.147     33.853    493.561    524.181    493.561    500.525    493.561
 91.770    548.889    535.327     13.562    493.351    527.824    493.351    500.850    493.351
 91.870    519.000    540.685    -21.685    493.140    532.592    493.140    501.226    493.140
 91.970    573.000    547.424     25.576    492.927    538.688    492.927    501.653    492.927
 92.070    520.373    555.739    -35.367    492.714    546.305    492.714    502.133    492.714
 92.170    531.489    565.797    -34.308    492.499    555.610    492.499    502.667    492.499
 92.270    577.000    577.710     -0.710    492.283    566.717    492.283    503.251    492.283
 92.370    625.063    591.512     33.551    492.066    579.664    492.066    503.883    492.066
 92.470    648.097    607.139     40.958    491.847    594.392    491.847    504.557    491.847
 92.570    628.000    624.409      3.591    491.628    610.729    491.628    505.265    491.628
 92.670    672.000    643.009     28.991    491.407    628.373    491.407    505.994    491.407
 92.770    668.000    662.489      5.511    491.185    646.891    491.185    506.728    491.185
 92.870    677.139    682.251     -5.112    490.962    665.707    490.962    507.445    490.962
 92.970    742.672    701.669     41.003    490.738    684.221    490.738    508.121    490.738
 93.070    734.000    720.102     13.898    490.513    701.822    490.513    508.724    490.513
 93.170    761.000    736.961     24.039    490.286    717.956    490.286    509.223    490.286
 93.270    780.514    751.906     28.608    490.059    732.313    490.059    509.583    490.059
 93.370    772.000    764.873      7.127    489.830    744.859    489.830    509.776    489.830
 93.470    738.000    776.031    -38.031    489.601    755.786    489.601    509.780    489.601
 93.570    774.802    785.680    -10.878    489.370    765.405    489.370    509.582    489.370
 93.670    818.266    794.164     24.102    489.139    774.059    489.139    509.182    489.139
 93.770    770.673    801.800    -31.127    488.906    782.052    488.906    508.595    488.906
 93.870    808.575    808.927     -0.352    488.672    789.701    488.672    507.843    488.672
 93.970    816.172    815.939      0.232    488.437    797.368    488.437    506.957    488.437
 94.070    820.000    823.272     -3.272    488.202    805.456    488.202    505.968    488.202
 94.170    860.950    831.301     29.650    487.965    814.308    487.965    504.911    487.965
 94.270    809.457    840.192    -30.735    487.727    824.061    487.727    503.815    487.727
 94.370    881.000    849.772     31.228    487.489    834.515    487.489    502.706    487.489
 94.470    831.000    859.471    -28.471    487.249    845.081    487.249    501.605    487.249
 94.570    937.000    868.348     68.652    487.009    854.800    487.009    500.528    487.009
 94.670    833.295    875.185    -41.890    486.767    862.444    486.767    499.487    486.767
 94.770    904.067    878.654     25.413    486.525    866.674    486.525    498.490    486.525
 94.870    905.000    877.543     27.457    486.282    866.274    486.282    497.544    486.282
 94.970    915.000    871.017     43.983    486.038    860.405    486.038    496.652    486.038
 95.070    891.000    858.846     32.154    485.793    848.832    485.793    495.815    485.793
 95.170    869.000    841.482     27.518    485.547    832.010    485.547    495.033    485.547
 95.270    852.000    819.992     32.008    485.301    811.004    485.301    494.307    485.301
 95.370    838.000    795.864     42.136    485.053    787.305    485.053    493.635    485.053
 95.470    801.000    770.812     30.188    484.805    762.626    484.805    493.013    484.805
 95.570    832.000    746.608     85.392    484.556    738.745    484.556    492.441    484.556
 95.670    720.413    724.981     -4.568    484.307    717.393    484.307    491.914    484.307
 95.770    696.000    707.541    -11.541    484.056    700.182    484.056    491.430    484.056
 95.870    690.137    695.739     -5.602    483.805    688.567    483.805    490.987    483.805
 95.970    738.000    690.833     47.167    483.553    683.810    483.553    490.580    483.553
 96.070    678.735    693.879    -15.144    483.301    686.968    483.301    490.208    483.301
 96.170    695.000    705.713    -10.713    483.047    698.882    483.047    489.867    483.047
 96.270    699.235    726.937    -27.702    482.794    720.155    482.794    489.555    482.794
 96.370    785.000    757.885     27.115    482.539    751.125    482.539    489.270    482.539
 96.470    812.000    798.569     13.431    482.284    791.805    482.284    489.010    482.284
 96.570    804.023    848.647    -44.624    482.028    841.856    482.028    488.774    482.028
 96.670    906.000    907.319     -1.319    481.772    900.480    481.772    488.560    481.772
 96.770   1025.527    973.256     52.271    481.515    966.347    481.515    488.368    481.515
 96.870   1052.390   1044.567      7.823    481.257   1037.569    481.257    488.197    481.257
 96.970   1065.000   1118.778    -53.778    480.999   1111.672    480.999    488.047    480.999
 97.070   1212.551   1192.836     19.715    480.741   1185.604    480.741    487.918    480.741
 97.170   1225.000   1263.179    -38.179    480.482   1255.802    480.482    487.811    480.482
 97.270   1369.138   1325.881     43.257    480.222   1318.339    480.222    487.728    480.222
 97.370   1346.000   1376.939    -30.939    479.962   1369.210    479.962    487.670    479.962
 97.470   1403.000   1412.733     -9.733    479.702   1404.793    479.702    487.638    479.702
 97.570   1478.000   1430.611     47.389    479.441   1422.430    479.441    487.636    479.441
 97.670   1402.525   1429.417    -26.892    479.180   1420.964    479.180    487.667    479.180
 97.770   1390.000   1409.721    -19.721    478.918   1400.957    478.918    487.734    478.918
 97.870   1397.000   1373.632     23.368    478.656   1364.512    478.656    487.843    478.656
 97.970   1372.000   1324.326     47.674    478.394   1314.800    478.394    487.998    478.394
 98.070   1333.000   1265.521     67.479    478.131   1255.532    478.131    488.206    478.131
 98.170   1221.000   1201.062     19.938    477.868   1190.546    477.868    488.474    477.868
 98.270   1148.000   1134.652     13.348    477.604   1123.537    477.604    488.809    477.604
 98.370   1088.116   1069.692     18.424    477.341   1057.899    477.341    489.220    477.341
 98.470   1032.312   1009.191     23.122    477.077    996.631    477.077    489.717    477.077
 98.570    982.306    955.721     26.585    476.813    942.297    476.813    490.310    476.813
 98.670    880.759    911.411    -30.653    476.549    897.014    476.549    491.011    476.549
 98.770    904.457    877.958     26.499    476.284    862.468    476.284    491.829    476.284
 98.870    824.643    856.656    -32.014    476.020    839.943    476.020    492.779    476.020
 98.970    815.979    848.443    -32.464    475.755    830.364    475.755    493.871    475.755
 99.070    806.933    853.933    -47.000    475.490    834.336    475.490    495.117    475.490
 99.170    866.000    873.456     -7.456    475.225    852.176    475.225    496.528    475.225
 99.270    893.257    907.064    -13.807    474.960    883.926    474.960    498.116    474.960
 99.370    897.000    954.518    -57.518    474.695    929.339    474.695    499.889    474.695
 99.470   1016.597   1015.256      1.341    474.430    987.847    474.430    501.854    474.430
 99.570   1040.735   1088.342    -47.606    474.165   1058.509    474.165    504.016    474.165
 99.670   1160.000   1172.406    -12.406    473.900   1139.953    473.900    506.377    473.900
 99.770   1294.570   1265.591     28.979    473.634   1230.325    473.634    508.935    473.634
 99.870   1364.000   1365.508     -1.508    473.369   1327.242    473.369    511.682    473.369
 99.970   1510.715   1469.228     41.487    473.104   1427.791    473.104    514.607    473.104
100.070   1590.000   1573.330     16.670    472.840   1528.566    472.840    517.688    472.840
100.170   1670.000   1674.028     -4.028    472.575   1625.814    472.575    520.899    472.575
100.270   1742.000   1767.416    -25.416    472.310   1715.664    472.310    524.198    472.310
100.370   1784.944   1849.783    -64.839    472.046   1794.457    472.046    527.536    472.046
100.470   1921.000   1917.923      3.077    471.782   1859.050    471.782    530.847    471.782
100.570   1992.000   1969.352     22.648    471.518   1907.038    471.518    534.052    471.518
100.670   1969.000   2002.325    -33.325    471.254   1936.765    471.254    537.057    471.254
100.770   1940.113   2015.744    -75.631    470.991   1947.242    470.991    539.758    470.991
100.870   2024.693   2009.204     15.489    470.728   1938.170    470.728    542.043    470.728
100.970   1894.000   1983.122    -89.122    470.465   1910.074    470.465    543.805    470.465
101.070   1957.000   1938.957     18.043    470.203   1864.508    470.203    544.948    470.203
101.170   1891.000   1879.337     11.663    469.941   1804.172    469.941    545.403    469.941
101.270   1848.286   1807.891     40.395    469.679   1732.731    469.679    545.130    469.679
101.370   1702.404   1728.873    -26.469    469.418   1654.438    469.418    544.133    469.418
101.470   1690.000   1646.645     43.355    469.157   1573.618    469.157    542.450    469.157
101.570   1599.324   1565.222     34.101    468.897   1494.212    468.897    540.156    468.897
101.670   1423.000   1487.950    -64.950    468.637   1419.472    468.637    537.346    468.637
101.770   1436.000   1417.337     18.663    468.378   1351.799    468.378    534.129    468.378
101.870   1417.000   1354.995     62.005    468.120   1292.693    468.120    530.616    468.120
101.970   1266.903   1301.652    -34.748    467.862   1242.781    467.862    526.910    467.862
102.070   1278.000   1257.214     20.786    467.604   1201.876    467.604    523.105    467.604
102.170   1213.000   1220.851     -7.851    467.347   1169.071    467.347    519.279    467.347
102.270   1180.791   1191.115    -10.324    467.091   1142.854    467.091    515.496    467.091
102.370   1171.293   1166.099      5.194    466.836   1121.265    466.836    511.806    466.836
102.470   1184.000   1143.629     40.371    466.581   1102.095    466.581    508.247    466.581
102.570   1178.040   1121.524     56.516    466.328   1083.133    466.328    504.848    466.328
102.670   1073.000   1097.869    -24.869    466.075   1062.443    466.075    501.628    466.075
102.770   1047.938   1071.264    -23.326    465.822   1038.614    465.822    498.599    465.822
102.870   1068.000   1040.980     27.020    465.571   1010.908    465.571    495.768    465.571
102.970    944.644   1006.957    -62.313    465.321    979.264    465.321    493.136    465.321
103.070    959.000    969.686    -10.686    465.071    944.173    465.071    490.703    465.071
103.170    916.000    930.018    -14.018    464.822    906.493    464.822    488.461    464.822
103.270    898.000    888.985      9.015    464.575    867.262    464.575    486.405    464.575
103.370    809.325    847.655    -38.331    464.328    827.559    464.328    484.526    464.328
103.470    752.048    807.043    -54.996    464.083    788.408    464.083    482.812    464.083
103.570    835.000    768.044     66.956    463.838    750.715    463.838    481.252    463.838
103.670    714.275    731.398    -17.123    463.595    715.235    463.595    479.835    463.595
103.770    741.341    697.673     43.668    463.352    682.545    463.352    478.549    463.352
103.870    658.396    667.248     -8.852    463.111    653.040    463.111    477.381    463.111
103.970    595.920    640.326    -44.406    462.871    626.931    462.871    476.321    462.871
104.070    644.000    616.944     27.056    462.633    604.267    462.633    475.357    462.633
104.170    628.000    597.001     30.999    462.395    584.958    462.395    474.479    462.395
104.270    578.000    580.288     -2.288    462.159    568.806    462.159    473.677    462.159
104.370    604.000    566.523     37.477    461.924    555.535    461.924    472.943    461.924
104.470    581.000    555.381     25.619    461.690    544.830    461.690    472.269    461.690
104.570    597.000    546.528     50.472    461.458    536.363    461.458    471.647    461.458
104.670    574.116    539.637     34.479    461.228    529.812    461.228    471.073    461.228
104.770    563.000    534.412     28.588    460.998    524.889    460.998    470.539    460.998
104.870    532.742    530.597      2.145    460.771    521.342    460.771    470.042    460.771
104.970    577.000    527.987     49.013    460.544    518.968    460.544    469.578    460.544
105.070    510.000    526.422    -16.422    460.320    517.612    460.320    469.142    460.320
105.170    560.727    525.795     34.932    460.097    517.170    460.097    468.732    460.097
105.270    541.000    526.043     14.957    459.875    517.581    459.875    468.346    459.875
105.370    513.421    527.144    -13.723    459.655    518.826    459.655    467.981    459.655
105.470    507.595    529.112    -21.517    459.437    520.920    459.437    467.635    459.437
105.570    502.107    531.989    -29.881    459.221    523.906    459.221    467.307    459.221
105.670    563.112    535.833     27.279    459.006    527.845    459.006    466.996    459.006
105.770    501.000    540.712    -39.712    458.793    532.806    458.793    466.700    458.793
105.870    569.000    546.698     22.302    458.582    538.859    458.582    466.419    458.582
105.970    554.000    553.834      0.166    458.373    546.051    458.373    466.151    458.373
106.070    527.000    562.141    -35.141    458.166    554.402    458.166    465.897    458.166
106.170    611.155    571.597     39.558    457.960    563.891    457.960    465.656    457.960
106.270    607.000    582.132     24.868    457.757    574.449    457.757    465.426    457.757
106.370    598.000    593.621      4.379    457.556    585.951    457.556    465.209    457.556
106.470    624.118    605.878     18.239    457.357    598.212    457.357    465.003    457.357
106.570    615.000    618.664     -3.664    457.159    610.992    457.159    464.809    457.159
106.670    611.000    631.680    -20.680    456.964    623.994    456.964    464.626    456.964
106.770    611.168    644.579    -33.410    456.772    636.871    456.772    464.454    456.772
106.870    628.000    656.988    -28.988    456.581    649.249    456.581    464.293    456.581
106.970    642.000    668.515    -26.515    456.392    660.739    456.392    464.143    456.392
107.070    660.000    678.773    -18.773    456.206    670.951    456.206    464.004    456.206
107.170    646.630    687.427    -40.798    456.023    679.551    456.023    463.876    456.023
107.270    715.075    694.237     20.837    455.841    686.299    455.841    463.758    455.841
107.370    640.000    699.099    -59.099    455.662    691.092    455.662    463.652    455.662
107.470    672.011    702.068    -30.057    455.485    693.983    455.485    463.557    455.485
107.570    698.835    703.350     -4.515    455.311    695.179    455.311    463.474    455.311
107.670    659.000    703.272    -44.272    455.140    695.006    455.140    463.402    455.140
107.770    740.586    702.224     38.362    454.971    693.855    454.971    463.341    454.971
107.870    695.000    700.613     -5.613    454.804    692.130    454.804    463.293    454.804
107.970    654.000    698.806    -44.806    454.640    690.199    454.640    463.258    454.640
108.070    632.000    697.103    -65.103    454.479    688.363    454.479    463.235    454.479
108.170    683.000    695.713    -12.713    454.321    686.828    454.321    463.225    454.321
108.270    712.402    694.739     17.662    454.165    685.700    454.165    463.229    454.165
108.370    651.000    694.179    -43.179    454.012    684.972    454.012    463.247    454.012
108.470    729.000    693.916     35.084    453.862    684.532    453.862    463.279    453.862
108.570    685.000    693.740     -8.740    453.715    684.165    453.715    463.327    453.715
108.670    681.000    693.357    -12.357    453.571    683.576    453.571    463.391    453.571
108.770    693.335    692.420      0.914    453.430    682.421    453.430    463.472    453.430
108.870    655.917    690.578    -34.661    453.292    680.345    453.292    463.571    453.292
108.970    680.036    687.516     -7.481    453.156    677.033    453.156    463.688    453.156
109.070    678.000    683.013     -5.013    453.024    672.263    453.024    463.825    453.024
109.170    699.000    676.971     22.029    452.896    665.935    452.896    463.984    452.896
109.270    669.282    669.426     -0.145    452.770    658.084    452.770    464.165    452.770
109.370    670.000    660.539      9.461    452.647    648.868    452.647    464.371    452.647
109.470    627.616    650.556    -22.939    452.528    638.533    452.528    464.603    452.528
109.570    657.000    639.778     17.222    452.412    627.378    452.412    464.864    452.412
109.670    667.062    628.524     38.538    452.300    615.719    452.300    465.155    452.300
109.770    615.000    617.106     -2.106    452.191    603.864    452.191    465.481    452.191
109.870    635.090    605.815     29.275    452.085    592.102    452.085    465.844    452.085
109.970    591.000    594.907     -3.907    451.983    580.687    451.983    466.247    451.983
110.070    611.000    584.603     26.397    451.885    569.833    451.885    466.695    451.885
110.170    615.630    575.080     40.549    451.790    559.716    451.790    467.193    451.790
110.270    557.096    566.476     -9.381    451.698    550.466    451.698    467.745    451.698
110.370    562.000    558.885      3.115    451.611    542.172    451.611    468.358    451.611
110.470    581.000    552.361     28.639    451.527    534.883    451.527    469.037    451.527
110.570    591.000    546.923     44.077    451.447    528.609    451.447    469.791    451.447
110.670    559.270    542.559     16.711    451.370    523.332    451.370    470.626    451.370
110.770    587.000    539.232     47.768    451.298    519.005    451.298    471.552    451.298
110.870    544.381    536.885      7.495    451.229    515.562    451.229    472.578    451.229
110.970    553.000    535.452     17.548    451.165    512.926    451.165    473.715    451.165
111.070    538.000    534.855      3.145    451.104    511.010    451.104    474.972    451.104
111.170    564.000    535.017     28.983    451.048    509.725    451.048    476.363    451.048
111.270    513.551    535.864    -22.313    450.996    508.982    450.996    477.900    450.996
111.370    513.669    537.325    -23.657    450.948    508.699    450.948    479.595    450.948
111.470    545.782    539.338      6.444    450.904    508.800    450.904    481.462    450.904
111.570    505.092    541.849    -36.757    450.864    509.217    450.864    483.516    450.864
111.670    503.990    544.813    -40.822    450.829    509.890    450.829    485.771    450.829
111.770    543.000    548.195     -5.195    450.798    510.772    450.798    488.240    450.798
111.870    529.395    551.958    -22.563    450.771    511.810    450.771    490.938    450.771
111.970    559.000    556.081      2.919    450.749    512.971    450.749    493.879    450.749
112.070    582.000    560.621     21.379    450.731    514.296    450.731    497.075    450.731
112.170    577.000    565.553     11.447    450.718    515.753    450.718    500.538    450.718
112.270    573.243    570.892      2.351    450.710    517.343    450.710    504.279    450.710
112.370    574.000    576.665     -2.665    450.706    519.086    450.706    508.305    450.706
112.470    535.000    582.906    -47.906    450.707    521.009    450.707    512.624    450.707
112.570    628.957    589.658     39.300    450.713    523.152    450.713    517.239    450.713
112.670    586.296    596.971    -10.675    450.724    525.565    450.724    522.150    450.724
112.770    609.000    604.913      4.087    450.739    528.319    450.739    527.353    450.739
112.870    605.000    613.563     -8.563    450.759    531.501    450.759    532.842    450.759
112.970    643.251    623.023     20.228    450.785    535.226    450.785    538.601    450.785
113.070    640.821    633.421      7.400    450.815    539.642    450.815    544.613    450.815
113.170    597.933    644.927    -46.993    450.851    544.945    450.851    550.851    450.851
113.270    623.000    657.758    -34.758    450.892    551.387    450.892    557.280    450.892
113.370    651.000    672.198    -21.198    450.937    559.295    450.937    563.856    450.937
113.470    689.611    688.610      1.002    450.988    569.086    450.988    570.525    450.988
113.570    666.000    707.457    -41.457    451.045    581.292    451.045    577.220    451.045
113.670    717.000    729.326    -12.326    451.107    596.576    451.107    583.863    451.107
113.770    710.000    754.944    -44.944    451.174    615.757    451.174    590.361    451.174
113.870    771.441    785.206    -13.765    451.247    639.837    451.247    596.610    451.247
113.970    823.000    821.194      1.806    451.325    670.011    451.325    602.494    451.325
114.070    914.356    864.196     50.161    451.409    707.691    451.409    607.888    451.409
114.170    970.857    915.714     55.143    451.498    754.508    451.498    612.665    451.498
114.270    948.000    977.472    -29.472    451.593    812.310    451.593    616.701    451.593
114.370    960.000   1051.401    -91.401    451.694    883.141    451.694    619.881    451.694
114.470   1106.000   1139.614    -33.614    451.801    969.212    451.801    622.109    451.801
114.570   1193.238   1244.357    -51.119    451.913   1072.837    451.913    623.315    451.913
114.670   1415.000   1367.938     47.062    452.032   1196.361    452.032    623.463    452.032
114.770   1563.000   1512.629     50.371    452.157   1342.058    452.157    622.552    452.157
114.870   1739.000   1680.544     58.456    452.287   1512.007    452.287    620.616    452.287
114.970   1787.520   1873.493    -85.972    452.424   1707.951    452.424    617.723    452.424
115.070   2172.000   2092.824     79.176    452.567   1931.146    452.567    613.968    452.567
115.170   2377.000   2339.255     37.745    452.716   2182.196    452.716    609.463    452.716
115.270   2656.063   2612.706     43.357    452.871   2460.899    452.871    604.334    452.871
115.370   2827.741   2912.152    -84.411    453.033   2766.103    453.033    598.708    453.033
115.470   3229.191   3235.493     -6.302    453.201   3095.585    453.201    592.709    453.201
115.570   3498.700   3579.465    -80.765    453.375   3445.968    453.375    586.455    453.375
115.670   4015.000   3939.599     75.401    453.556   3812.676    453.556    580.051    453.556
115.770   4334.303   4310.219     24.084    453.744   4189.944    453.744    573.590    453.744
115.870   4633.000   4684.503    -51.503    453.938   4570.871    453.938    567.152    453.938
115.970   5033.000   5054.599    -21.599    454.139   4947.538    454.139    560.804    454.139
116.070   5380.627   5411.790    -31.163    454.347   5311.176    454.347    554.601    454.347
116.170   5759.000   5746.738     12.262    454.561   5652.400    454.561    548.589    454.561
116.270   6113.000   6049.794     63.206    454.783   5961.527    454.783    542.802    454.783
116.370   6404.227   6311.404     92.823    455.011   6228.976    455.011    537.268    455.011
116.470   6363.925   6522.620   -158.694    455.246   6445.776    455.246    532.007    455.246
116.570   6723.000   6675.690     47.310    455.489   6604.160    455.489    527.031    455.489
116.670   6844.000   6764.690     79.310    455.739   6698.191    455.739    522.350    455.739
116.770   6861.000   6786.080     74.920    455.995   6724.322    455.995    517.968    455.995
116.870   6640.000   6739.076    -99.076    456.259   6681.764    456.259    513.883    456.259
116.970   6577.006   6625.724    -48.718    456.531   6572.563    456.531    510.094    456.531
117.070   6373.000   6450.674    -77.674    456.810   6401.371    456.810    506.595    456.810
117.170   6219.249   6220.700     -1.451    457.096   6174.968    457.096    503.376    457.096
117.270   5873.000   5944.091    -71.091    457.390   5901.652    457.390    500.428    457.390
117.370   5556.562   5630.027    -73.466    457.691   5590.615    457.691    497.739    457.691
117.470   5205.000   5288.027    -83.027    458.000   5251.388    458.000    495.296    458.000
117.570   4783.000   4927.491   -144.491    458.317   4893.385    458.317    493.087    458.317
117.670   4595.000   4557.347     37.653    458.641   4525.550    458.641    491.097    458.641
117.770   4311.731   4185.781    125.950    458.974   4156.084    458.974    489.313    458.974
117.870   3826.429   3820.042      6.387    459.314   3792.253    459.314    487.719    459.314
117.970   3622.000   3466.309    155.691    459.662   3440.252    459.662    486.302    459.662
118.070   3078.000   3129.620    -51.620    460.019   3105.133    460.019    485.049    460.019
118.170   2766.750   2813.852    -47.102    460.383   2790.790    460.383    483.947    460.383
118.270   2369.000   2521.756   -152.756    460.756   2499.986    460.756    482.983    460.756
118.370   2318.476   2255.029     63.447    461.137   2234.434    461.137    482.146    461.137
118.470   1957.000   2014.424    -57.424    461.526   1994.898    461.526    481.425    461.526
118.570   1796.740   1799.871     -3.131    461.924   1781.319    461.924    480.809    461.924
118.670   1617.000   1610.619      6.381    462.330   1592.957    462.330    480.289    462.330
118.770   1445.000   1445.382     -0.382    462.744   1428.534    462.744    479.858    462.744
118.870   1263.000   1302.474    -39.474    463.168   1286.374    463.168    479.506    463.168
118.970   1200.715   1179.952     20.763    463.599   1164.539    463.599    479.227    463.599
119.070   1021.000   1075.731    -54.731    464.040   1060.952    464.040    479.015    464.040
119.170   1026.000    987.696     38.304    464.490    973.502    464.490    478.865    464.490
119.270    890.773    913.777    -23.004    464.948    900.125    464.948    478.770    464.948
119.370    835.000    852.019    -17.019    465.415    838.870    465.415    478.727    465.415
119.470    799.732    800.600     -0.867    465.891    787.917    465.891    478.732    465.891
119.570    705.000    757.968    -52.968    466.377    745.720    466.377    478.781    466.377
119.670    717.912    722.686     -4.774    466.871    710.841    466.871    478.871    466.871
119.770    715.000    693.527     21.473    467.375    682.059    467.375    479.001    467.375
119.870    704.000    669.455     34.545    467.888    658.337    467.888    479.167    467.888
119.970    700.000    649.605     50.395    468.411    638.813    468.411    479.367    468.411
120.070    644.724    633.259     11.465    468.943    622.771    468.943    479.601    468.943
120.170    598.000    619.833    -21.833    469.484    609.629    469.484    479.866    469.484
120.270    598.000    608.855    -10.855    470.035    598.914    470.035    480.161    470.035
120.370    568.000    599.945    -31.945    470.596    590.248    470.596    480.485    470.596
120.470    598.000    592.797      5.203    471.166    583.328    471.166    480.836    471.166
120.570    586.000    587.172     -1.172    471.747    577.914    471.747    481.215    471.747
120.670    605.862    582.876     22.986    472.337    573.814    472.337    481.620    472.337
120.770    596.000    579.757     16.243    472.937    570.876    472.937    482.051    472.937
120.870    543.229    577.690    -34.461    473.548    568.977    473.548    482.507    473.548
120.970    565.000    576.576    -11.576    474.168    568.019    474.168    482.987    474.168
121.070    542.000    576.329    -34.329    474.798    567.917    474.798    483.491    474.798
121.170    606.620    576.879     29.741    475.439    568.601    475.439    484.018    475.439
121.270    560.000    578.158    -18.158    476.091    570.007    476.091    484.568    476.091
121.370    626.044    580.105     45.939    476.752    572.072    476.752    485.140    476.752
121.470    610.000    582.658     27.342    477.424    574.739    477.424    485.733    477.424
121.570    617.000    585.753     31.247    478.107    577.944    478.107    486.348    478.107
121.670    578.566    589.323    -10.758    478.801    581.623    478.801    486.982    478.801
121.770    571.000    593.296    -22.296    479.505    585.705    479.505    487.637    479.505
121.870    640.000    597.593     42.407    480.220    590.114    480.220    488.310    480.220
121.970    571.000    602.127    -31.127    480.946    594.769    480.946    489.000    480.946
122.070    582.000    606.808    -24.808    481.683    599.580    481.683    489.708    481.683
122.170    621.680    611.536     10.144    482.431    604.453    482.431    490.432    482.431
122.270    615.000    616.207     -1.207    483.190    609.287    483.190    491.170    483.190
122.370    602.022    620.714    -18.692    483.960    613.981    483.960    491.922    483.960
122.470    621.000    624.946     -3.946    484.741    618.430    484.741    492.685    484.741
122.570    661.000    628.797     32.203    485.534    622.530    485.534    493.459    485.534
122.670    637.000    632.165      4.835    486.339    626.186    486.339    494.242    486.339
122.770    649.000    634.956     14.044    487.155    629.312    487.155    495.032    487.155
122.870    630.000    637.097     -7.097    487.983    631.837    487.983    495.827    487.983
122.970    623.000    638.532    -15.532    488.822    633.711    488.822    496.627    488.822
123.070    628.000    639.230    -11.230    489.673    634.908    489.673    497.430    489.673
123.170    623.000    639.184    -16.184    490.536    635.424    490.536    498.234    490.536
123.270    626.766    638.413    -11.646    491.411    635.279    491.411    499.039    491.411
123.370    635.000    636.953     -1.953    492.298    634.514    492.298    499.844    492.298
123.470    611.000    634.862    -23.862    493.197    633.184    493.197    500.649    493.197
123.570    628.000    632.208     -4.208    494.108    631.355    494.108    501.454    494.108
123.670    600.024    629.066    -29.042    495.032    629.100    495.032    502.260    495.032
123.770    631.088    625.517      5.571    495.968    626.493    495.968    503.066    495.968
123.870    634.000    621.645     12.355    496.916    623.611    496.916    503.876    496.916
123.970    581.447    617.528    -36.082    497.877    620.523    497.877    504.688    497.877
124.070    606.000    613.246     -7.246    498.851    617.297    498.851    505.507    498.851
124.170    590.000    608.871    -18.871    499.837    613.992    499.837    506.331    499.837
124.270    624.000    604.468     19.532    500.836    610.660    500.836    507.164    500.836
124.370    612.000    600.097     11.903    501.848    607.344    501.848    508.007    501.848
124.470    641.000    595.808     45.192    502.873    604.079    502.873    508.861    502.873
124.570    590.000    591.642     -1.642    503.911    600.888    503.911    509.727    503.911
124.670    591.000    587.633      3.367    504.962    597.788    504.962    510.606    504.962
124.770    572.934    583.809    -10.875    506.027    594.790    506.027    511.501    506.027
124.870    619.938    580.188     39.750    507.104    591.896    507.104    512.410    507.104
124.970    586.000    576.786      9.214    508.195    589.107    508.195    513.336    508.195
