neutron_powder_diffraction_0249
R_wp: 4.218
Temperature (K): 953.333
Counts: 83837.00
Wavelength (Ã…): 2.52098
COMMENTS
Test file for demonstrating the .xyy file format in Reel1.0
END OF HEADER
   tth       Y_obs     Y_calc      Y_res    Background    Phase_1_Nuc    Phase_1_Mag    Phase_2_Nuc    Phase_2_Mag
  9.970    535.000    558.646    -23.646    558.055    558.614    558.055    558.087    558.055
 10.070    586.000    558.937     27.063    558.296    558.904    558.296    558.328    558.296
 10.170    595.000    559.227     35.773    558.530    559.194    558.530    558.562    558.530
 10.270    602.000    559.518     42.482    558.756    559.485    558.756    558.789    558.756
 10.370    562.000    559.814      2.186    558.976    559.781    558.976    559.008    558.976
 10.470    591.000    560.124     30.876    559.188    560.091    559.188    559.220    559.188
 10.570    554.000    560.443     -6.443    559.393    560.409    559.393    559.426    559.393
 10.670    555.000    560.766     -5.766    559.591    560.733    559.591    559.624    559.591
 10.770    555.793    561.107     -5.314    559.782    561.073    559.782    559.816    559.782
 10.870    566.461    561.476      4.985    559.967    561.440    559.967    560.002    559.967
 10.970    638.000    561.879     76.121    560.144    561.842    560.144    560.180    560.144
 11.070    553.264    562.333     -9.069    560.315    562.296    560.315    560.351    560.315
 11.170    599.000    562.859     36.141    560.479    562.821    560.479    560.515    560.479
 11.270    531.154    563.490    -32.336    560.636    563.452    560.636    560.672    560.636
 11.370    576.000    564.279     11.721    560.787    564.240    560.787    560.823    560.787
 11.470    600.310    565.335     34.976    560.931    565.295    560.931    560.968    560.931
 11.570    561.000    566.953     -5.953    561.069    566.911    561.069    561.107    561.069
 11.670    593.000    570.012     22.988    561.200    569.966    561.200    561.241    561.200
 11.770    608.000    576.781     31.219    561.325    576.720    561.325    561.378    561.325
 11.870    567.607    591.456    -23.849    561.444    591.386    561.444    561.498    561.444
 11.970    669.000    618.480     50.520    561.556    618.394    561.556    561.610    561.556
 12.070    625.652    656.595    -30.943    561.663    656.488    561.663    561.717    561.663
 12.170    655.000    691.747    -36.747    561.763    691.619    561.763    561.818    561.763
 12.270    659.000    700.770    -41.770    561.857    700.637    561.857    561.912    561.857
 12.370    619.000    675.525    -56.525    561.945    675.406    561.945    562.000    561.945
 12.470    642.000    635.831      6.169    562.027    635.734    562.027    562.083    562.027
 12.570    561.614    602.703    -41.089    562.104    602.623    562.104    562.161    562.104
 12.670    544.000    582.830    -38.830    562.174    582.755    562.174    562.237    562.174
 12.770    537.000    573.311    -36.311    562.239    573.241    562.239    562.303    562.239
 12.870    536.828    569.226    -32.397    562.298    569.158    562.298    562.362    562.298
 12.970    558.329    567.351     -9.022    562.351    567.284    562.351    562.416    562.351
 13.070    571.000    566.301      4.699    562.399    566.235    562.399    562.464    562.399
 13.170    606.000    565.606     40.394    562.441    565.540    562.441    562.506    562.441
 13.270    509.000    565.107    -56.107    562.478    565.040    562.478    562.543    562.478
 13.370    533.000    564.733    -31.733    562.509    564.666    562.509    562.575    562.509
 13.470    549.000    564.445    -15.445    562.535    564.378    562.535    562.601    562.535
 13.570    537.453    564.219    -26.766    562.556    564.151    562.556    562.622    562.556
 13.670    596.000    564.036     31.964    562.571    563.968    562.571    562.638    562.571
 13.770    571.000    563.884      7.116    562.581    563.817    562.581    562.648    562.581
 13.870    604.935    563.757     41.179    562.586    563.689    562.586    562.653    562.586
 13.970    522.141    563.646    -41.505    562.585    563.577    562.585    562.653    562.585
 14.070    610.000    563.548     46.452    562.580    563.479    562.580    562.648    562.580
 14.170    514.000    563.459    -49.459    562.570    563.390    562.570    562.638    562.570
 14.270    525.000    563.376    -38.376    562.554    563.307    562.554    562.623    562.554
 14.370    561.000    563.298     -2.298    562.534    563.228    562.534    562.604    562.534
 14.470    551.598    563.223    -11.625    562.509    563.153    562.509    562.579    562.509
 14.570    559.000    563.149     -4.149    562.479    563.079    562.479    562.549    562.479
 14.670    566.149    563.078      3.071    562.444    563.006    562.444    562.516    562.444
 14.770    499.000    563.008    -64.008    562.405    562.933    562.405    562.480    562.405
 14.870    518.733    562.935    -44.202    562.361    562.859    562.361    562.437    562.361
 14.970    578.628    562.861     15.767    562.312    562.783    562.312    562.390    562.312
 15.070    608.478    562.785     45.693    562.259    562.707    562.259    562.337    562.259
 15.170    543.876    562.709    -18.833    562.201    562.630    562.201    562.280    562.201
 15.270    572.000    562.634      9.366    562.139    562.554    562.139    562.219    562.139
 15.370    546.000    562.551    -16.551    562.073    562.471    562.073    562.153    562.073
 15.470    566.000    562.466      3.534    562.002    562.385    562.002    562.082    562.002
 15.570    555.000    562.377     -7.377    561.927    562.297    561.927    562.007    561.927
 15.670    578.139    562.286     15.853    561.847    562.205    561.847    561.928    561.847
 15.770    585.251    562.192     23.059    561.763    562.110    561.763    561.845    561.763
 15.870    556.490    562.095     -5.604    561.676    562.012    561.676    561.758    561.676
 15.970    535.009    561.994    -26.985    561.584    561.912    561.584    561.666    561.584
 16.070    600.362    561.891     38.472    561.488    561.808    561.488    561.571    561.488
 16.170    572.019    561.784     10.235    561.388    561.700    561.388    561.471    561.388
 16.270    594.344    561.674     32.670    561.284    561.590    561.284    561.368    561.284
 16.370    528.257    561.561    -33.303    561.176    561.476    561.176    561.260    561.176
 16.470    522.726    561.444    -38.718    561.064    561.359    561.064    561.149    561.064
 16.570    584.000    561.324     22.676    560.948    561.239    560.948    561.034    560.948
 16.670    523.004    561.201    -38.198    560.829    561.115    560.829    560.915    560.829
 16.770    568.000    561.075      6.925    560.706    560.988    560.706    560.792    560.706
 16.870    536.000    560.946    -24.946    560.579    560.858    560.579    560.666    560.579
 16.970    532.000    560.813    -28.813    560.448    560.725    560.448    560.536    560.448
 17.070    547.000    560.678    -13.678    560.314    560.588    560.314    560.403    560.314
 17.170    527.505    560.540    -33.035    560.176    560.449    560.176    560.267    560.176
 17.270    538.000    560.398    -22.398    560.035    560.306    560.035    560.127    560.035
 17.370    577.458    560.252     17.206    559.891    560.160    559.891    559.983    559.891
 17.470    559.924    560.104     -0.179    559.742    560.011    559.742    559.835    559.742
 17.570    571.291    559.952     11.339    559.591    559.859    559.591    559.685    559.591
 17.670    573.338    559.798     13.540    559.436    559.704    559.436    559.531    559.436
 17.770    555.124    559.643     -4.518    559.278    559.548    559.278    559.373    559.278
 17.870    571.869    559.483     12.387    559.117    559.387    559.117    559.212    559.117
 17.970    555.000    559.319     -4.319    558.952    559.223    558.952    559.049    558.952
 18.070    534.951    559.153    -24.202    558.785    559.056    558.785    558.882    558.785
 18.170    624.000    558.984     65.016    558.614    558.886    558.614    558.712    558.614
 18.270    559.348    558.812      0.536    558.440    558.714    558.440    558.538    558.440
 18.370    546.000    558.637    -12.637    558.263    558.538    558.263    558.362    558.263
 18.470    553.000    558.460     -5.460    558.083    558.360    558.083    558.183    558.083
 18.570    566.085    558.280      7.805    557.900    558.179    557.900    558.001    557.900
 18.670    547.000    558.097    -11.097    557.715    557.995    557.715    557.816    557.715
 18.770    579.312    557.911     21.401    557.526    557.809    557.526    557.628    557.526
 18.870    561.523    557.724      3.799    557.335    557.621    557.335    557.438    557.335
 18.970    551.000    557.534     -6.534    557.140    557.430    557.140    557.244    557.140
 19.070    539.000    557.342    -18.342    556.943    557.237    556.943    557.048    556.943
 19.170    532.613    557.151    -24.539    556.744    557.041    556.744    556.854    556.744
 19.270    539.000    556.957    -17.957    556.541    556.843    556.541    556.655    556.541
 19.370    564.000    556.758      7.242    556.337    556.643    556.337    556.452    556.337
 19.470    532.634    556.556    -23.921    556.129    556.440    556.129    556.245    556.129
 19.570    576.000    556.351     19.649    555.919    556.234    555.919    556.036    555.919
 19.670    591.706    556.144     35.562    555.706    556.026    555.706    555.824    555.706
 19.770    595.997    555.936     40.061    555.491    555.817    555.491    555.610    555.491
 19.870    542.735    555.725    -12.990    555.274    555.605    555.274    555.394    555.274
 19.970    526.000    555.512    -29.512    555.054    555.391    555.054    555.175    555.054
 20.070    590.000    555.297     34.703    554.832    555.175    554.832    554.954    554.832
 20.170    538.000    555.082    -17.082    554.607    554.959    554.607    554.731    554.607
 20.270    525.667    554.879    -29.212    554.381    554.755    554.381    554.505    554.381
 20.370    514.000    554.666    -40.666    554.152    554.540    554.152    554.277    554.152
 20.470    518.000    554.444    -36.444    553.921    554.318    553.921    554.047    553.921
 20.570    562.000    554.221      7.779    553.687    554.093    553.687    553.815    553.687
 20.670    584.032    553.996     30.036    553.452    553.867    553.452    553.581    553.452
 20.770    519.065    553.769    -34.704    553.214    553.639    553.214    553.344    553.214
 20.870    600.717    553.541     47.176    552.975    553.410    552.975    553.106    552.975
 20.970    536.000    553.312    -17.312    552.733    553.179    552.733    552.866    552.733
 21.070    522.211    553.082    -30.871    552.489    552.948    552.489    552.624    552.489
 21.170    510.898    552.850    -41.952    552.244    552.715    552.244    552.380    552.244
 21.270    520.000    552.618    -32.618    551.997    552.481    551.997    552.134    551.997
 21.370    541.000    552.384    -11.384    551.747    552.246    551.747    551.886    551.747
 21.470    523.317    552.150    -28.833    551.496    552.010    551.496    551.636    551.496
 21.570    511.000    551.916    -40.916    551.243    551.774    551.243    551.385    551.243
 21.670    562.518    551.681     10.837    550.989    551.537    550.989    551.132    550.989
 21.770    588.000    551.445     36.555    550.732    551.301    550.732    550.877    550.732
 21.870    581.000    551.210     29.790    550.474    551.063    550.474    550.621    550.474
 21.970    553.000    550.984      2.016    550.214    550.836    550.214    550.363    550.214
 22.070    549.000    550.842     -1.842    549.953    550.692    549.953    550.103    549.953
 22.170    562.000    550.621     11.379    549.690    550.469    549.690    549.842    549.690
 22.270    555.000    550.389      4.611    549.426    550.235    549.426    549.580    549.426
 22.370    541.000    550.158     -9.158    549.160    550.002    549.160    549.316    549.160
 22.470    544.000    549.933     -5.933    548.892    549.775    548.892    549.050    548.892
 22.570    564.654    549.747     14.907    548.623    549.587    548.623    548.783    548.623
 22.670    519.000    549.537    -30.537    548.353    549.375    548.353    548.515    548.353
 22.770    542.000    549.320     -7.320    548.081    549.156    548.081    548.246    548.081
 22.870    539.591    549.108     -9.517    547.808    548.941    547.808    547.975    547.808
 22.970    577.000    548.902     28.098    547.534    548.733    547.534    547.703    547.534
 23.070    557.677    548.706      8.971    547.258    548.534    547.258    547.430    547.258
 23.170    579.349    548.533     30.817    546.981    548.356    546.981    547.158    546.981
 23.270    555.000    548.415      6.585    546.703    548.235    546.703    546.884    546.703
 23.370    574.000    548.267     25.733    546.423    548.083    546.423    546.607    546.423
 23.470    535.000    548.136    -13.136    546.143    547.949    546.143    546.330    546.143
 23.570    589.000    548.035     40.965    545.861    547.846    545.861    546.051    545.861
 23.670    583.000    547.976     35.024    545.578    547.783    545.578    545.772    545.578
 23.770    547.000    547.973     -0.973    545.294    547.777    545.294    545.491    545.294
 23.870    577.000    548.049     28.951    545.009    547.850    545.009    545.210    545.009
 23.970    557.000    548.244      8.756    544.723    548.041    544.723    544.928    544.723
 24.070    597.038    548.642     48.396    544.436    548.436    544.436    544.645    544.436
 24.170    582.000    549.472     32.528    544.149    549.263    544.149    544.361    544.149
 24.270    555.995    551.381      4.614    543.860    551.168    543.860    544.077    543.860
 24.370    588.692    555.894     32.797    543.570    555.681    543.570    543.792    543.570
 24.470    613.000    565.616     47.384    543.280    565.405    543.280    543.506    543.280
 24.570    602.443    582.985     19.458    542.988    582.781    542.988    543.219    542.988
 24.670    613.000    606.831      6.169    542.696    606.639    542.696    542.933    542.696
 24.770    603.000    628.571    -25.571    542.403    628.389    542.403    542.645    542.403
 24.870    617.000    634.378    -17.378    542.109    634.196    542.109    542.357    542.109
 24.970    678.000    619.008     58.992    541.815    618.808    541.815    542.069    541.815
 25.070    595.105    593.871      1.235    541.520    593.646    541.520    541.781    541.520
 25.170    553.000    571.881    -18.881    541.224    571.633    541.224    541.492    541.224
 25.270    546.010    557.826    -11.816    540.928    557.562    540.928    541.203    540.928
 25.370    535.590    550.540    -14.950    540.631    550.262    540.631    540.914    540.631
 25.470    506.000    547.122    -41.122    540.333    546.834    540.333    540.625    540.333
 25.570    552.000    545.426      6.574    540.035    545.127    540.035    540.336    540.035
 25.670    569.000    544.411     24.589    539.736    544.102    539.736    540.047    539.736
 25.770    585.000    543.677     41.323    539.437    543.357    539.437    539.758    539.437
 25.870    550.000    543.114      6.886    539.137    542.782    539.137    539.470    539.137
 25.970    562.000    542.638     19.362    538.837    542.294    538.837    539.182    538.837
 26.070    500.848    542.239    -41.391    538.537    541.883    538.537    538.894    538.537
 26.170    505.930    541.902    -35.972    538.236    541.531    538.236    538.607    538.236
 26.270    520.061    541.621    -21.559    537.934    541.234    537.934    538.321    537.934
 26.370    544.000    541.388      2.612    537.633    540.985    537.633    538.036    537.633
 26.470    537.226    541.199     -3.973    537.331    540.778    537.331    537.752    537.331
 26.570    547.515    541.056      6.459    537.028    540.615    537.028    537.469    537.028
 26.670    555.359    540.964     14.395    536.726    540.501    536.726    537.188    536.726
 26.770    518.000    540.928    -22.928    536.423    540.442    536.423    536.909    536.423
 26.870    588.000    540.961     47.039    536.120    540.448    536.120    536.632    536.120
 26.970    505.492    541.086    -35.594    535.817    540.544    535.817    536.358    535.817
 27.070    586.000    541.348     44.652    535.514    540.774    535.514    536.087    535.514
 27.170    560.000    541.722     18.278    535.210    541.112    535.210    535.819    535.210
 27.270    575.196    542.258     32.938    534.906    541.608    534.906    535.556    534.906
 27.370    585.553    543.045     42.509    534.603    542.349    534.603    535.297    534.603
 27.470    492.000    544.210    -52.210    534.299    543.463    534.299    535.044    534.299
 27.570    541.334    546.048     -4.714    533.995    545.243    533.995    534.798    533.995
 27.670    618.000    549.588     68.412    533.691    548.715    533.691    534.561    533.691
 27.770    550.000    558.420     -8.420    533.387    557.467    533.387    534.333    533.387
 27.870    596.000    582.184     13.816    533.083    581.134    533.083    534.118    533.083
 27.970    635.000    637.542     -2.542    532.779    636.370    532.779    533.917    532.779
 28.070    716.772    736.198    -19.426    532.476    734.874    532.476    533.734    532.476
 28.170    892.000    858.426     33.574    532.172    856.931    532.172    533.575    532.172
 28.270    928.000    939.885    -11.885    531.868    938.215    531.868    533.444    531.868
 28.370    929.000    920.876      8.124    531.565    919.027    531.565    533.350    531.565
 28.470    800.213    824.180    -23.967    531.261    822.107    531.261    533.305    531.261
 28.570    721.000    727.631     -6.631    530.958    725.250    530.958    533.326    530.958
 28.670    664.000    688.901    -24.901    530.655    686.099    530.655    533.444    530.655
 28.770    669.602    717.836    -48.234    530.353    714.457    530.353    533.710    530.353
 28.870    758.000    783.847    -25.847    530.050    779.650    530.050    534.221    530.050
 28.970    784.000    830.714    -46.714    529.748    825.302    529.748    535.142    529.748
 29.070    856.000    813.525     42.475    529.446    806.237    529.446    536.733    529.446
 29.170    663.000    744.080    -81.080    529.144    733.899    529.144    539.336    529.144
 29.270    643.000    667.530    -24.530    528.843    653.078    528.843    543.306    528.843
 29.370    592.000    614.697    -22.697    528.542    594.408    528.542    548.838    528.542
 29.470    608.356    589.716     18.640    528.241    562.306    528.241    555.654    528.241
 29.570    591.000    582.385      8.615    527.941    547.804    527.941    562.521    527.941
 29.670    607.000    580.983     26.017    527.641    541.611    527.641    567.011    527.641
 29.770    667.000    578.009     88.991    527.341    538.594    527.341    566.754    527.341
 29.870    621.000    571.451     49.549    527.042    536.767    527.042    561.724    527.042
 29.970    585.000    563.035     21.965    526.743    535.503    526.743    554.273    526.743
 30.070    557.000    555.015      1.985    526.445    534.613    526.445    546.845    526.445
 30.170    547.000    548.587     -1.587    526.147    534.038    526.147    540.694    526.147
 30.270    584.000    544.094     39.906    525.850    533.838    525.850    536.104    525.850
 30.370    565.000    541.650     23.350    525.554    534.314    525.554    532.886    525.554
 30.470    576.000    541.791     34.209    525.258    536.357    525.258    530.687    525.258
 30.570    536.000    546.047    -10.047    524.962    541.837    524.962    529.162    524.962
 30.670    580.000    556.658     23.342    524.667    553.255    524.667    528.051    524.667
 30.770    614.881    574.506     40.376    524.373    571.658    524.373    527.187    524.373
 30.870    598.000    595.642      2.358    524.079    593.200    524.079    526.473    524.079
 30.970    560.018    609.717    -49.699    523.786    607.591    523.786    525.856    523.786
 31.070    585.000    606.722    -21.722    523.493    604.860    523.493    525.306    523.493
 31.170    611.000    588.567     22.433    523.202    586.928    523.202    524.805    523.202
 31.270    556.000    566.280    -10.280    522.910    564.827    522.910    524.343    522.910
 31.370    565.618    548.617     17.001    522.620    547.316    522.620    523.910    522.620
 31.470    592.000    537.929     54.071    522.330    536.753    522.330    523.500    522.330
 31.570    530.000    532.552     -2.552    522.041    531.480    522.041    523.110    522.041
 31.670    488.859    530.043    -41.184    521.753    529.059    521.753    522.735    521.753
 31.770    528.000    528.774     -0.774    521.466    527.865    521.466    522.373    521.466
 31.870    542.000    528.002     13.998    521.179    527.158    521.179    522.021    521.179
 31.970    508.000    527.459    -19.459    520.893    526.672    520.893    521.679    520.893
 32.070    540.000    527.061     12.939    520.608    526.323    520.608    521.345    520.608
 32.170    540.338    526.776     13.563    520.324    526.081    520.324    521.017    520.324
 32.270    540.000    526.591     13.409    520.040    525.935    520.040    520.695    520.040
 32.370    535.000    526.506      8.494    519.758    525.884    519.758    520.379    519.758
 32.470    558.000    526.525     31.475    519.476    525.933    519.476    520.067    519.476
 32.570    593.000    526.660     66.340    519.195    526.095    519.195    519.759    519.195
 32.670    490.247    526.925    -36.678    518.915    526.384    518.915    519.455    518.915
 32.770    495.000    527.353    -32.353    518.636    526.834    518.636    519.154    518.636
 32.870    561.000    527.988     33.012    518.358    527.489    518.358    518.856    518.358
 32.970    544.858    528.893     15.965    518.081    528.412    518.081    518.561    518.081
 33.070    593.000    530.166     62.834    517.805    529.700    517.805    518.269    517.805
 33.170    538.957    531.970      6.988    517.530    531.518    517.530    517.979    517.530
 33.270    543.000    534.657      8.343    517.256    534.218    517.256    517.692    517.256
 33.370    593.000    539.163     53.837    516.982    538.735    516.982    517.406    516.982
 33.470    507.000    548.085    -41.085    516.710    547.666    516.710    517.123    516.710
 33.570    532.247    567.652    -35.404    516.439    567.238    516.439    516.842    516.439
 33.670    613.000    609.283      3.717    516.169    608.868    516.169    516.563    516.169
 33.770    735.711    686.669     49.041    515.900    686.247    515.900    516.285    515.900
 33.870    854.000    804.345     49.655    515.632    803.912    515.632    516.009    515.632
 33.970   1007.000    940.515     66.485    515.365    940.075    515.365    515.735    515.365
 34.070   1066.175   1038.931     27.244    515.099   1038.502    515.099    515.463    515.099
 34.170   1035.000   1039.974     -4.974    514.834   1039.574    514.834    515.192    514.834
 34.270    904.952    942.647    -37.695    514.570    942.278    514.570    514.923    514.570
 34.370    794.000    805.955    -11.955    514.308    805.605    514.308    514.656    514.308
 34.470    697.000    686.878     10.122    514.046    686.537    514.046    514.390    514.046
 34.570    594.000    607.991    -13.991    513.786    607.654    513.786    514.126    513.786
 34.670    569.000    565.147      3.853    513.527    564.812    513.527    513.863    513.527
 34.770    519.000    544.674    -25.674    513.269    544.341    513.269    513.601    513.269
 34.870    488.000    535.036    -47.036    513.012    534.706    513.012    513.341    513.012
 34.970    526.000    529.897     -3.897    512.757    529.570    512.757    513.083    512.757
 35.070    550.000    526.605     23.395    512.503    526.280    512.503    512.826    512.503
 35.170    490.816    524.200    -33.384    512.249    523.878    512.249    512.571    512.249
 35.270    497.000    522.327    -25.327    511.997    522.007    511.997    512.317    511.997
 35.370    522.508    520.815      1.693    511.747    520.497    511.747    512.064    511.747
 35.470    557.932    519.567     38.365    511.497    519.251    511.497    511.813    511.497
 35.570    558.000    518.516     39.484    511.249    518.201    511.249    511.564    511.249
 35.670    544.914    517.615     27.299    511.002    517.301    511.002    511.316    511.002
 35.770    558.366    516.832     41.534    510.757    516.519    510.757    511.069    510.757
 35.870    505.000    516.142    -11.142    510.512    515.830    510.512    510.824    510.512
 35.970    520.688    515.527      5.161    510.269    515.216    510.269    510.580    510.269
 36.070    525.312    514.974     10.338    510.027    514.664    510.027    510.337    510.027
 36.170    476.000    514.473    -38.473    509.787    514.163    509.787    510.097    509.787
 36.270    474.500    514.016    -39.516    509.548    513.707    509.548    509.857    509.548
 36.370    542.896    513.598     29.298    509.310    513.289    509.310    509.619    509.310
 36.470    479.091    513.216    -34.125    509.073    512.906    509.073    509.383    509.073
 36.570    524.150    512.866     11.283    508.838    512.557    508.838    509.148    508.838
 36.670    547.000    512.550     34.450    508.605    512.240    508.605    508.914    508.605
 36.770    466.000    512.269    -46.269    508.372    511.959    508.372    508.682    508.372
 36.870    493.000    512.033    -19.033    508.141    511.722    508.141    508.452    508.141
 36.970    511.000    511.867     -0.867    507.911    511.556    507.911    508.223    507.911
 37.070    495.000    511.840    -16.840    507.683    511.528    507.683    507.995    507.683
 37.170    492.000    512.110    -20.110    507.456    511.797    507.456    507.769    507.456
 37.270    513.000    512.955      0.045    507.231    512.641    507.231    507.545    507.231
 37.370    543.000    514.730     28.270    507.007    514.416    507.007    507.322    507.007
 37.470    522.000    517.643      4.357    506.784    517.329    506.784    507.100    506.784
 37.570    481.285    521.403    -40.119    506.563    521.088    506.563    506.880    506.563
 37.670    498.794    524.914    -26.119    506.343    524.598    506.343    506.662    506.343
 37.770    570.940    526.454     44.486    506.125    526.140    506.125    506.445    506.125
 37.870    520.000    525.057     -5.057    505.908    524.742    505.908    506.229    505.908
 37.970    549.606    521.681     27.924    505.692    521.367    505.692    506.016    505.692
 38.070    490.221    517.871    -27.651    505.478    517.557    505.478    505.803    505.478
 38.170    514.000    514.522     -0.522    505.266    514.205    505.266    505.593    505.266
 38.270    528.000    511.947     16.053    505.055    511.626    505.055    505.384    505.055
 38.370    468.000    510.140    -42.140    504.845    509.815    504.845    505.176    504.845
 38.470    502.000    508.940     -6.940    504.637    508.610    504.637    504.970    504.637
 38.570    542.779    508.151     34.628    504.431    507.818    504.431    504.766    504.431
 38.670    451.000    507.617    -56.617    504.225    507.281    504.225    504.563    504.225
 38.770    481.000    507.228    -26.228    504.022    506.889    504.022    504.362    504.022
 38.870    529.000    506.916     22.084    503.820    506.574    503.820    504.162    503.820
 38.970    526.700    506.646     20.054    503.619    506.302    503.619    503.964    503.619
 39.070    466.000    506.401    -40.401    503.420    506.053    503.420    503.768    503.420
 39.170    472.000    506.172    -34.172    503.223    505.822    503.223    503.573    503.223
 39.270    474.000    505.956    -31.956    503.027    505.603    503.027    503.380    503.027
 39.370    474.000    505.751    -31.751    502.832    505.395    502.832    503.188    502.832
 39.470    467.123    505.555    -38.432    502.639    505.196    502.639    502.998    502.639
 39.570    484.000    505.368    -21.368    502.448    505.006    502.448    502.810    502.448
 39.670    507.000    505.189      1.811    502.258    504.823    502.258    502.624    502.258
 39.770    501.991    505.017     -3.026    502.070    504.648    502.070    502.439    502.070
 39.870    543.783    504.852     38.930    501.883    504.480    501.883    502.256    501.883
 39.970    486.237    504.695    -18.458    501.698    504.319    501.698    502.074    501.698
 40.070    475.000    504.546    -29.546    501.514    504.165    501.514    501.894    501.514
 40.170    472.555    504.404    -31.849    501.332    504.020    501.332    501.716    501.332
 40.270    484.000    504.270    -20.270    501.152    503.882    501.152    501.540    501.152
 40.370    464.203    504.145    -39.942    500.973    503.753    500.973    501.365    500.973
 40.470    470.762    504.030    -33.267    500.795    503.633    500.795    501.192    500.795
 40.570    533.501    503.925     29.576    500.620    503.524    500.620    501.021    500.620
 40.670    512.000    503.832      8.168    500.446    503.427    500.446    500.851    500.446
 40.770    541.715    503.753     37.962    500.273    503.343    500.273    500.684    500.273
 40.870    500.000    503.689     -3.689    500.102    503.274    500.102    500.517    500.102
 40.970    468.303    503.644    -35.342    499.933    503.224    499.933    500.353    499.933
 41.070    518.000    503.621     14.379    499.765    503.196    499.765    500.191    499.765
 41.170    519.000    503.625     15.375    499.599    503.194    499.599    500.030    499.599
 41.270    481.746    503.661    -21.915    499.434    503.225    499.434    499.871    499.434
 41.370    515.000    503.739     11.261    499.271    503.297    499.271    499.714    499.271
 41.470    511.000    503.869      7.131    499.110    503.422    499.110    499.558    499.110
 41.570    532.292    504.069     28.223    498.950    503.616    498.950    499.405    498.950
 41.670    472.000    504.366    -32.366    498.792    503.906    498.792    499.253    498.792
 41.770    540.106    504.812     35.294    498.636    504.346    498.636    499.103    498.636
 41.870    490.913    505.533    -14.620    498.481    505.061    498.481    498.955    498.481
 41.970    474.000    506.837    -32.837    498.328    506.358    498.328    498.808    498.328
 42.070    503.000    509.428     -6.428    498.176    508.944    498.176    498.664    498.176
 42.170    499.878    514.662    -14.784    498.026    514.172    498.026    498.522    498.026
 42.270    498.127    524.563    -26.436    497.878    524.069    497.878    498.381    497.878
 42.370    557.331    541.148     16.183    497.731    540.654    497.731    498.242    497.731
 42.470    555.000    564.824     -9.824    497.586    564.332    497.586    498.105    497.586
 42.570    545.000    592.357    -47.357    497.442    591.872    497.442    497.971    497.442
 42.670    588.000    615.707    -27.707    497.300    615.228    497.300    497.838    497.300
 42.770    592.000    624.153    -32.153    497.160    623.673    497.160    497.707    497.160
 42.870    557.000    612.598    -55.598    497.021    612.104    497.021    497.578    497.021
 42.970    547.000    587.580    -40.580    496.884    587.064    496.884    497.451    496.884
 43.070    578.000    559.960     18.040    496.749    559.418    496.749    497.326    496.749
 43.170    533.000    537.082     -4.082    496.615    536.516    496.615    497.203    496.615
 43.270    459.000    521.471    -62.471    496.483    520.885    496.483    497.082    496.483
 43.370    542.765    512.309     30.456    496.353    511.706    496.353    496.963    496.353
 43.470    497.790    507.468     -9.677    496.224    506.849    496.224    496.847    496.224
 43.570    464.000    504.993    -40.993    496.097    504.361    496.097    496.732    496.097
 43.670    480.000    503.645    -23.645    495.971    502.998    495.971    496.620    495.971
 43.770    497.983    502.804     -4.821    495.847    502.143    495.847    496.510    495.847
 43.870    518.455    502.207     16.248    495.725    501.531    495.725    496.402    495.725
 43.970    493.000    501.748     -8.748    495.605    501.057    495.605    496.297    495.605
 44.070    503.000    501.382      1.618    495.486    500.674    495.486    496.194    495.486
 44.170    503.904    501.084      2.820    495.368    500.360    495.368    496.093    495.368
 44.270    488.000    500.839    -12.839    495.252    500.097    495.252    495.995    495.252
 44.370    531.101    500.636     30.465    495.138    499.876    495.138    495.899    495.138
 44.470    499.000    500.469     -1.469    495.026    499.689    495.026    495.806    495.026
 44.570    476.000    500.330    -24.330    494.915    499.530    494.915    495.715    494.915
 44.670    462.000    500.217    -38.217    494.806    499.396    494.806    495.627    494.806
 44.770    531.000    500.126     30.874    494.698    499.282    494.698    495.542    494.698
 44.870    477.000    500.055    -23.055    494.592    499.187    494.592    495.460    494.592
 44.970    480.000    500.002    -20.002    494.488    499.109    494.488    495.381    494.488
 45.070    480.053    499.966    -19.913    494.385    499.046    494.385    495.305    494.385
 45.170    511.207    499.947     11.260    494.284    498.999    494.284    495.232    494.284
 45.270    495.309    499.944     -4.635    494.184    498.966    494.184    495.163    494.184
 45.370    476.245    499.957    -23.712    494.087    498.947    494.087    495.097    494.087
 45.470    518.900    499.987     18.913    493.990    498.943    493.990    495.034    493.990
 45.570    530.277    500.033     30.244    493.896    498.953    493.896    494.976    493.896
 45.670    483.000    500.098    -17.098    493.803    498.979    493.803    494.921    493.803
 45.770    519.759    500.181     19.578    493.711    499.020    493.711    494.871    493.711
 45.870    501.000    500.284      0.716    493.621    499.079    493.621    494.826    493.621
 45.970    517.000    500.410     16.590    493.533    499.157    493.533    494.785    493.533
 46.070    467.075    500.560    -33.484    493.447    499.256    493.447    494.750    493.447
 46.170    528.000    500.738     27.262    493.362    499.378    493.362    494.721    493.362
 46.270    490.000    500.946    -10.946    493.278    499.527    493.278    494.697    493.278
 46.370    549.000    501.191     47.809    493.196    499.706    493.196    494.680    493.196
 46.470    485.000    501.477    -16.477    493.116    499.922    493.116    494.671    493.116
 46.570    512.305    501.814     10.491    493.038    500.181    493.038    494.669    493.038
 46.670    477.060    502.211    -25.151    492.961    500.494    492.961    494.677    492.961
 46.770    496.000    502.686     -6.686    492.885    500.876    492.885    494.694    492.885
 46.870    495.000    503.271     -8.271    492.811    501.359    492.811    494.722    492.811
 46.970    494.925    504.033     -9.107    492.739    502.007    492.739    494.762    492.739
 47.070    518.157    505.122     13.035    492.668    502.972    492.668    494.816    492.668
 47.170    505.000    506.861     -1.861    492.599    504.571    492.599    494.886    492.599
 47.270    506.000    509.851     -3.851    492.532    507.403    492.532    494.974    492.532
 47.370    541.000    515.004     25.996    492.465    512.377    492.465    495.082    492.465
 47.470    535.000    523.370     11.630    492.401    520.540    492.401    495.215    492.401
 47.570    503.621    535.616    -31.995    492.338    532.554    492.338    495.375    492.338
 47.670    551.000    551.252     -0.252    492.277    547.923    492.277    495.569    492.277
 47.770    568.000    567.878      0.122    492.217    564.245    492.217    495.802    492.217
 47.870    593.857    581.054     12.803    492.159    577.075    492.159    496.083    492.159
 47.970    608.183    585.790     22.393    492.102    581.414    492.102    496.421    492.102
 48.070    600.000    580.199     19.801    492.047    575.364    492.047    496.831    492.047
 48.170    545.000    567.515    -22.515    491.993    562.137    491.993    497.332    491.993
 48.270    560.328    553.031      7.297    491.941    546.992    491.941    497.951    491.941
 48.370    549.000    540.741      8.259    491.891    533.876    491.891    498.736    491.891
 48.470    520.000    532.531    -12.531    491.841    524.595    491.841    499.766    491.841
 48.570    565.124    528.635     36.490    491.794    519.242    491.794    501.179    491.794
 48.670    500.000    528.469    -28.469    491.748    517.001    491.748    503.211    491.748
 48.770    558.000    531.423     26.577    491.703    516.884    491.703    506.238    491.703
 48.870    543.918    537.308      6.610    491.660    518.158    491.660    510.806    491.660
 48.970    595.000    546.442     48.558    491.619    520.447    491.619    517.610    491.619
 49.070    519.362    559.500    -40.138    491.579    523.696    491.579    527.378    491.579
 49.170    494.000    577.295    -83.295    491.540    528.179    491.540    540.651    491.540
 49.270    573.559    600.730    -27.171    491.503    534.787    491.503    557.439    491.503
 49.370    608.000    631.306    -23.306    491.467    545.961    491.467    576.802    491.467
 49.470    718.000    672.696     45.304    491.433    567.804    491.433    596.310    491.433
 49.570    739.635    733.814      5.821    491.401    613.490    491.401    611.699    491.401
 49.670    825.000    832.973     -7.973    491.369    706.400    491.369    617.898    491.369
 49.770   1032.086    999.473     32.614    491.340    878.380    491.340    612.354    491.340
 49.870   1237.946   1263.329    -25.383    491.311   1157.145    491.311    597.375    491.311
 49.970   1618.000   1628.983    -10.983    491.284   1542.138    491.284    577.968    491.284
 50.070   2142.000   2047.010     94.990    491.259   1979.608    491.259    558.485    491.259
 50.170   2320.331   2406.176    -85.845    491.235   2355.806    491.235    541.463    491.235
 50.270   2525.522   2566.808    -41.286    491.212   2530.047    491.212    527.926    491.212
 50.370   2454.479   2449.619      4.860    491.191   2422.977    491.191    517.911    491.191
 50.470   2075.000   2106.722    -31.722    491.171   2087.162    491.171    510.901    491.171
 50.570   1646.000   1672.161    -26.161    491.153   1657.342    491.153    506.174    491.153
 50.670   1212.000   1270.197    -58.197    491.136   1258.486    491.136    503.029    491.136
 50.770    940.847    969.415    -28.567    491.121    959.765    491.121    500.909    491.121
 50.870    786.000    781.105      4.895    491.106    772.877    491.106    499.429    491.106
 50.970    645.000    681.047    -36.047    491.094    673.860    491.094    498.345    491.094
 51.070    695.000    634.793     60.207    491.082    628.409    491.082    497.513    491.082
 51.170    653.000    613.548     39.452    491.072    607.807    491.072    496.851    491.072
 51.270    633.768    599.590     34.178    491.064    594.376    491.064    496.311    491.064
 51.370    539.202    585.606    -46.404    491.056    580.826    491.056    495.864    491.056
 51.470    603.000    570.887     32.113    491.050    566.470    491.050    495.490    491.050
 51.570    570.000    557.064     12.936    491.046    552.952    491.046    495.174    491.046
 51.670    512.441    545.629    -33.188    491.042    541.775    491.042    494.908    491.042
 51.770    540.608    537.206      3.402    491.040    533.573    491.040    494.681    491.040
 51.870    563.000    531.644     31.356    491.040    528.199    491.040    494.489    491.040
 51.970    485.482    528.361    -42.879    491.040    525.079    491.040    494.327    491.040
 52.070    560.000    526.713     33.287    491.042    523.570    491.042    494.189    491.042
 52.170    577.000    526.214     50.786    491.046    523.189    491.046    494.073    491.046
 52.270    516.000    526.608    -10.608    491.050    523.685    491.050    493.976    491.050
 52.370    544.000    527.878     16.122    491.056    525.041    491.056    493.895    491.056
 52.470    570.000    530.283     39.717    491.063    527.517    491.063    493.830    491.063
 52.570    582.022    534.542     47.480    491.072    531.836    491.072    493.778    491.072
 52.670    571.000    542.234     28.766    491.082    539.577    491.082    493.739    491.082
 52.770    586.673    556.369     30.304    491.092    553.750    491.092    493.710    491.092
 52.870    582.000    581.880      0.120    491.105    579.290    491.105    493.692    491.105
 52.970    699.000    625.443     73.557    491.118    622.873    491.118    493.684    491.118
 53.070    762.000    693.861     68.139    491.133    691.304    491.133    493.684    491.133
 53.170    841.000    790.687     50.313    491.149    788.135    491.149    493.693    491.149
 53.270    955.000    911.792     43.208    491.166    909.239    491.166    493.710    491.166
 53.370   1054.922   1041.528     13.394    491.184   1038.971    491.184    493.735    491.184
 53.470   1070.000   1151.617    -81.617    491.204   1149.054    491.204    493.767    491.204
 53.570   1198.000   1207.488     -9.488    491.224   1204.918    491.224    493.807    491.224
 53.670   1115.000   1187.466    -72.466    491.246   1184.882    491.246    493.854    491.246
 53.770   1082.484   1100.214    -17.730    491.269   1097.607    491.269    493.909    491.269
 53.870    974.091    976.775     -2.684    491.294    974.131    491.294    493.971    491.294
 53.970    835.000    849.599    -14.599    491.319    846.908    491.319    494.040    491.319
 54.070    760.000    740.535     19.465    491.346    737.787    491.346    494.117    491.346
 54.170    663.000    658.952      4.048    491.373    656.140    491.373    494.201    491.373
 54.270    586.398    604.516    -18.119    491.402    601.636    491.402    494.293    491.402
 54.370    578.291    571.553      6.738    491.432    568.598    491.432    494.394    491.432
 54.470    552.000    553.071     -1.071    491.463    550.036    491.463    494.502    491.463
 54.570    570.000    543.226     26.774    491.496    540.103    491.496    494.620    491.496
 54.670    558.000    538.110     19.890    491.529    534.893    491.529    494.747    491.529
 54.770    545.000    535.510      9.490    491.563    532.190    491.563    494.885    491.563
 54.870    558.000    534.325     23.675    491.599    530.892    491.599    495.032    491.599
 54.970    550.000    534.059     15.941    491.635    530.503    491.635    495.191    491.635
 55.070    567.000    534.508     32.492    491.673    530.819    491.673    495.363    491.673
 55.170    581.612    535.602     46.010    491.712    531.767    491.712    495.547    491.712
 55.270    533.000    537.340     -4.340    491.752    533.346    491.752    495.746    491.752
 55.370    506.335    539.769    -33.434    491.792    535.601    491.792    495.960    491.792
 55.470    550.000    542.984      7.016    491.834    538.627    491.834    496.191    491.834
 55.570    548.000    547.164      0.836    491.877    542.600    491.877    496.441    491.877
 55.670    549.000    552.657     -3.657    491.921    547.866    491.921    496.711    491.921
 55.770    593.000    560.207     32.793    491.966    555.167    491.966    497.005    491.966
 55.870    603.125    571.459     31.666    492.012    566.143    492.012    497.323    492.012
 55.970    596.000    589.930      6.070    492.059    584.310    492.059    497.670    492.059
 56.070    598.230    622.527    -24.297    492.107    616.568    492.107    498.049    492.107
 56.170    712.664    681.217     31.447    492.155    674.879    492.155    498.463    492.155
 56.270    759.000    783.665    -24.665    492.205    776.903    492.205    498.918    492.205
 56.370    922.000    950.823    -28.823    492.256    943.587    492.256    499.420    492.256
 56.470   1146.540   1199.732    -53.192    492.308   1191.973    492.308    499.974    492.308
 56.570   1477.000   1531.985    -54.985    492.360   1523.658    492.360    500.589    492.360
 56.670   1998.827   1921.614     77.212    492.414   1912.676    492.414    501.274    492.414
 56.770   2244.000   2308.037    -64.037    492.468   2298.443    492.468    502.041    492.468
 56.870   2527.588   2600.397    -72.809    492.524   2590.085    492.524    502.904    492.524
 56.970   2730.612   2705.286     25.326    492.580   2694.151    492.580    503.880    492.580
 57.070   2589.000   2582.809      6.191    492.637   2570.687    492.637    504.991    492.637
 57.170   2273.311   2279.957     -6.645    492.695   2266.640    492.695    506.263    492.695
 57.270   1973.000   1892.532     80.468    492.754   1877.782    492.754    507.733    492.754
 57.370   1525.000   1509.638     15.362    492.814   1493.184    492.814    509.452    492.814
 57.470   1190.623   1188.673      1.950    492.874   1170.184    492.874    511.495    492.874
 57.570   1000.000    952.719     47.281    492.936    931.757    492.936    513.983    492.936
 57.670    836.000    798.456     37.544    492.998    774.389    492.998    517.116    492.998
 57.770    753.000    708.620     44.380    493.061    680.481    493.061    521.227    493.061
 57.870    676.958    663.547     13.411    493.125    629.827    493.125    526.858    493.125
 57.970    624.000    648.225    -24.225    493.190    606.571    493.190    534.847    493.190
 58.070    689.640    654.591     35.049    493.255    601.446    493.255    546.395    493.255
 58.170    684.000    680.776      3.224    493.321    611.011    493.321    563.073    493.321
 58.270    731.000    728.870      2.130    493.388    635.546    493.388    586.689    493.388
 58.370    844.498    802.246     42.252    493.456    676.686    493.456    618.982    493.456
 58.470    895.000    902.876     -7.876    493.525    735.225    493.525    661.129    493.525
 58.570   1036.598   1028.925      7.673    493.594    809.363    493.594    713.100    493.594
 58.670   1236.297   1172.936     63.361    493.664    893.622    493.664    772.918    493.664
 58.770   1335.702   1321.334     14.369    493.735    979.181    493.735    835.832    493.735
 58.870   1503.000   1456.363     46.637    493.806   1056.569    493.806    893.558    493.806
 58.970   1601.000   1559.148     41.852    493.878   1118.358    493.878    934.643    493.878
 59.070   1556.265   1612.226    -55.961    493.951   1158.150    493.951    948.021    493.951
 59.170   1630.000   1604.863     25.137    494.024   1169.470    494.024    929.431    494.024
 59.270   1564.000   1540.836     23.164    494.099   1150.311    494.099    884.650    494.099
 59.370   1374.069   1439.570    -65.502    494.173   1108.463    494.173    825.307    494.173
 59.470   1343.000   1327.099     15.901    494.249   1058.835    494.249    762.522    494.249
 59.570   1206.169   1226.598    -20.429    494.325   1016.953    494.325    703.950    494.325
 59.670   1256.000   1155.719    100.281    494.402    996.277    494.402    653.782    494.402
 59.770   1194.000   1127.881     66.119    494.479   1008.667    494.479    613.582    494.479
 59.870   1098.000   1151.490    -53.490    494.557   1062.771    494.557    583.109    494.557
 59.970   1198.756   1225.469    -26.712    494.635   1158.843    494.635    561.041    494.635
 60.070   1337.000   1335.079      1.921    494.714   1283.942    494.714    545.588    494.714
 60.170   1486.550   1451.340     35.210    494.794   1410.884    494.794    534.966    494.794
 60.270   1497.712   1535.417    -37.705    494.874   1502.353    494.874    527.663    494.874
 60.370   1627.000   1550.799     76.201    494.955   1522.972    494.955    522.546    494.955
 60.470   1475.000   1482.429     -7.429    495.036   1458.446    495.036    518.837    495.036
 60.570   1391.000   1346.223     44.777    495.118   1325.172    495.118    516.042    495.118
 60.670   1242.000   1176.407     65.593    495.201   1157.662    495.201    513.865    495.201
 60.770   1026.000   1006.860     19.140    495.283    989.964    495.283    512.131    495.283
 60.870    870.000    861.265      8.735    495.367    845.861    495.367    510.743    495.367
 60.970    744.000    750.868     -6.868    495.451    736.652    495.451    509.649    495.451
 61.070    673.000    676.542     -3.542    495.535    663.241    495.535    508.823    495.535
 61.170    620.000    633.203    -13.203    495.620    620.558    495.620    508.251    495.620
 61.270    600.000    614.571    -14.571    495.705    602.332    495.705    507.928    495.705
 61.370    631.000    616.659     14.341    495.791    604.583    495.791    507.843    495.791
 61.470    713.000    639.330     73.670    495.877    627.195    495.877    507.976    495.877
 61.570    671.000    685.948    -14.948    495.963    673.573    495.963    508.286    495.963
 61.670    782.000    761.316     20.684    496.050    748.590    496.050    508.698    496.050
 61.770    824.000    868.277    -44.277    496.138    855.201    496.138    509.103    496.138
 61.870   1042.477   1003.755     38.722    496.225    990.483    496.225    509.351    496.225
 61.970   1144.971   1155.550    -10.579    496.314   1142.391    496.314    509.294    496.314
 62.070   1292.263   1301.208     -8.945    496.402   1288.555    496.402    508.856    496.402
 62.170   1364.000   1410.312    -46.312    496.491   1398.525    496.491    508.080    496.491
 62.270   1383.000   1452.985    -69.985    496.580   1442.300    496.580    507.095    496.580
 62.370   1376.983   1415.279    -38.297    496.670   1405.783    496.670    506.042    496.670
 62.470   1275.153   1308.902    -33.749    496.760   1300.560    496.760    505.029    496.760
 62.570   1127.000   1162.867    -35.867    496.850   1155.564    496.850    504.123    496.850
 62.670   1010.000   1008.002      1.998    496.940   1001.582    496.940    503.358    496.940
 62.770    829.000    867.640    -38.640    497.031    861.944    497.031    502.740    497.031
 62.870    701.000    754.768    -53.768    497.122    749.647    497.122    502.259    497.122
 62.970    621.000    672.801    -51.801    497.213    668.131    497.213    501.897    497.213
 63.070    592.000    618.432    -26.432    497.305    614.117    497.305    501.629    497.305
 63.170    594.230    585.168      9.062    497.397    581.135    497.397    501.434    497.397
 63.270    608.000    566.248     41.752    497.489    562.445    497.489    501.292    497.489
 63.370    581.000    556.308     24.692    497.581    552.697    497.581    501.189    497.581
 63.470    586.534    551.908     34.625    497.674    548.463    497.674    501.114    497.674
 63.570    568.000    551.406     16.594    497.766    548.106    497.766    501.060    497.766
 63.670    543.000    554.635    -11.635    497.859    551.463    497.859    501.022    497.859
 63.770    554.298    562.631     -8.333    497.952    559.572    497.952    500.997    497.952
 63.870    570.000    577.403     -7.403    498.046    574.444    498.046    500.984    498.046
 63.970    578.000    601.587    -23.587    498.139    598.715    498.139    500.979    498.139
 64.070    688.682    637.820     50.862    498.233    635.023    498.233    500.983    498.233
 64.170    742.000    687.753     54.247    498.326    685.019    498.326    500.994    498.326
 64.270    752.000    750.855      1.145    498.420    748.176    498.420    501.012    498.420
 64.370    796.996    823.307    -26.312    498.514    820.675    498.514    501.036    498.514
 64.470    923.000    897.349     25.651    498.608    894.762    498.608    501.065    498.608
 64.570    904.499    961.655    -57.156    498.702    959.117    498.702    501.100    498.702
 64.670    972.000   1003.864    -31.864    498.797   1001.383    498.797    501.139    498.797
 64.770   1038.000   1015.528     22.472    498.891   1013.113    498.891    501.182    498.891
 64.870   1065.000    995.949     69.051    498.985    993.607    498.985    501.230    498.985
 64.970    939.000    951.458    -12.458    499.080    949.189    499.080    501.281    499.080
 65.070    864.000    892.205    -28.205    499.174    890.005    499.174    501.336    499.174
 65.170    866.000    828.806     37.194    499.268    826.669    499.268    501.394    499.268
 65.270    803.472    769.486     33.986    499.363    767.402    499.363    501.455    499.363
 65.370    680.000    718.644    -38.644    499.457    716.604    499.457    501.518    499.457
 65.470    655.000    677.203    -22.203    499.552    675.198    499.552    501.584    499.552
 65.570    624.746    644.143    -19.398    499.646    642.163    499.646    501.653    499.646
 65.670    600.000    618.016    -18.016    499.741    616.056    499.741    501.726    499.741
 65.770    600.000    597.586      2.414    499.835    595.640    499.835    501.800    499.835
 65.870    621.241    581.858     39.383    499.930    579.924    499.930    501.877    499.930
 65.970    535.000    570.041    -35.041    500.024    568.118    500.024    501.956    500.024
 66.070    550.000    561.511    -11.511    500.118    559.596    500.118    502.038    500.118
 66.170    529.792    555.755    -25.963    500.212    553.848    500.212    502.121    500.212
 66.270    555.000    552.326      2.674    500.306    550.426    500.306    502.207    500.306
 66.370    537.000    550.829    -13.829    500.400    548.934    500.400    502.295    500.400
 66.470    540.000    550.946    -10.946    500.494    549.055    500.494    502.384    500.494
 66.570    568.663    552.490     16.172    500.588    550.601    500.588    502.476    500.588
 66.670    560.000    555.483      4.517    500.681    553.594    500.681    502.570    500.681
 66.770    501.000    560.283    -59.283    500.775    558.392    500.775    502.666    500.775
 66.870    599.732    567.810     31.922    500.868    565.914    500.868    502.764    500.868
 66.970    548.000    579.904    -31.904    500.961    578.001    500.961    502.864    500.961
 67.070    595.000    599.847     -4.847    501.054    597.932    501.054    502.966    501.054
 67.170    588.000    632.907    -44.907    501.147    630.978    501.147    503.070    501.147
 67.270    646.000    686.689    -40.689    501.239    684.741    501.239    503.177    501.239
 67.370    775.000    770.824      4.176    501.332    768.854    501.332    503.285    501.332
 67.470    924.558    895.557     29.001    501.424    893.561    501.424    503.396    501.424
 67.570   1090.000   1068.952     21.048    501.515   1066.930    501.515    503.510    501.515
 67.670   1333.000   1293.010     39.990    501.607   1290.966    501.607    503.626    501.607
 67.770   1552.000   1559.618     -7.618    501.698   1557.559    501.698    503.744    501.698
 67.870   1921.000   1847.608     73.392    501.789   1845.546    501.789    503.866    501.789
 67.970   2150.000   2122.137     27.864    501.880   2120.087    501.880    503.990    501.880
 68.070   2410.905   2337.977     72.928    501.971   2335.952    501.971    504.118    501.971
 68.170   2377.000   2449.826    -72.826    502.061   2447.831    502.061    504.249    502.061
 68.270   2446.000   2430.317     15.683    502.151   2428.341    502.151    504.383    502.151
 68.370   2270.000   2284.682    -14.682    502.240   2282.699    502.240    504.522    502.240
 68.470   2120.000   2047.518     72.482    502.330   2045.490    502.330    504.664    502.330
 68.570   1793.000   1765.463     27.537    502.418   1763.358    502.418    504.811    502.418
 68.670   1432.000   1481.282    -49.282    502.507   1479.075    502.507    504.963    502.507
 68.770   1262.000   1225.948     36.052    502.595   1223.624    502.595    505.120    502.595
 68.870    979.000   1016.662    -37.662    502.683   1014.214    502.683    505.282    502.683
 68.970    842.000    858.243    -16.243    502.770    855.670    502.770    505.451    502.770
 69.070    715.000    746.528    -31.528    502.857    743.831    502.857    505.627    502.857
 69.170    665.255    672.492     -7.237    502.944    669.673    502.944    505.810    502.944
 69.270    620.000    625.871     -5.871    503.030    622.929    503.030    506.002    503.030
 69.370    618.270    597.543     20.727    503.116    594.475    503.116    506.203    503.116
 69.470    616.000    580.579     35.421    503.201    577.379    503.201    506.414    503.201
 69.570    594.000    570.308     23.692    503.286    566.967    503.286    506.636    503.286
 69.670    594.000    563.877     30.123    503.370    560.382    503.370    506.871    503.370
 69.770    513.286    559.675    -46.390    503.454    556.014    503.454    507.120    503.454
 69.870    605.000    556.854     48.146    503.538    553.009    503.538    507.385    503.538
 69.970    549.396    554.983     -5.587    503.621    550.938    503.621    507.668    503.621
 70.070    539.000    553.854    -14.854    503.703    549.587    503.703    507.971    503.703
 70.170    544.000    553.372     -9.372    503.785    548.860    503.785    508.297    503.785
 70.270    605.000    553.509     51.491    503.867    548.725    503.867    508.650    503.867
 70.370    514.506    554.293    -39.787    503.948    549.206    503.948    509.033    503.948
 70.470    593.092    555.841     37.251    504.028    550.416    504.028    509.450    504.028
 70.570    590.833    558.393     32.440    504.108    552.590    504.108    509.908    504.108
 70.670    582.000    562.430     19.570    504.187    556.199    504.187    510.412    504.187
 70.770    547.000    568.836    -21.836    504.266    562.122    504.266    510.972    504.266
 70.870    569.000    579.142    -10.142    504.344    571.877    504.344    511.597    504.344
 70.970    583.365    595.806    -12.440    504.421    587.905    504.421    512.303    504.421
 71.070    590.000    622.461    -32.461    504.498    613.819    504.498    513.112    504.498
 71.170    672.310    663.977      8.333    504.575    654.453    504.575    514.055    504.575
 71.270    766.391    726.127     40.264    504.650    715.526    504.650    515.187    504.650
 71.370    804.000    814.682    -10.682    504.725    802.724    504.725    516.593    504.725
 71.470    941.034    933.884      7.150    504.800    920.152    504.800    518.410    504.800
 71.570   1110.000   1084.484     25.516    504.873   1068.346    504.873    520.856    504.873
 71.670   1214.000   1261.802    -47.802    504.946   1242.303    504.946    524.256    504.946
 71.770   1447.946   1454.355     -6.409    505.019   1430.081    505.019    529.075    505.019
 71.870   1681.720   1643.564     38.156    505.091   1612.492    505.091    535.930    505.091
 71.970   1733.000   1805.133    -72.133    505.162   1764.487    505.162    545.577    505.162
 72.070   1909.000   1913.306     -4.306    505.232   1859.482    505.232    558.846    505.232
 72.170   1911.171   1948.959    -37.788    505.301   1877.565    505.301    576.521    505.301
 72.270   2031.000   1908.419    122.581    505.370   1814.497    505.370    599.160    505.370
 72.370   1916.000   1805.597    110.403    505.439   1684.075    505.439    626.869    505.439
 72.470   1647.000   1664.893    -17.893    505.506   1511.264    505.506    659.076    505.506
 72.570   1451.000   1511.447    -60.447    505.573   1322.665    505.573    694.321    505.573
 72.670   1322.000   1364.832    -42.832    505.639   1140.362    505.639    730.089    505.639
 72.770   1185.000   1236.557    -51.557    505.704    979.494    505.704    762.755    505.704
 72.870   1051.000   1130.040    -79.040    505.768    847.952    505.768    787.849    505.768
 72.970   1004.748   1042.548    -37.800    505.832    747.376    505.832    800.998    505.832
 73.070    903.000    968.602    -65.602    505.894    674.953    505.894    799.538    505.894
 73.170    849.205    903.317    -54.111    505.956    625.463    505.956    783.805    505.956
 73.270    777.000    844.001    -67.001    506.018    593.067    506.018    756.948    506.018
 73.370    743.000    789.881    -46.881    506.078    572.496    506.078    723.460    506.078
 73.470    773.576    741.179     32.397    506.137    559.634    506.137    687.681    506.137
 73.570    680.434    698.424    -17.990    506.196    551.606    506.196    653.013    506.196
 73.670    572.000    662.091    -90.091    506.254    546.595    506.254    621.751    506.254
 73.770    578.000    632.403    -54.403    506.311    543.555    506.311    595.162    506.311
 73.870    582.000    609.229    -27.229    506.367    541.937    506.367    573.665    506.367
 73.970    610.000    592.084     17.916    506.422    541.470    506.422    557.045    506.422
 74.070    544.677    580.197    -35.520    506.477    542.003    506.477    544.683    506.477
 74.170    531.915    572.623    -40.708    506.530    543.395    506.530    535.775    506.530
 74.270    600.000    568.342     31.658    506.583    545.449    506.583    529.498    506.583
 74.370    528.192    566.333    -38.140    506.634    547.874    506.634    525.122    506.634
 74.470    629.000    565.615     63.385    506.685    550.275    506.685    522.060    506.685
 74.570    597.013    565.284     31.730    506.735    552.181    506.735    519.877    506.735
 74.670    650.000    564.570     85.430    506.783    553.124    506.783    518.272    506.783
 74.770    601.352    562.951     38.401    506.831    552.779    506.831    517.047    506.831
 74.870    627.000    560.259     66.741    506.878    551.105    506.878    516.074    506.878
 74.970    532.436    556.684    -24.248    506.924    548.370    506.924    515.277    506.924
 75.070    538.047    552.652    -14.605    506.969    545.047    506.969    514.606    506.969
 75.170    622.000    548.671     73.329    507.013    541.678    507.013    514.033    507.013
 75.270    617.000    545.248     71.752    507.056    538.788    507.056    513.537    507.056
 75.370    584.000    542.867     41.133    507.098    536.875    507.098    513.103    507.098
 75.470    567.000    542.001     24.999    507.139    536.425    507.139    512.723    507.139
 75.570    561.000    543.143     17.857    507.179    537.937    507.179    512.387    507.179
 75.670    506.850    546.814    -39.964    507.218    541.938    507.218    512.090    507.218
 75.770    535.000    553.545    -18.545    507.256    548.966    507.256    511.825    507.256
 75.870    572.860    563.802      9.058    507.293    559.488    507.293    511.590    507.293
 75.970    587.000    577.851      9.149    507.329    573.776    507.329    511.379    507.329
 76.070    601.000    595.592      5.408    507.364    591.732    507.364    511.190    507.364
 76.170    631.000    616.386     14.614    507.397    612.721    507.397    511.020    507.397
 76.270    626.603    638.943    -12.340    507.430    635.454    507.430    510.867    507.430
 76.370    650.000    661.283    -11.283    507.462    657.956    507.462    510.729    507.462
 76.470    706.000    680.833     25.167    507.492    677.656    507.492    510.604    507.492
 76.570    691.000    694.741     -3.741    507.522    691.705    507.522    510.490    507.522
 76.670    692.000    700.540     -8.540    507.550    697.638    507.550    510.387    507.550
 76.770    655.885    697.047    -41.162    507.577    694.271    507.577    510.292    507.577
 76.870    656.000    684.901    -28.901    507.603    682.246    507.603    510.206    507.603
 76.970    682.138    666.250     15.888    507.628    663.709    507.628    510.127    507.628
 77.070    597.084    643.889    -46.806    507.652    641.454    507.652    510.054    507.652
 77.170    622.000    620.501      1.499    507.675    618.163    507.675    509.987    507.675
 77.270    624.411    598.238     26.173    507.696    595.991    507.696    509.925    507.696
 77.370    537.783    578.569    -40.786    507.717    576.405    507.717    509.868    507.717
 77.470    554.000    562.267     -8.267    507.736    560.180    507.736    509.815    507.736
 77.570    547.000    549.507     -2.507    507.754    547.491    507.754    509.766    507.754
 77.670    498.912    540.020    -41.108    507.771    538.068    507.771    509.719    507.771
 77.770    536.000    533.281      2.719    507.787    531.389    507.787    509.676    507.787
 77.870    537.000    528.673      8.327    507.801    526.837    507.801    509.635    507.801
 77.970    483.273    525.609    -42.336    507.815    523.825    507.815    509.597    507.815
 78.070    496.163    523.570    -27.407    507.827    521.835    507.827    509.561    507.827
 78.170    512.549    522.253     -9.704    507.838    520.563    507.838    509.526    507.838
 78.270    512.000    521.383     -9.383    507.848    519.736    507.848    509.494    507.848
 78.370    532.352    520.793     11.559    507.856    519.186    507.856    509.462    507.856
 78.470    483.521    520.383    -36.862    507.863    518.813    507.863    509.433    507.863
 78.570    529.000    520.100      8.900    507.870    518.565    507.870    509.404    507.870
 78.670    518.000    519.918     -1.918    507.874    518.415    507.874    509.376    507.874
 78.770    525.000    519.830      5.170    507.878    518.358    507.878    509.350    507.878
 78.870    517.000    519.844     -2.844    507.880    518.399    507.880    509.325    507.880
 78.970    565.413    519.974     45.439    507.881    518.554    507.881    509.301    507.881
 79.070    467.000    520.245    -53.245    507.881    518.846    507.881    509.279    507.881
 79.170    526.000    520.685      5.315    507.880    519.306    507.880    509.258    507.880
 79.270    514.000    521.329     -7.329    507.877    519.964    507.877    509.241    507.877
 79.370    539.440    522.210     17.230    507.873    520.855    507.873    509.226    507.873
 79.470    557.000    523.362     33.638    507.868    522.011    507.868    509.216    507.868
 79.570    560.927    524.820     36.107    507.861    523.466    507.861    509.212    507.861
 79.670    493.589    526.626    -33.037    507.854    525.261    507.854    509.215    507.854
 79.770    538.975    528.839     10.135    507.844    527.454    507.844    509.226    507.844
 79.870    569.865    531.551     38.314    507.834    530.133    507.834    509.246    507.834
 79.970    538.000    534.900      3.100    507.822    533.440    507.822    509.277    507.822
 80.070    528.000    539.097    -11.097    507.809    537.583    507.809    509.317    507.809
 80.170    591.033    544.438     46.595    507.795    542.860    507.795    509.368    507.795
 80.270    574.453    551.317     23.136    507.779    549.667    507.779    509.425    507.779
 80.370    601.828    560.189     41.640    507.762    558.463    507.762    509.486    507.762
 80.470    540.523    571.483    -30.960    507.744    569.682    507.744    509.545    507.744
 80.570    551.793    585.487    -33.693    507.724    583.618    507.724    509.596    507.724
 80.670    609.042    602.227      6.815    507.703    600.307    507.703    509.630    507.703
 80.770    599.893    621.386    -21.492    507.680    619.440    507.680    509.638    507.680
 80.870    621.114    642.255    -21.141    507.657    640.314    507.657    509.615    507.657
 80.970    616.000    663.763    -47.763    507.632    661.860    507.632    509.558    507.632
 81.070    664.130    684.591    -20.461    507.605    682.756    507.605    509.470    507.605
 81.170    700.287    703.376     -3.089    507.577    701.631    507.577    509.359    507.577
 81.270    708.000    718.894    -10.894    507.548    717.252    507.548    509.234    507.548
 81.370    770.335    730.173     40.162    507.517    728.638    507.517    509.103    507.517
 81.470    701.255    736.562    -35.307    507.485    735.132    507.485    508.971    507.485
 81.570    721.000    737.800    -16.800    507.452    736.469    507.452    508.844    507.452
 81.670    795.000    734.011     60.989    507.417    732.767    507.417    508.725    507.417
 81.770    760.329    725.618     34.711    507.381    724.451    507.381    508.614    507.381
 81.870    715.000    713.309      1.691    507.343    712.206    507.343    508.514    507.343
 81.970    706.000    698.046      7.954    507.305    696.994    507.305    508.423    507.305
 82.070    674.555    680.985     -6.430    507.264    679.974    507.264    508.340    507.264
 82.170    677.044    663.254     13.789    507.222    662.274    507.222    508.265    507.222
 82.270    714.000    645.723     68.277    507.179    644.767    507.179    508.195    507.179
 82.370    693.000    628.917     64.083    507.135    627.977    507.135    508.129    507.135
 82.470    583.000    613.097    -30.097    507.089    612.169    507.089    508.067    507.089
 82.570    580.000    598.422    -18.422    507.041    597.502    507.041    508.006    507.041
 82.670    625.311    585.066     40.245    506.992    584.151    506.992    507.947    506.992
 82.770    532.108    573.241    -41.133    506.942    572.328    506.942    507.888    506.942
 82.870    529.000    563.159    -34.159    506.890    562.246    506.890    507.829    506.890
 82.970    530.500    554.993    -24.493    506.837    554.079    506.837    507.770    506.837
 83.070    577.000    548.865     28.135    506.783    547.950    506.783    507.710    506.783
 83.170    550.052    544.840      5.212    506.727    543.922    506.727    507.650    506.727
 83.270    555.000    542.904     12.096    506.669    541.983    506.669    507.588    506.669
 83.370    512.000    542.958    -30.958    506.610    542.032    506.610    507.526    506.610
 83.470    541.000    544.792     -3.792    506.550    543.862    506.550    507.463    506.550
 83.570    558.000    548.083      9.917    506.488    547.148    506.488    507.399    506.488
 83.670    531.000    552.389    -21.389    506.425    551.449    506.425    507.334    506.425
 83.770    559.579    557.161      2.418    506.361    556.216    506.361    507.268    506.361
 83.870    556.000    561.768     -5.768    506.294    560.820    506.294    507.201    506.294
 83.970    551.087    565.549    -14.462    506.227    564.598    506.227    507.133    506.227
 84.070    557.167    567.888    -10.720    506.158    566.936    506.158    507.063    506.158
 84.170    592.000    568.338     23.662    506.087    567.387    506.087    506.993    506.087
 84.270    565.000    566.745     -1.745    506.015    565.796    506.015    506.921    506.015
 84.370    518.594    563.281    -44.687    505.942    562.335    505.942    506.849    505.942
 84.470    538.000    558.377    -20.377    505.867    557.435    505.867    506.775    505.867
 84.570    583.974    552.582     31.391    505.791    551.644    505.791    506.700    505.791
 84.670    508.388    546.445    -38.057    505.713    545.510    505.713    506.624    505.713
 84.770    581.889    540.439     41.450    505.634    539.507    505.634    506.547    505.634
 84.870    509.000    534.923    -25.923    505.553    533.992    505.553    506.469    505.553
 84.970    517.000    530.130    -13.130    505.471    529.201    505.471    506.389    505.471
 85.070    507.471    526.173    -18.702    505.387    525.243    505.387    506.309    505.387
 85.170    507.000    523.061    -16.061    505.302    522.130    505.302    506.227    505.302
 85.270    503.000    520.730    -17.730    505.216    519.796    505.216    506.144    505.216
 85.370    481.957    519.075    -37.118    505.128    518.138    505.128    506.060    505.128
 85.470    522.000    517.977      4.023    505.038    517.036    505.038    505.975    505.038
 85.570    558.726    517.328     41.399    504.947    516.382    504.947    505.889    504.947
 85.670    474.358    517.043    -42.685    504.855    516.091    504.855    505.802    504.855
 85.770    547.494    517.072     30.422    504.761    516.115    504.761    505.713    504.761
 85.870    535.000    517.406     17.594    504.665    516.443    504.665    505.623    504.665
 85.970    487.893    518.076    -30.182    504.568    517.105    504.568    505.533    504.568
 86.070    511.419    519.155     -7.736    504.470    518.176    504.470    505.441    504.470
 86.170    543.000    520.762     22.238    504.370    519.773    504.370    505.348    504.370
 86.270    537.361    523.053     14.308    504.269    522.055    504.269    505.254    504.269
 86.370    563.510    526.219     37.292    504.166    525.208    504.166    505.159    504.166
 86.470    523.000    530.461     -7.461    504.062    529.436    504.062    505.063    504.062
 86.570    494.815    535.971    -41.155    503.956    534.931    503.956    504.966    503.956
 86.670    539.000    542.894     -3.894    503.849    541.837    503.849    504.868    503.849
 86.770    563.647    551.288     12.358    503.741    550.211    503.741    504.769    503.741
 86.870    580.000    561.076     18.924    503.631    559.977    503.631    504.669    503.631
 86.970    613.000    571.999     41.001    503.519    570.877    503.519    504.568    503.519
 87.070    589.000    583.645      5.355    503.406    582.499    503.406    504.466    503.406
 87.170    638.000    595.376     42.624    503.292    594.207    503.292    504.363    503.292
 87.270    612.872    606.376      6.496    503.176    605.183    503.176    504.259    503.176
 87.370    605.000    615.712    -10.712    503.058    614.498    503.058    504.155    503.058
 87.470    663.000    622.445     40.555    502.940    621.215    502.940    504.050    502.940
 87.570    622.223    625.823     -3.600    502.819    624.579    502.819    503.943    502.819
 87.670    620.000    625.479     -5.479    502.698    624.226    502.698    503.836    502.698
 87.770    579.263    621.556    -42.292    502.575    620.296    502.575    503.729    502.575
 87.870    639.012    614.646     24.366    502.450    613.382    502.450    503.620    502.450
 87.970    632.057    605.628     26.429    502.324    604.361    502.324    503.511    502.324
 88.070    554.222    595.487    -41.265    502.196    594.216    502.196    503.402    502.196
 88.170    584.000    585.195     -1.195    502.068    583.919    502.068    503.292    502.068
 88.270    578.000    575.625      2.375    501.937    574.343    501.937    503.181    501.937
 88.370    576.000    567.498      8.502    501.805    566.207    501.805    503.070    501.805
 88.470    516.888    561.343    -44.455    501.672    560.040    501.672    502.959    501.672
 88.570    571.000    557.480     13.520    501.538    556.165    501.538    502.846    501.538
 88.670    587.367    556.024     31.343    501.401    554.694    501.401    502.734    501.401
 88.770    550.000    556.888     -6.888    501.264    555.541    501.264    502.622    501.264
 88.870    587.000    559.802     27.198    501.125    558.435    501.125    502.510    501.125
 88.970    587.601    564.337     23.264    500.985    562.949    500.985    502.399    500.985
 89.070    549.915    569.929    -20.014    500.843    568.519    500.843    502.287    500.843
 89.170    568.000    575.912     -7.912    500.700    574.477    500.700    502.176    500.700
 89.270    589.455    581.551      7.904    500.555    580.089    500.555    502.066    500.555
 89.370    627.000    586.105     40.895    500.409    584.613    500.409    501.956    500.409
 89.470    550.572    588.907    -38.334    500.262    587.381    500.262    501.847    500.262
 89.570    604.000    589.481     14.519    500.113    587.917    500.113    501.739    500.113
 89.670    570.000    587.652    -17.652    499.963    586.046    499.963    501.633    499.963
 89.770    547.696    583.579    -35.883    499.812    581.925    499.812    501.528    499.812
 89.870    577.000    577.690     -0.690    499.659    575.982    499.659    501.425    499.659
 89.970    538.000    570.556    -32.556    499.505    568.790    499.505    501.324    499.505
 90.070    503.000    562.779    -59.779    499.349    560.949    499.349    501.225    499.349
 90.170    500.000    554.906    -54.906    499.192    553.008    499.192    501.130    499.192
 90.270    535.811    547.391    -11.580    499.034    545.420    499.034    501.038    499.034
 90.370    566.838    540.568     26.270    498.874    538.519    498.874    500.950    498.874
 90.470    521.000    534.649    -13.649    498.713    532.516    498.713    500.866    498.713
 90.570    502.000    529.732    -27.732    498.551    527.510    498.551    500.788    498.551
 90.670    514.000    525.812    -11.812    498.387    523.494    498.387    500.717    498.387
 90.770    543.455    522.786     20.670    498.222    520.362    498.222    500.654    498.222
 90.870    540.000    520.637     19.363    498.056    518.097    498.056    500.601    498.056
 90.970    511.000    519.199     -8.199    497.889    516.529    497.889    500.561    497.889
 91.070    489.550    518.348    -28.798    497.720    515.532    497.720    500.537    497.720
 91.170    470.000    517.990    -47.990    497.549    515.004    497.549    500.536    497.549
 91.270    529.411    518.062     11.349    497.378    514.876    497.378    500.563    497.378
 91.370    542.619    518.537     24.082    497.205    515.111    497.205    500.629    497.205
 91.470    493.000    519.444    -26.444    497.031    515.725    497.031    500.748    497.031
 91.570    517.000    520.852     -3.852    496.856    516.769    496.856    500.935    496.856
 91.670    565.136    522.875     42.261    496.679    518.337    496.679    501.212    496.679
 91.770    474.000    525.681    -51.681    496.501    520.567    496.501    501.608    496.501
 91.870    535.000    529.478      5.522    496.322    523.636    496.322    502.154    496.322
 91.970    553.735    534.512     19.223    496.142    527.753    496.142    502.888    496.142
 92.070    517.000    541.052    -24.052    495.960    533.145    495.960    503.852    495.960
 92.170    542.000    549.367     -7.367    495.777    540.036    495.777    505.088    495.777
 92.270    556.000    559.699     -3.699    495.593    548.628    495.593    506.639    495.593
 92.370    588.017    572.235     15.782    495.408    559.070    495.408    508.542    495.408
 92.470    605.000    587.071     17.929    495.221    571.430    495.221    510.825    495.221
 92.570    610.000    604.180      5.820    495.033    585.667    495.033    513.501    495.033
 92.670    592.000    623.382    -31.382    494.844    601.611    494.844    516.563    494.844
 92.770    681.000    644.349     36.651    494.654    618.967    494.654    519.977    494.654
 92.870    670.000    666.568      3.432    494.463    637.283    494.463    523.682    494.463
 92.970    658.490    689.359    -30.869    494.271    655.979    494.271    527.578    494.271
 93.070    709.000    711.924     -2.924    494.077    674.389    494.077    531.535    494.077
 93.170    777.000    733.417     43.583    493.882    691.842    493.882    535.377    493.882
 93.270    775.087    753.075     22.012    493.686    707.789    493.686    538.890    493.686
 93.370    803.946    770.357     33.590    493.489    721.933    493.489    541.830    493.489
 93.470    795.000    785.021      9.979    493.291    734.278    493.291    543.952    493.291
 93.570    755.564    797.115    -41.551    493.092    745.082    493.092    545.044    493.092
 93.670    818.000    806.899     11.101    492.892    754.734    492.892    544.977    492.892
 93.770    845.000    814.772     30.228    492.690    763.645    492.690    543.740    492.690
 93.870    818.995    821.225     -2.230    492.488    772.195    492.488    541.443    492.488
 93.970    866.760    826.833     39.928    492.284    780.760    492.284    538.284    492.284
 94.070    906.000    832.240     73.760    492.080    789.741    492.080    534.509    492.080
 94.170    907.000    838.114     68.886    491.874    799.558    491.874    530.362    491.874
 94.270    890.000    845.002     44.998    491.667    810.541    491.667    526.063    491.667
 94.370    879.994    853.165     26.829    491.460    822.766    491.460    521.796    491.460
 94.470    805.258    862.432    -57.174    491.251    835.922    491.251    517.702    491.251
 94.570    894.261    872.137     22.125    491.041    849.238    491.041    513.886    491.041
 94.670    880.000    881.151     -1.151    490.830    861.519    490.830    510.414    490.830
 94.770    927.000    888.002     38.998    490.619    871.253    490.619    507.325    490.619
 94.870    888.000    891.074     -3.074    490.406    876.815    490.406    504.632    490.406
 94.970    953.000    888.900     64.100    490.192    876.745    490.192    502.323    490.192
 95.070    963.000    880.484     82.516    489.978    870.073    489.978    500.374    489.978
 95.170    910.000    865.570     44.430    489.762    856.576    489.762    498.749    489.762
 95.270    868.000    844.770     23.230    489.546    836.910    489.546    497.407    489.546
 95.370    797.000    819.349    -22.349    489.328    812.381    489.328    496.304    489.328
 95.470    809.000    791.034     17.966    489.110    784.757    489.110    495.398    489.110
 95.570    780.000    761.755     18.245    488.891    756.007    488.891    494.652    488.891
 95.670    708.777    733.455    -24.678    488.671    728.108    488.671    494.032    488.671
 95.770    674.516    707.975    -33.459    488.450    702.927    488.450    493.510    488.450
 95.870    648.000    686.984    -38.984    488.228    682.157    488.228    493.064    488.228
 95.970    707.000    671.950     35.050    488.006    667.283    488.006    492.675    488.006
 96.070    685.000    664.136     20.864    487.782    659.583    487.782    492.332    487.782
 96.170    663.000    664.610     -1.610    487.558    660.134    487.558    492.023    487.558
 96.270    665.000    674.258     -9.258    487.333    669.830    487.333    491.742    487.333
 96.370    654.000    693.784    -39.784    487.107    689.379    487.107    491.482    487.107
 96.470    710.759    723.679    -12.920    486.881    719.277    486.881    491.241    486.881
 96.570    771.074    764.158      6.915    486.653    759.742    486.653    491.017    486.653
 96.670    864.790    815.065     49.725    486.425    810.619    486.425    490.806    486.425
 96.770    865.156    875.759    -10.603    486.197    871.268    486.197    490.609    486.197
 96.870    923.000    945.005    -22.005    485.967    940.457    485.967    490.425    485.967
 96.970   1048.000   1020.874     27.126    485.737   1016.258    485.737    490.253    485.737
 97.070   1059.000   1100.711    -41.711    485.506   1096.015    485.506    490.094    485.506
 97.170   1246.993   1181.135     65.858    485.275   1176.349    485.275    489.947    485.275
 97.270   1252.000   1258.127     -6.127    485.043   1253.242    485.043    489.812    485.043
 97.370   1354.668   1327.205     27.463    484.810   1322.213    484.810    489.691    484.810
 97.470   1360.173   1383.757    -23.584    484.577   1378.649    484.577    489.585    484.577
 97.570   1459.000   1423.568     35.432    484.343   1418.333    484.343    489.492    484.343
 97.670   1467.000   1443.503     23.497    484.108   1438.129    484.108    489.416    484.108
 97.770   1473.126   1442.143     30.983    483.873   1436.614    483.873    489.357    483.873
 97.870   1413.000   1420.066     -7.066    483.637   1414.365    483.637    489.318    483.637
 97.970   1312.430   1379.648    -67.218    483.401   1373.750    483.401    489.300    483.401
 98.070   1312.000   1324.504    -12.504    483.164   1318.382    483.164    489.306    483.164
 98.170   1267.000   1258.877      8.123    482.927   1252.499    482.927    489.342    482.927
 98.270   1195.000   1187.152      7.848    482.689   1180.477    482.689    489.411    482.689
 98.370   1151.000   1113.520     37.480    482.451   1106.501    482.451    489.523    482.451
 98.470   1031.000   1041.772    -10.772    482.213   1034.354    482.213    489.687    482.213
 98.570    908.000    975.178    -67.178    481.973    967.289    481.973    489.916    481.973
 98.670    897.812    916.433    -18.621    481.734    907.986    481.734    490.230    481.734
 98.770    814.000    867.661    -53.661    481.494    858.543    481.494    490.654    481.494
 98.870    784.000    830.531    -46.531    481.254    820.598    481.254    491.221    481.254
 98.970    797.000    806.232     -9.232    481.013    795.297    481.013    491.972    481.013
 99.070    786.876    795.617     -8.741    480.772    783.441    480.772    492.962    480.772
 99.170    834.000    799.273     34.727    480.531    785.551    480.531    494.258    480.531
 99.270    798.791    817.573    -18.782    480.289    801.918    480.289    495.939    480.289
 99.370    894.792    850.692     44.100    480.047    832.626    480.047    498.100    480.047
 99.470    869.000    898.589    -29.589    479.805    877.524    479.805    500.850    479.805
 99.570   1020.154    960.947     59.207    479.563    936.178    479.563    504.306    479.563
 99.670   1015.000   1037.090    -22.090    479.320   1007.789    479.320    508.594    479.320
 99.770   1124.000   1125.890     -1.890    479.077   1091.102    479.077    513.837    479.077
 99.870   1227.000   1225.668      1.332    478.834   1184.325    478.834    520.151    478.834
 99.970   1374.130   1334.120     40.009    478.591   1285.060    478.591    527.633    478.591
100.070   1472.000   1448.280     23.720    478.348   1390.271    478.348    536.348    478.348
100.170   1588.000   1564.537     23.463    478.104   1496.330    478.104    546.317    478.104
100.270   1675.000   1678.772     -3.772    477.861   1599.150    477.861    557.508    477.861
100.370   1796.000   1786.620      9.380    477.617   1694.467    477.617    569.817    477.617
100.470   1965.000   1883.852     81.148    477.373   1778.230    477.373    583.067    477.373
100.570   1980.000   1966.763     13.237    477.129   1846.997    477.129    596.993    477.129
100.670   2110.000   2032.411     77.589    476.886   1898.182    476.886    611.239    476.886
100.770   1999.478   2078.629    -79.152    476.642   1930.068    476.642    625.351    476.642
100.870   2163.706   2103.905     59.801    476.398   1941.688    476.398    638.785    476.398
100.970   2167.930   2107.313     60.617    476.154   1932.744    476.154    650.911    476.154
101.070   2082.000   2088.648     -6.648    475.910   1903.706    475.910    661.053    475.910
101.170   2091.000   2048.724     42.276    475.667   1856.052    475.667    668.547    475.667
101.270   1923.712   1989.642    -65.930    475.423   1792.446    475.423    672.832    475.423
101.370   1886.000   1914.827    -28.827    475.180   1716.669    475.180    673.547    475.180
101.470   1858.176   1828.726     29.449    474.937   1633.250    474.937    670.616    474.937
101.570   1755.431   1736.285     19.145    474.693   1546.915    474.693    664.256    474.693
101.670   1620.000   1642.378    -22.378    474.450   1462.070    474.450    654.936    474.450
101.770   1494.000   1551.333    -57.333    474.208   1382.422    474.208    643.281    474.208
101.870   1401.000   1466.628    -65.628    473.965   1310.768    473.965    629.971    473.965
101.970   1354.000   1390.719    -36.719    473.723   1248.906    473.723    615.667    473.723
102.070   1275.000   1324.995    -49.995    473.481   1197.632    473.481    600.959    473.481
102.170   1252.000   1269.809    -17.809    473.240   1156.801    473.240    586.350    473.240
102.270   1186.000   1224.571    -38.571    472.998   1125.415    472.998    572.246    472.998
102.370   1134.000   1187.884    -53.884    472.758   1101.767    472.758    558.958    472.758
102.470   1192.705   1157.730     34.975    472.517   1083.617    472.517    546.708    472.517
102.570   1088.288   1131.703    -43.415    472.277   1068.419    472.277    535.636    472.277
102.670   1105.710   1107.297     -1.587    472.037   1053.598    472.037    525.811    472.037
102.770   1086.000   1082.231      3.769    471.798   1036.868    471.798    517.236    471.798
102.870   1053.000   1054.746     -1.746    471.559   1016.513    471.559    509.869    471.559
102.970   1065.545   1023.813     41.732    471.321    991.585    471.321    503.626    471.321
103.070   1031.253    989.164     42.089    471.083    961.924    471.083    498.401    471.083
103.170    925.000    951.186    -26.186    470.846    928.035    470.846    494.074    470.846
103.270    950.152    910.713     39.439    470.610    890.880    470.610    490.517    470.610
103.370    875.593    868.825      6.768    470.374    851.660    470.374    487.609    470.374
103.470    841.000    826.677     14.323    470.138    811.644    470.138    485.237    470.138
103.570    784.000    785.384     -1.384    469.904    772.050    469.904    483.298    469.904
103.670    814.000    745.935     68.065    469.670    733.955    469.670    481.706    469.670
103.770    704.313    709.142     -4.829    469.437    698.243    469.437    480.385    469.437
103.870    683.000    675.600      7.400    469.204    665.571    469.204    479.276    469.204
103.970    692.000    645.708     46.292    468.972    636.386    468.972    478.331    468.972
104.070    571.000    619.630    -48.630    468.742    610.890    468.742    477.512    468.742
104.170    609.000    597.347     11.653    468.511    589.093    468.511    476.791    468.511
104.270    546.686    578.686    -32.000    468.282    570.843    468.282    476.145    468.282
104.370    575.630    563.359     12.271    468.054    555.870    468.054    475.559    468.054
104.470    528.000    551.008    -23.008    467.826    543.826    467.826    475.021    467.826
104.570    589.000    541.240     47.760    467.600    534.328    467.600    474.521    467.600
104.670    518.000    533.666    -15.666    467.374    526.993    467.374    474.053    467.374
104.770    528.000    527.918      0.082    467.150    521.459    467.150    473.613    467.150
104.870    504.000    523.673    -19.673    466.926    517.406    466.926    473.196    466.926
104.970    544.000    520.660     23.340    466.704    514.564    466.704    472.800    466.704
105.070    517.379    518.664     -1.284    466.483    512.722    466.483    472.423    466.483
105.170    554.000    517.526     36.474    466.262    511.724    466.262    472.062    466.262
105.270    532.000    517.144     14.856    466.043    511.466    466.043    471.717    466.043
105.370    520.000    517.462      2.538    465.825    511.896    465.825    471.387    465.825
105.470    513.000    518.469     -5.469    465.609    513.003    465.609    471.068    465.609
105.570    498.000    520.188    -22.188    465.393    514.815    465.393    470.758    465.393
105.670    571.000    522.687     48.313    465.179    517.392    465.179    470.464    465.179
105.770    514.000    526.044    -12.044    464.966    520.816    464.966    470.182    464.966
105.870    492.492    530.355    -37.863    464.754    525.185    464.754    469.910    464.754
105.970    565.000    535.717     29.283    464.544    530.596    464.544    469.648    464.544
106.070    581.000    542.215     38.785    464.335    537.134    464.335    469.396    464.335
106.170    578.000    549.906     28.094    464.128    544.857    464.128    469.153    464.128
106.270    558.000    558.805     -0.805    463.922    553.780    463.922    468.919    463.922
106.370    579.144    568.868     10.276    463.717    563.863    463.717    468.691    463.717
106.470    591.000    579.984     11.016    463.514    575.001    463.514    468.463    463.514
106.570    568.363    592.000    -23.637    463.313    587.022    463.313    468.253    463.313
106.670    583.000    604.660    -21.660    463.113    599.680    463.113    468.052    463.113
106.770    612.000    617.652     -5.652    462.915    612.664    462.915    467.859    462.915
106.870    577.000    630.604    -53.604    462.718    625.602    462.718    467.674    462.718
106.970    639.000    643.101     -4.101    462.524    638.080    462.524    467.496    462.524
107.070    647.000    654.705     -7.705    462.330    649.659    462.330    467.327    462.330
107.170    654.670    664.983    -10.313    462.139    659.909    462.139    467.165    462.139
107.270    663.820    673.555     -9.735    461.949    668.447    461.949    467.010    461.949
107.370    707.250    680.140     27.110    461.762    674.992    461.762    466.864    461.762
107.470    684.000    684.605     -0.605    461.576    679.413    461.576    466.725    461.576
107.570    604.000    686.999    -82.999    461.391    681.758    461.391    466.594    461.391
107.670    718.000    687.552     30.448    461.209    682.256    461.209    466.471    461.209
107.770    712.000    686.640     25.360    461.029    681.283    461.029    466.356    461.029
107.870    591.000    684.724    -93.724    460.851    679.300    460.851    466.250    460.851
107.970    638.006    682.292    -44.286    460.675    676.795    460.675    466.152    460.675
108.070    701.678    679.796     21.882    460.501    674.218    460.501    466.062    460.501
108.170    704.000    677.613     26.387    460.329    671.948    460.329    465.982    460.329
108.270    658.000    676.016    -18.016    460.159    670.256    460.159    465.910    460.159
108.370    654.410    675.155    -20.744    459.991    669.293    459.991    465.848    459.991
108.470    681.000    675.048      5.952    459.826    669.076    459.826    465.796    459.826
108.570    703.000    675.586     27.414    459.662    669.496    459.662    465.754    459.662
108.670    650.000    676.536    -26.536    459.501    670.320    459.501    465.723    459.501
108.770    637.282    677.563    -40.281    459.343    671.212    459.343    465.702    459.343
108.870    682.000    678.259      3.741    459.186    671.763    459.186    465.693    459.186
108.970    722.354    678.186     44.168    459.033    671.536    459.033    465.696    459.033
109.070    701.000    676.928     24.072    458.881    670.114    458.881    465.711    458.881
109.170    685.000    674.151     10.849    458.732    667.162    458.732    465.740    458.732
109.270    627.000    669.650    -42.650    458.586    662.473    458.586    465.782    458.586
109.370    724.000    663.350     60.650    458.442    655.974    458.442    465.838    458.442
109.470    592.000    655.398    -63.398    458.300    647.810    458.300    465.910    458.300
109.570    649.286    646.031      3.255    458.162    638.216    458.162    465.998    458.162
109.670    621.505    635.545    -14.041    458.025    627.489    458.025    466.103    458.025
109.770    667.000    624.296     42.704    457.892    615.983    457.892    466.226    457.892
109.870    636.000    612.646     23.354    457.761    604.059    457.761    466.368    457.761
109.970    609.000    600.946      8.054    457.634    592.067    457.634    466.531    457.634
110.070    632.000    589.513     42.487    457.509    580.322    457.509    466.717    457.509
110.170    588.000    578.622      9.378    457.386    569.097    457.386    466.926    457.386
110.270    600.000    568.497     31.503    457.267    558.615    457.267    467.162    457.267
110.370    591.000    559.309     31.691    457.151    549.045    457.151    467.426    457.151
110.470    570.000    551.177     18.823    457.038    540.501    457.038    467.723    457.038
110.570    576.639    544.167     32.471    456.927    533.047    456.927    468.054    456.927
110.670    552.000    538.300     13.700    456.820    526.699    456.820    468.426    456.820
110.770    579.151    533.557     45.594    456.716    521.431    456.716    468.845    456.716
110.870    486.443    529.889    -43.446    456.615    517.189    456.615    469.317    456.615
110.970    486.231    527.227    -40.996    456.517    513.893    456.517    469.851    456.517
111.070    534.724    525.487      9.238    456.423    511.448    456.423    470.461    456.423
111.170    522.000    524.582     -2.582    456.332    509.751    456.332    471.160    456.332
111.270    531.000    524.427      6.573    456.244    508.699    456.244    471.969    456.244
111.370    540.000    524.945     15.055    456.159    508.190    456.159    472.909    456.159
111.470    536.252    526.072     10.180    456.078    508.132    456.078    474.013    456.078
111.570    537.714    527.759      9.955    456.000    508.438    456.000    475.315    456.000
111.670    548.378    529.978     18.401    455.926    509.035    455.926    476.862    455.926
111.770    527.000    532.718     -5.718    455.855    509.861    455.855    478.706    455.855
111.870    516.000    535.994    -19.994    455.788    510.862    455.788    480.912    455.788
111.970    561.000    539.840     21.160    455.725    511.999    455.725    483.557    455.725
112.070    510.532    544.316    -33.785    455.665    513.245    455.665    486.728    455.665
112.170    591.000    549.506     41.494    455.609    514.582    455.609    490.525    455.609
112.270    552.000    555.516     -3.516    455.557    516.005    455.557    495.059    455.557
112.370    530.000    562.474    -32.474    455.508    517.520    455.508    500.453    455.508
112.470    578.949    570.526      8.423    455.464    519.143    455.464    506.837    455.464
112.570    560.000    579.832    -19.832    455.423    520.897    455.423    514.349    455.423
112.670    600.000    590.563      9.437    455.386    522.815    455.386    523.124    455.386
112.770    585.000    602.895    -17.895    455.353    524.939    455.353    533.299    455.353
112.870    604.000    617.004    -13.004    455.324    527.321    455.324    544.997    455.324
112.970    617.000    633.064    -16.064    455.300    530.029    455.300    558.324    455.300
113.070    627.717    651.242    -23.526    455.279    533.147    455.279    573.363    455.279
113.170    646.000    671.697    -25.697    455.263    536.787    455.263    590.161    455.263
113.270    705.496    694.581     10.915    455.251    541.094    455.251    608.724    455.251
113.370    718.000    720.042     -2.042    455.243    546.260    455.243    629.011    455.243
113.470    723.140    748.231    -25.091    455.239    552.536    455.239    650.918    455.239
113.570    848.000    779.315     68.685    455.240    560.255    455.240    674.282    455.240
113.670    835.065    813.490     21.575    455.245    569.847    455.245    698.869    455.245
113.770    843.000    851.004     -8.004    455.255    581.868    455.255    724.368    455.255
113.870    931.086    892.178     38.907    455.269    597.025    455.269    750.395    455.269
113.970    888.659    937.436    -48.777    455.288    616.209    455.288    776.482    455.288
114.070    942.695    987.331    -44.636    455.312    640.516    455.312    802.086    455.312
114.170   1000.512   1042.579    -42.067    455.340    671.285    455.340    826.585    455.340
114.270   1168.955   1104.090     64.865    455.373    710.108    455.373    849.295    455.373
114.370   1234.000   1173.004     60.996    455.410    758.852    455.410    869.488    455.410
114.470   1213.000   1250.723    -37.723    455.453    819.654    455.453    886.431    455.453
114.570   1309.840   1338.951    -29.111    455.500    894.905    455.500    899.435    455.500
114.670   1456.000   1439.709     16.291    455.552    987.207    455.552    907.920    455.552
114.770   1475.238   1555.345    -80.107    455.609   1099.307    455.609    911.483    455.609
114.870   1729.000   1688.480     40.520    455.671   1234.003    455.671    909.952    455.671
114.970   1820.470   1841.916    -21.446    455.739   1394.014    455.739    903.406    455.739
115.070   2021.000   2018.459      2.541    455.811   1581.827    455.811    892.166    455.811
115.170   2269.000   2220.702     48.298    455.888   1799.515    455.888    876.753    455.888
115.270   2616.000   2450.760    165.240    455.971   2048.537    455.971    857.822    455.971
115.370   2656.603   2709.994    -53.391    456.059   2329.534    456.059    836.096    456.059
115.470   3038.000   2998.758     39.242    456.153   2642.125    456.153    812.311    456.153
115.570   3339.998   3316.172     23.826    456.252   2984.730    456.252    787.169    456.252
115.670   3693.648   3659.950     33.698    456.356   3354.416    456.356    761.317    456.356
115.770   3989.000   4026.286    -37.286    456.465   3746.808    456.465    735.330    456.465
115.870   4402.001   4409.811     -7.810    456.581   4156.042    456.581    709.704    456.581
115.970   4526.000   4803.616   -277.616    456.702   4574.793    456.702    684.854    456.702
116.070   5129.323   5199.350    -70.027    456.828   4994.379    456.828    661.119    456.828
116.170   5353.000   5587.404   -234.404    456.960   5404.926    456.960    638.762    456.960
116.270   5973.000   5957.155     15.845    457.099   5795.624    457.099    617.972    457.099
116.370   6373.040   6297.315     75.725    457.242   6155.064    457.242    598.875    457.242
116.470   6505.000   6596.407    -91.407    457.392   6471.700    457.392    581.536    457.392
116.570   6756.000   6843.378    -87.378    457.548   6734.471    457.548    565.964    457.548
116.670   7043.000   7028.243     14.757    457.709   6933.422    457.709    552.129    457.709
116.770   7200.000   7142.962     57.038    457.877   7060.580    457.877    539.958    457.877
116.870   7085.003   7182.201    -97.199    458.051   7110.707    458.051    529.356    458.051
116.970   7013.272   7143.920   -130.648    458.231   7081.874    458.231    520.202    458.231
117.070   7201.084   7029.594    171.490    458.417   6975.682    458.417    512.367    458.417
117.170   7099.000   6844.024    254.976    458.610   6797.066    458.610    505.714    458.610
117.270   6525.381   6594.783    -69.402    458.808   6553.729    458.808    500.105    458.808
117.370   6272.000   6291.452    -19.452    459.014   6255.384    459.014    495.406    459.014
117.470   5992.187   5944.818     47.368    459.225   5912.942    459.225    491.493    459.225
117.570   5488.000   5566.155    -78.155    459.443   5537.790    459.443    488.250    459.443
117.670   5150.000   5166.627    -16.627    459.668   5141.198    459.668    485.572    459.668
117.770   4877.777   4756.833    120.944    459.899   4733.857    459.899    483.366    459.899
117.870   4242.484   4346.459   -103.976    460.138   4325.536    460.138    481.554    460.138
117.970   3902.232   3944.023    -41.791    460.382   3924.821    460.382    480.066    460.382
118.070   3785.000   3556.704    228.296    460.634   3538.954    460.634    478.845    460.634
118.170   3326.000   3190.252    135.748    460.892   3173.732    460.892    477.842    460.892
118.270   2974.000   2848.965    125.035    461.158   2833.498    461.158    477.019    461.158
118.370   2594.000   2535.747     58.253    461.430   2521.188    461.430    476.342    461.430
118.470   2349.000   2252.211     96.789    461.709   2238.445    461.709    475.786    461.709
118.570   1987.582   1998.832    -11.250    461.996   1985.765    461.996    475.331    461.996
118.670   1798.339   1775.131     23.208    462.290   1762.687    462.290    474.960    462.290
118.770   1554.000   1579.857    -25.857    462.591   1567.975    462.591    474.660    462.591
118.870   1414.000   1411.184      2.816    462.899   1399.814    462.899    474.422    462.899
118.970   1185.000   1266.892    -81.892    463.214   1255.990    463.214    474.237    463.214
119.070   1073.000   1144.528    -71.528    463.537   1134.060    463.537    474.099    463.537
119.170    986.000   1041.555    -55.555    463.868   1031.490    463.868    474.004    463.868
119.270    969.000    955.466     13.534    464.206    945.777    464.206    473.947    464.206
119.370    849.000    883.877    -34.877    464.551    874.540    464.551    473.925    464.551
119.470    792.859    824.590    -31.730    464.905    815.583    464.905    473.937    464.905
119.570    780.000    775.629      4.371    465.266    766.932    465.266    473.980    465.266
119.670    705.000    735.265    -30.265    465.634    726.857    465.634    474.053    465.634
119.770    735.000    702.009     32.991    466.011    693.871    466.011    474.154    466.011
119.870    691.906    674.603     17.303    466.396    666.717    466.396    474.284    466.396
119.970    651.000    652.003     -1.003    466.788    644.352    466.788    474.441    466.788
120.070    650.000    633.353     16.647    467.189    625.917    467.189    474.625    467.189
120.170    658.000    617.957     40.043    467.597    610.719    467.597    474.837    467.597
120.270    597.000    605.260     -8.260    468.014    598.200    468.014    475.075    468.014
120.370    613.000    594.816     18.184    468.440    587.915    468.440    475.342    468.440
120.470    572.000    586.274    -14.274    468.873    579.513    468.873    475.636    468.873
120.570    591.244    579.358     11.885    469.315    572.716    469.315    475.959    469.315
120.670    560.335    573.851    -13.516    469.765    567.307    469.765    476.312    469.765
120.770    542.000    569.582    -27.582    470.224    563.114    470.224    476.696    470.224
120.870    511.000    566.417    -55.417    470.691    560.002    470.691    477.112    470.691
120.970    560.000    564.253     -4.253    471.168    557.866    471.168    477.560    471.168
121.070    601.592    563.006     38.586    471.652    556.621    471.652    478.043    471.652
121.170    528.000    562.607    -34.607    472.146    556.199    472.146    478.561    472.146
121.270    545.000    563.000    -18.000    472.648    556.542    472.648    479.115    472.648
121.370    531.000    564.135    -33.135    473.160    557.598    473.160    479.707    473.160
121.470    558.000    565.965     -7.965    473.680    559.320    473.680    480.336    473.680
121.570    568.000    568.441     -0.441    474.210    561.660    474.210    481.004    474.210
121.670    556.095    571.513    -15.418    474.748    564.566    474.748    481.710    474.748
121.770    541.000    575.125    -34.125    475.296    567.983    475.296    482.454    475.296
121.870    572.000    579.212     -7.212    475.853    571.848    475.853    483.235    475.853
121.970    575.000    583.702     -8.702    476.419    576.091    476.419    484.052    476.419
122.070    556.462    588.514    -32.052    476.995    580.631    476.995    484.902    476.995
122.170    562.000    593.556    -31.556    477.581    585.380    477.581    485.784    477.581
122.270    555.000    598.729    -43.729    478.175    590.240    478.175    486.693    478.175
122.370    591.000    603.922    -12.922    478.780    595.108    478.780    487.626    478.780
122.470    599.000    609.019    -10.019    479.394    599.871    479.394    488.577    479.394
122.570    624.000    613.902     10.098    480.018    604.414    480.018    489.543    480.018
122.670    599.399    618.446    -19.047    480.652    608.623    480.652    490.515    480.652
122.770    625.000    622.533      2.467    481.296    612.383    481.296    491.488    481.296
122.870    580.369    626.048    -45.679    481.949    615.591    481.949    492.451    481.949
122.970    634.000    628.898      5.102    482.613    618.157    482.613    493.400    482.613
123.070    635.000    631.002      3.998    483.287    620.011    483.287    494.326    483.287
123.170    638.000    632.307      5.693    483.971    621.107    483.971    495.221    483.971
123.270    636.724    632.785      3.938    484.666    621.425    484.666    496.076    484.666
123.370    638.765    632.438      6.327    485.370    620.974    485.370    496.884    485.370
123.470    661.000    631.291     29.709    486.086    619.786    486.086    497.640    486.086
123.570    624.000    629.396     -5.396    486.811    617.916    486.811    498.340    486.811
123.670    601.000    626.819    -25.819    487.548    615.430    487.548    498.983    487.548
123.770    648.000    623.641     24.359    488.295    612.409    488.295    499.570    488.295
123.870    616.881    619.950     -3.069    489.052    608.939    489.052    500.106    489.052
123.970    613.000    615.840     -2.840    489.821    605.105    489.821    500.595    489.821
124.070    657.000    611.404     45.596    490.600    600.997    490.600    501.044    490.600
124.170    614.000    606.737      7.263    491.391    596.699    491.391    501.462    491.391
124.270    600.000    601.924     -1.924    492.192    592.290    492.192    501.856    492.192
124.370    600.309    597.047      3.262    493.005    587.844    493.005    502.235    493.005
124.470    620.000    592.178     27.822    493.828    583.424    493.828    502.608    493.828
124.570    615.000    587.381     27.619    494.664    579.085    494.664    502.980    494.664
124.670    617.831    582.706     35.125    495.510    574.874    495.510    503.360    495.510
124.770    621.000    578.194     42.806    496.368    570.824    496.368    503.754    496.368
124.870    577.000    573.883      3.117    497.237    566.968    497.237    504.166    497.237
124.970    606.000    569.797     36.203    498.118    563.325    498.118    504.601    498.118
