neutron_powder_diffraction_0030
R_wp: 3.685
Temperature (K): 543.070
Counts: 83542.00
Wavelength (Ã…): 2.52098
COMMENTS
Test file for demonstrating the .xyy file format in Reel1.0
END OF HEADER
   tth       Y_obs     Y_calc      Y_res    Background    Phase_1_Nuc    Phase_1_Mag    Phase_2_Nuc    Phase_2_Mag
  9.970    738.000    705.425     32.575    703.853    704.824    704.454    703.853    703.853
 10.070    737.264    704.489     32.776    702.833    703.881    703.440    702.833    702.833
 10.170    690.208    703.568    -13.360    701.818    702.954    702.431    701.818    701.818
 10.270    748.000    702.665     45.335    700.807    702.044    701.427    700.807    700.807
 10.370    721.113    701.782     19.331    699.800    701.154    700.427    699.800    699.800
 10.470    657.062    700.922    -43.861    698.799    700.288    699.433    698.799    698.799
 10.570    738.000    700.091     37.909    697.802    699.449    698.443    697.802    697.802
 10.670    679.000    699.292    -20.292    696.809    698.643    697.457    696.809    696.809
 10.770    685.000    698.533    -13.533    695.822    697.877    696.477    695.822    695.822
 10.870    715.232    697.825     17.407    694.839    697.161    695.501    694.839    694.839
 10.970    685.000    697.179    -12.179    693.860    696.508    694.530    693.860    693.860
 11.070    691.684    696.615     -4.930    692.886    695.936    693.563    692.886    692.886
 11.170    700.710    696.157      4.553    691.917    695.470    692.602    691.917    691.917
 11.270    684.893    695.844    -10.950    690.952    695.149    691.645    690.952    690.952
 11.370    722.000    695.735     26.265    689.992    695.032    690.693    689.992    689.992
 11.470    745.000    695.943     49.057    689.037    695.231    689.745    689.037    689.037
 11.570    763.000    696.711     66.289    688.086    695.990    688.802    688.086    688.086
 11.670    763.000    698.609     64.391    687.140    697.878    687.864    687.140    687.140
 11.770    765.000    702.857     62.143    686.198    702.115    686.931    686.198    686.198
 11.870    720.239    711.568      8.671    685.261    710.812    686.003    685.261    685.261
 11.970    783.000    727.340     55.660    684.328    726.565    685.079    684.328    684.328
 12.070    820.000    751.506     68.494    683.400    750.708    684.160    683.400    683.400
 12.170    860.000    780.931     79.069    682.477    780.106    683.246    682.477    682.477
 12.270    775.168    804.358    -29.189    681.558    803.509    682.336    681.558    681.558
 12.370    821.000    807.136     13.864    680.644    806.276    681.432    680.644    680.644
 12.470    840.000    786.299     53.701    679.734    785.440    680.531    679.734    679.734
 12.570    805.327    755.127     50.200    678.829    754.276    679.636    678.829    678.829
 12.670    732.000    727.049      4.951    677.928    726.204    678.745    677.928    677.928
 12.770    701.000    707.193     -6.193    677.032    706.349    677.859    677.032    677.032
 12.870    674.000    695.044    -21.044    676.140    694.196    676.978    676.140    676.140
 12.970    690.000    688.070      1.930    675.253    687.215    676.102    675.253    675.253
 13.070    697.000    683.918     13.082    674.371    683.054    675.230    674.371    674.371
 13.170    666.000    681.132    -15.132    673.493    680.258    674.363    673.493    673.493
 13.270    665.000    679.008    -14.008    672.619    678.124    673.500    672.619    672.619
 13.370    638.000    677.244    -39.244    671.750    676.349    672.643    671.750    671.750
 13.470    644.000    675.705    -31.705    670.886    674.799    671.790    670.886    670.886
 13.570    646.000    674.325    -28.325    670.026    673.407    670.942    670.026    670.026
 13.670    686.000    673.059     12.941    669.171    672.129    670.098    669.171    669.171
 13.770    666.601    671.880     -5.278    668.320    670.938    669.260    668.320    668.320
 13.870    707.364    670.768     36.596    667.473    669.814    668.426    667.473    667.473
 13.970    657.000    669.709    -12.709    666.631    668.743    667.596    666.631    666.631
 14.070    680.000    668.693     11.307    665.793    667.714    666.772    665.793    665.793
 14.170    671.000    667.714      3.286    664.960    666.721    665.952    664.960    664.960
 14.270    701.000    666.765     34.235    664.132    665.759    665.137    664.132    664.132
 14.370    625.555    665.838    -40.283    663.307    664.818    664.327    663.307    663.307
 14.470    622.000    664.931    -42.931    662.488    663.897    663.521    662.488    662.488
 14.570    618.008    664.042    -46.034    661.672    662.994    662.720    661.672    661.672
 14.670    594.000    663.169    -69.169    660.862    662.106    661.924    660.862    660.862
 14.770    663.000    662.311      0.689    660.055    661.233    661.133    660.055    660.055
 14.870    655.000    661.468     -6.468    659.253    660.374    660.346    659.253    659.253
 14.970    615.000    660.657    -45.657    658.456    659.547    659.565    658.456    658.456
 15.070    630.000    659.840    -29.840    657.662    658.714    658.788    657.662    657.662
 15.170    640.000    659.027    -19.027    656.874    657.884    658.016    656.874    656.874
 15.270    672.000    658.223     13.777    656.089    657.063    657.248    656.089    656.089
 15.370    678.089    657.428     20.661    655.309    656.252    656.485    655.309    655.309
 15.470    655.000    656.642     -1.642    654.534    655.448    655.727    654.534    654.534
 15.570    608.888    655.865    -46.977    653.762    654.653    654.974    653.762    653.762
 15.670    649.359    655.096     -5.737    652.996    653.866    654.226    652.996    652.996
 15.770    647.000    654.332     -7.332    652.233    653.083    653.482    652.233    652.233
 15.870    670.076    653.574     16.502    651.475    652.306    652.743    651.475    651.475
 15.970    635.000    652.823    -17.823    650.721    651.535    652.009    650.721    650.721
 16.070    642.000    652.078    -10.078    649.972    650.770    651.280    649.972    649.972
 16.170    620.520    651.340    -30.819    649.227    650.011    650.555    649.227    649.227
 16.270    609.000    650.608    -41.608    648.486    649.258    649.836    648.486    648.486
 16.370    607.164    649.882    -42.718    647.750    648.510    649.121    647.750    647.750
 16.470    630.000    649.162    -19.162    647.018    647.768    648.411    647.018    647.018
 16.570    681.000    648.448     32.552    646.290    647.031    647.706    646.290    646.290
 16.670    600.000    647.740    -47.740    645.566    646.300    647.006    645.566    645.566
 16.770    626.000    647.037    -21.037    644.847    645.574    646.310    644.847    644.847
 16.870    684.582    646.341     38.241    644.132    644.853    645.620    644.132    644.132
 16.970    695.000    645.650     49.350    643.422    644.137    644.935    643.422    643.422
 17.070    617.662    644.964    -27.302    642.715    643.426    644.254    642.715    642.715
 17.170    615.000    644.285    -29.285    642.013    642.720    643.579    642.013    642.013
 17.270    674.045    643.612     30.433    641.316    642.019    642.909    641.316    641.316
 17.370    591.000    642.947    -51.947    640.622    641.326    642.243    640.622    640.622
 17.470    664.042    642.321     21.721    639.933    640.671    641.583    639.933    639.933
 17.570    628.000    641.711    -13.711    639.248    640.030    640.928    639.248    639.248
 17.670    664.000    641.065     22.935    638.567    639.354    640.278    638.567    638.567
 17.770    636.000    640.421     -4.421    637.890    638.679    639.632    637.890    637.890
 17.870    595.877    639.794    -43.917    637.218    638.020    638.992    637.218    637.218
 17.970    653.142    639.161     13.981    636.550    637.354    638.356    636.550    636.550
 18.070    635.000    638.532     -3.532    635.886    636.692    637.726    635.886    635.886
 18.170    629.205    637.908     -8.703    635.226    636.034    637.101    635.226    635.226
 18.270    658.477    637.290     21.187    634.571    635.380    636.481    634.571    634.571
 18.370    604.000    636.678    -32.678    633.919    634.732    635.866    633.919    633.919
 18.470    632.000    636.072     -4.072    633.272    634.088    635.256    633.272    633.272
 18.570    654.020    635.471     18.549    632.629    633.448    634.652    632.629    632.629
 18.670    687.000    634.876     52.124    631.990    632.813    634.053    631.990    631.990
 18.770    677.000    634.288     42.712    631.355    632.183    633.459    631.355    631.355
 18.870    651.000    633.713     17.287    630.725    631.566    632.871    630.725    630.725
 18.970    586.000    633.157    -47.157    630.098    630.967    632.288    630.098    630.098
 19.070    632.685    632.594      0.091    629.476    630.357    631.713    629.476    629.476
 19.170    593.000    632.099    -39.099    628.857    629.796    631.160    628.857    628.857
 19.270    635.000    631.555      3.445    628.243    629.201    630.597    628.243    628.243
 19.370    619.000    631.008    -12.008    627.633    628.604    630.037    627.633    627.633
 19.470    625.000    630.462     -5.462    627.027    628.007    629.482    627.027    627.027
 19.570    624.000    629.921     -5.921    626.425    627.413    628.933    626.425    626.425
 19.670    636.000    629.387      6.613    625.828    626.825    628.390    625.828    625.828
 19.770    646.190    628.859     17.332    625.234    626.240    627.852    625.234    625.234
 19.870    633.000    628.337      4.663    624.644    625.661    627.321    624.644    624.644
 19.970    589.799    627.823    -38.024    624.059    625.085    626.796    624.059    624.059
 20.070    587.000    627.315    -40.315    623.477    624.516    626.276    623.477    623.477
 20.170    686.000    626.824     59.176    622.899    623.959    625.764    622.899    622.899
 20.270    593.000    626.354    -33.354    622.326    623.420    625.260    622.326    622.326
 20.370    592.000    625.910    -33.910    621.756    622.893    624.774    621.756    621.756
 20.470    627.000    625.450      1.550    621.191    622.353    624.287    621.191    621.191
 20.570    636.000    625.008     10.992    620.629    621.836    623.801    620.629    620.629
 20.670    638.000    624.573     13.427    620.072    621.324    623.321    620.072    620.072
 20.770    603.749    624.171    -20.422    619.518    620.840    622.849    619.518    619.518
 20.870    648.317    623.728     24.589    618.968    620.314    622.383    618.968    618.968
 20.970    671.094    623.289     47.805    618.423    619.787    621.924    618.423    618.423
 21.070    625.731    622.862      2.869    617.881    619.271    621.472    617.881    617.881
 21.170    609.000    622.458    -13.458    617.343    618.773    621.028    617.343    617.343
 21.270    583.963    622.081    -38.117    616.809    618.297    620.593    616.809    616.809
 21.370    617.000    621.690     -4.690    616.279    617.804    620.165    616.279    616.279
 21.470    603.000    621.296    -18.296    615.753    617.305    619.745    615.753    615.753
 21.570    627.000    620.912      6.088    615.231    616.810    619.332    615.231    615.231
 21.670    604.284    620.538    -16.254    614.713    616.322    618.929    614.713    614.713
 21.770    611.000    620.183     -9.183    614.199    615.845    618.537    614.199    614.199
 21.870    602.000    619.839    -17.839    613.688    615.372    618.155    613.688    613.688
 21.970    579.000    619.503    -40.503    613.182    614.905    617.779    613.182    613.182
 22.070    594.000    619.177    -25.177    612.679    614.443    617.413    612.679    612.679
 22.170    612.266    618.867     -6.600    612.180    613.990    617.057    612.180    612.180
 22.270    623.000    618.568      4.432    611.685    613.542    616.711    611.685    611.685
 22.370    662.288    618.283     44.005    611.194    613.100    616.376    611.194    611.194
 22.470    618.050    618.016      0.035    610.706    612.669    616.053    610.706    610.706
 22.570    621.000    617.770      3.230    610.223    612.249    615.743    610.223    610.223
 22.670    610.114    617.537     -7.422    609.743    611.836    615.444    609.743    609.743
 22.770    634.000    617.325     16.675    609.267    611.434    615.158    609.267    609.267
 22.870    661.771    617.134     44.637    608.795    611.044    614.885    608.795    608.795
 22.970    658.811    616.967     41.844    608.326    610.666    614.627    608.326    608.326
 23.070    631.000    616.826     14.174    607.862    610.305    614.383    607.862    607.862
 23.170    635.000    616.716     18.284    607.401    609.961    614.155    607.401    607.401
 23.270    585.000    616.639    -31.639    606.943    609.638    613.944    606.943    606.943
 23.370    654.729    616.601     38.128    606.490    609.340    613.751    606.490    606.490
 23.470    651.000    616.608     34.392    606.040    609.071    613.577    606.040    606.040
 23.570    604.000    616.668    -12.668    605.594    608.839    613.423    605.594    605.594
 23.670    604.000    616.791    -12.791    605.152    608.654    613.290    605.152    605.152
 23.770    637.000    616.992     20.008    604.713    608.527    613.179    604.713    604.713
 23.870    651.882    617.291     34.591    604.278    608.478    613.092    604.278    604.278
 23.970    627.000    617.716      9.284    603.846    608.532    613.032    603.846    603.846
 24.070    626.000    618.314      7.686    603.419    608.735    612.999    603.419    603.419
 24.170    630.000    619.171     10.829    602.995    609.171    612.997    602.995    602.995
 24.270    658.610    620.477     38.134    602.574    610.027    613.027    602.574    602.574
 24.370    663.000    622.661     40.339    602.158    611.730    613.093    602.158    602.158
 24.470    649.481    626.598     22.883    601.744    615.152    613.197    601.744    601.744
 24.570    650.166    633.722     16.444    601.335    621.727    613.342    601.335    601.335
 24.670    684.397    645.665     38.732    600.929    633.081    613.533    600.929    600.929
 24.770    687.000    663.051     23.949    600.526    649.835    613.774    600.526    600.526
 24.870    733.544    683.420     50.124    600.128    669.523    614.070    600.128    600.128
 24.970    691.000    699.346     -8.346    599.732    684.708    614.427    599.732    599.732
 25.070    707.000    701.586      5.414    599.341    686.134    614.851    599.341    599.341
 25.170    708.000    688.768     19.232    598.952    672.421    615.349    598.952    598.952
 25.270    689.385    669.443     19.941    598.568    652.116    615.930    598.568    598.568
 25.370    693.000    652.125     40.875    598.187    633.729    616.604    598.187    598.187
 25.470    701.000    640.188     60.812    597.809    620.627    617.383    597.809    597.809
 25.570    608.000    633.429    -25.429    597.435    612.592    618.279    597.435    597.435
 25.670    605.000    630.295    -25.295    597.064    608.055    619.308    597.064    597.064
 25.770    638.000    629.273      8.727    596.697    605.483    620.490    596.697    596.697
 25.870    619.000    629.401    -10.401    596.334    603.891    621.845    596.334    596.334
 25.970    665.000    630.212     34.788    595.973    602.785    623.401    595.973    595.973
 26.070    660.725    631.531     29.194    595.617    601.954    625.193    595.617    595.617
 26.170    613.227    633.283    -20.056    595.263    601.295    627.251    595.263    595.263
 26.270    634.000    635.473     -1.473    594.913    600.761    629.624    594.913    594.913
 26.370    641.982    638.135      3.846    594.567    600.330    632.370    594.567    594.567
 26.470    661.000    641.326     19.674    594.224    599.988    635.560    594.224    594.224
 26.570    630.024    645.127    -15.103    593.884    599.724    639.283    593.884    593.884
 26.670    696.541    649.647     46.893    593.548    599.538    643.653    593.548    593.548
 26.770    707.000    655.034     51.966    593.215    599.430    648.814    593.215    593.215
 26.870    670.000    661.480      8.520    592.885    599.406    654.954    592.885    592.885
 26.970    677.000    669.247      7.753    592.559    599.478    662.322    592.559    592.559
 27.070    651.000    678.686    -27.686    592.236    599.661    671.253    592.236    592.236
 27.170    686.000    690.281     -4.281    591.916    599.982    682.206    591.916    591.916
 27.270    652.000    704.705    -52.705    591.600    600.475    695.819    591.600    591.600
 27.370    722.000    722.922     -0.922    591.287    601.192    713.003    591.287    591.287
 27.470    725.000    746.401    -21.401    590.977    602.213    735.147    590.977    590.977
 27.570    766.000    777.653    -11.653    590.670    603.676    764.624    590.670    590.670
 27.670    825.000    822.225      2.775    590.367    605.882    806.679    590.367    590.367
 27.770    887.225    895.824     -8.599    590.067    609.680    876.160    590.067    590.067
 27.870    999.000   1044.091    -45.091    589.771    617.530   1016.230    589.771    589.771
 27.970   1342.610   1377.799    -35.190    589.477    635.402   1331.663    589.477    589.477
 28.070   1999.000   2091.080    -92.080    589.187    673.752   2006.106    589.187    589.187
 28.170   3226.000   3375.346   -149.346    588.900    742.904   3220.679    588.900    588.900
 28.270   5221.966   5171.342     50.624    588.616    839.713   4919.392    588.616    588.616
 28.370   6844.000   6898.275    -54.275    588.335    933.030   6552.783    588.335    588.335
 28.470   7788.000   7563.087    224.913    588.058    969.655   7181.001    588.058    588.058
 28.570   6803.000   6692.590    110.410    587.783    924.700   6355.487    587.783    587.783
 28.670   5270.000   5070.235    199.765    587.512    841.512   4816.182    587.512    587.512
 28.770   3764.519   3760.226      4.293    587.244    779.138   3568.270    587.244    587.244
 28.870   3326.000   3273.563     52.437    586.979    766.510   3093.921    586.979    586.979
 28.970   3589.399   3531.103     58.296    586.717    798.424   3319.289    586.717    586.717
 29.070   4142.000   4065.544     76.456    586.459    844.244   3807.767    586.459    586.459
 29.170   4225.000   4262.747    -37.747    586.203    861.435   3987.696    586.203    586.203
 29.270   3795.714   3794.118      1.596    585.950    827.125   3553.214    585.950    585.950
 29.370   2910.000   2926.154    -16.154    585.701    762.186   2749.917    585.701    585.701
 29.470   2116.636   2079.768     36.868    585.454    698.664   1966.731    585.454    585.454
 29.570   1534.058   1468.049     66.009    585.211    652.753   1400.606    585.211    585.211
 29.670   1164.000   1106.769     57.231    584.971    625.691   1066.097    584.971    584.971
 29.770    945.000    919.750     25.250    584.733    611.756    892.750    584.733    584.733
 29.870    907.000    825.922     81.078    584.499    604.846    805.586    584.499    584.499
 29.970    797.473    774.415     23.058    584.268    601.138    757.550    584.268    584.268
 30.070    776.000    741.583     34.417    584.039    598.868    726.756    584.039    584.039
 30.170    783.000    718.166     64.834    583.814    597.364    704.616    583.814    583.814
 30.270    763.000    700.583     62.417    583.591    596.397    687.776    583.591    583.591
 30.370    670.000    687.286    -17.286    583.372    595.938    674.718    583.372    583.372
 30.470    701.603    677.714     23.889    583.155    596.149    664.716    583.155    583.155
 30.570    715.915    672.215     43.700    582.942    597.510    657.640    582.942    582.942
 30.670    688.000    672.233     15.767    582.731    600.970    653.981    582.731    582.731
 30.770    707.000    680.066     26.934    582.523    607.856    654.711    582.523    582.523
 30.870    685.570    697.530    -11.961    582.318    619.209    660.602    582.318    582.318
 30.970    737.670    723.344     14.326    582.116    634.464    670.940    582.116    582.116
 31.070    748.000    749.978     -1.978    581.917    649.849    681.973    581.917    581.917
 31.170    738.773    763.021    -24.247    581.720    658.067    686.596    581.720    581.720
 31.270    787.345    751.568     35.778    581.527    653.598    679.429    581.527    581.527
 31.370    765.000    721.481     43.519    581.336    639.463    663.305    581.336    581.336
 31.470    687.000    687.181     -0.181    581.148    623.041    645.257    581.148    581.148
 31.570    691.317    658.671     32.646    580.963    609.455    630.160    580.963    580.963
 31.670    669.000    639.049     29.951    580.781    600.306    619.512    580.781    580.781
 31.770    657.514    627.092     30.421    580.601    594.985    612.701    580.601    580.601
 31.870    592.656    620.167    -27.511    580.424    592.163    608.423    580.424    580.424
 31.970    599.000    616.017    -17.017    580.250    590.700    605.562    580.250    580.250
 32.070    669.000    613.284     55.716    580.079    589.915    603.444    580.079    580.079
 32.170    626.000    611.315     14.685    579.910    589.483    601.739    579.910    579.910
 32.270    594.471    609.832    -15.361    579.744    589.271    600.302    579.744    579.744
 32.370    624.000    608.720     15.280    579.581    589.230    599.068    579.581    579.581
 32.470    657.000    607.926     49.074    579.420    589.343    598.001    579.420    579.420
 32.570    567.000    607.431    -40.431    579.263    589.608    597.083    579.263    579.263
 32.670    612.000    607.233      4.767    579.107    590.035    596.302    579.107    579.107
 32.770    600.000    607.347     -7.347    578.955    590.647    595.653    578.955    578.955
 32.870    585.421    607.808    -22.387    578.805    591.475    595.136    578.805    578.805
 32.970    649.429    608.674     40.756    578.658    592.568    594.760    578.658    578.658
 33.070    624.000    610.030     13.970    578.513    593.999    594.541    578.513    578.513
 33.170    648.957    612.011     36.946    578.371    595.873    594.506    578.371    578.371
 33.270    619.000    614.839      4.161    578.231    598.362    594.705    578.231    578.231
 33.370    606.000    618.937    -12.937    578.094    601.791    595.237    578.094    578.094
 33.470    627.000    625.218      1.782    577.960    606.857    596.315    577.960    577.960
 33.570    659.000    635.716     23.284    577.828    615.113    598.424    577.828    577.828
 33.670    645.029    654.623     -9.594    577.699    629.748    602.562    577.699    577.699
 33.770    699.000    689.207      9.793    577.572    656.298    610.462    577.572    577.572
 33.870    709.000    749.219    -40.219    577.448    702.188    624.450    577.448    577.448
 33.970    881.116    842.914     38.203    577.326    773.702    646.494    577.326    577.326
 34.070    964.000    969.020     -5.020    577.207    869.876    676.291    577.207    577.207
 34.170   1059.674   1106.157    -46.482    577.090    974.440    708.738    577.090    577.090
 34.270   1254.000   1206.830     47.170    576.975   1051.244    732.500    576.975    576.975
 34.370   1243.000   1218.415     24.585    576.864   1060.223    735.014    576.864    576.864
 34.470   1098.000   1132.958    -34.958    576.754    995.313    714.379    576.754    576.754
 34.570   1052.517    997.638     54.880    576.647    892.426    681.852    576.647    576.647
 34.670    912.796    865.281     47.515    576.542    791.780    650.043    576.542    576.542
 34.770    796.065    763.014     33.051    576.440    714.029    625.427    576.440    576.440
 34.870    645.000    695.469    -50.469    576.340    662.701    609.109    576.340    576.340
 34.970    720.000    655.567     64.433    576.242    632.408    599.400    576.242    576.242
 35.070    670.000    633.318     36.682    576.147    615.548    593.916    576.147    576.147
 35.170    659.000    620.729     38.271    576.054    606.033    590.748    576.054    576.054
 35.270    633.000    612.986     20.014    575.964    600.200    588.748    575.964    575.964
 35.370    592.000    607.693    -15.693    575.876    596.223    587.344    575.876    575.876
 35.470    620.000    603.767     16.233    575.790    593.279    586.276    575.790    575.790
 35.570    577.000    600.713    -23.713    575.706    590.990    585.428    575.706    575.706
 35.670    594.000    598.277     -4.277    575.625    589.162    584.738    575.625    575.625
 35.770    612.000    596.302     15.698    575.546    587.675    584.171    575.546    575.546
 35.870    637.000    594.684     42.316    575.469    586.450    583.702    575.469    575.469
 35.970    581.958    593.349    -11.390    575.394    585.429    583.313    575.394    575.394
 36.070    634.000    592.243     41.757    575.322    584.569    582.995    575.322    575.322
 36.170    597.580    591.328      6.252    575.251    583.840    582.738    575.251    575.251
 36.270    573.844    590.575    -16.730    575.183    583.219    582.539    575.183    575.183
 36.370    605.000    589.963     15.037    575.118    582.686    582.394    575.118    575.118
 36.470    641.000    589.481     51.519    575.054    582.230    582.304    575.054    575.054
 36.570    545.822    589.119    -43.297    574.992    581.839    582.271    574.992    574.992
 36.670    594.337    588.875      5.463    574.933    581.507    582.300    574.933    574.933
 36.770    562.000    588.752    -26.752    574.876    581.229    582.399    574.876    574.876
 36.870    591.000    588.760      2.240    574.821    581.002    582.578    574.821    574.821
 36.970    611.000    588.916     22.084    574.768    580.827    582.855    574.768    574.768
 37.070    622.409    589.251     33.158    574.717    580.713    583.254    574.717    574.717
 37.170    619.000    589.822     29.178    574.668    580.678    583.811    574.668    574.668
 37.270    576.000    590.739    -14.739    574.621    580.770    584.589    574.621    574.621
 37.370    572.463    592.220    -19.757    574.576    581.086    585.710    574.576    574.576
 37.470    625.000    594.687     30.313    574.534    581.792    587.428    574.534    574.534
 37.570    593.739    598.902     -5.163    574.493    583.112    590.281    574.493    574.493
 37.670    614.000    606.085      7.915    574.454    585.251    595.286    574.454    574.454
 37.770    614.440    617.883     -3.443    574.418    588.229    604.068    574.418    574.418
 37.870    636.000    635.945      0.055    574.383    591.665    618.658    574.383    574.383
 37.970    655.792    660.906     -5.114    574.350    594.595    640.654    574.350    574.350
 38.070    648.000    691.129    -43.129    574.320    595.725    669.715    574.320    574.320
 38.170    709.000    721.865    -12.865    574.291    594.492    701.653    574.291    574.291
 38.270    700.796    744.512    -43.715    574.264    591.681    727.086    574.264    574.264
 38.370    734.433    748.411    -13.978    574.239    588.425    734.221    574.239    574.239
 38.470    670.000    729.910    -59.910    574.216    585.436    718.689    574.216    574.216
 38.570    712.588    697.787     14.801    574.195    583.065    688.918    574.195    574.195
 38.670    703.844    664.146     39.697    574.175    581.386    656.938    574.175    574.175
 38.770    605.000    636.291    -31.291    574.158    580.287    630.163    574.158    574.158
 38.870    581.900    616.463    -34.563    574.142    579.603    611.003    574.142    574.142
 38.970    605.000    603.845      1.155    574.129    579.181    598.793    574.129    574.129
 39.070    625.377    596.390     28.988    574.117    578.917    591.590    574.117    574.117
 39.170    587.000    592.082     -5.082    574.107    578.744    587.444    574.107    574.107
 39.270    599.000    589.491      9.509    574.098    578.628    584.961    574.098    574.098
 39.370    535.000    587.795    -52.795    574.092    578.547    583.340    574.092    574.092
 39.470    571.879    586.584    -14.705    574.087    578.491    582.179    574.087    574.087
 39.570    549.299    585.665    -36.366    574.084    578.456    581.293    574.084    574.084
 39.670    605.000    584.943     20.057    574.083    578.437    580.589    574.083    574.083
 39.770    579.077    584.367     -5.290    574.083    578.432    580.018    574.083    574.083
 39.870    539.944    583.902    -43.958    574.085    578.440    579.548    574.085    574.085
 39.970    581.000    583.527     -2.527    574.089    578.460    579.156    574.089    574.089
 40.070    563.331    583.224    -19.892    574.095    578.492    578.827    574.095    574.095
 40.170    629.498    582.980     46.518    574.102    578.535    578.548    574.102    574.102
 40.270    586.574    582.788      3.786    574.111    578.589    578.310    574.111    574.111
 40.370    605.000    582.640     22.360    574.122    578.656    578.106    574.122    574.122
 40.470    575.000    582.531     -7.531    574.134    578.734    577.931    574.134    574.134
 40.570    580.000    582.458     -2.458    574.148    578.826    577.780    574.148    574.148
 40.670    614.000    582.418     31.582    574.163    578.932    577.650    574.163    574.163
 40.770    588.000    582.410      5.590    574.180    579.053    577.538    574.180    574.180
 40.870    599.000    582.434     16.566    574.199    579.192    577.441    574.199    574.199
 40.970    510.000    582.490    -72.490    574.219    579.351    577.359    574.219    574.219
 41.070    579.705    582.580     -2.875    574.241    579.532    577.289    574.241    574.241
 41.170    556.000    582.707    -26.707    574.264    579.741    577.231    574.264    574.264
 41.270    592.393    582.874      9.519    574.289    579.981    577.183    574.289    574.289
 41.370    553.000    583.088    -30.088    574.315    580.259    577.145    574.315    574.315
 41.470    626.726    583.356     43.370    574.343    580.583    577.116    574.343    574.343
 41.570    610.000    583.689     26.311    574.372    580.965    577.097    574.372    574.372
 41.670    555.000    584.103    -29.103    574.403    581.420    577.087    574.403    574.403
 41.770    569.000    584.620    -15.620    574.435    581.970    577.087    574.435    574.435
 41.870    587.000    585.277      1.723    574.469    582.651    577.097    574.469    574.469
 41.970    607.000    586.141     20.859    574.504    583.527    577.120    574.504    574.504
 42.070    562.213    587.347    -25.134    574.541    584.729    577.161    574.541    574.541
 42.170    585.140    589.168     -4.028    574.579    586.520    577.230    574.579    574.579
 42.270    536.000    592.124    -56.124    574.618    589.400    577.347    574.618    574.618
 42.370    591.000    597.082     -6.082    574.659    594.202    577.545    574.659    574.659
 42.470    594.000    605.249    -11.249    574.701    602.088    577.871    574.701    574.701
 42.570    621.000    617.895      3.105    574.745    614.280    578.373    574.745    574.745
 42.670    648.859    635.721     13.138    574.790    631.454    579.079    574.790    574.790
 42.770    616.115    657.928    -41.813    574.836    652.839    579.958    574.836    574.836
 42.870    635.000    681.165    -46.165    574.883    675.213    580.879    574.883    574.883
 42.970    636.000    698.983    -62.983    574.932    692.376    581.594    574.932    574.932
 43.070    607.000    703.918    -96.918    574.982    697.145    581.814    574.982    574.982
 43.170    697.000    693.361      3.639    575.034    687.011    581.439    575.034    575.034
 43.270    664.000    672.507     -8.507    575.086    666.972    580.669    575.086    575.086
 43.370    599.000    649.145    -50.145    575.140    644.516    579.804    575.140    575.140
 43.470    642.000    628.582     13.418    575.195    624.751    579.050    575.195    575.195
 43.570    613.965    613.011      0.954    575.252    609.787    578.492    575.252    575.252
 43.670    618.000    602.490     15.510    575.309    599.678    578.131    575.309    575.309
 43.770    627.000    595.975     31.025    575.368    593.421    577.928    575.368    575.368
 43.870    619.000    592.153     26.847    575.428    589.754    577.831    575.428    575.428
 43.970    617.857    589.934     27.924    575.489    587.627    577.799    575.489    575.489
 44.070    574.306    588.595    -14.290    575.551    586.345    577.804    575.551    575.551
 44.170    568.000    587.734    -19.734    575.614    585.522    577.829    575.614    575.614
 44.270    597.049    587.146      9.903    575.679    584.959    577.867    575.679    575.679
 44.370    559.000    586.730    -27.730    575.745    584.561    577.915    575.745    575.745
 44.470    586.919    586.436      0.482    575.811    584.279    577.970    575.811    575.811
 44.570    553.171    586.235    -33.063    575.879    584.084    578.030    575.879    575.879
 44.670    611.000    586.107     24.893    575.948    583.959    578.097    575.948    575.948
 44.770    606.740    586.038     20.702    576.018    583.889    578.168    576.018    576.018
 44.870    610.000    586.019     23.981    576.089    583.865    578.244    576.089    576.089
 44.970    601.000    586.043     14.957    576.161    583.880    578.324    576.161    576.161
 45.070    608.000    586.105     21.895    576.234    583.930    578.409    576.234    576.234
 45.170    563.000    586.199    -23.199    576.308    584.010    578.498    576.308    576.308
 45.270    560.472    586.323    -25.852    576.384    584.116    578.591    576.384    576.384
 45.370    648.000    586.476     61.524    576.460    584.248    578.688    576.460    576.460
 45.470    639.000    586.655     52.345    576.537    584.403    578.789    576.537    576.537
 45.570    627.000    586.860     40.140    576.615    584.580    578.895    576.615    576.615
 45.670    579.000    587.091     -8.091    576.694    584.779    579.005    576.694    576.694
 45.770    571.317    587.348    -16.031    576.774    585.001    579.120    576.774    576.774
 45.870    556.000    587.631    -31.631    576.854    585.245    579.240    576.854    576.854
 45.970    603.000    587.942     15.058    576.936    585.512    579.366    576.936    576.936
 46.070    625.000    588.282     36.718    577.019    585.804    579.497    577.019    577.019
 46.170    602.000    588.654     13.346    577.102    586.122    579.634    577.102    577.102
 46.270    593.000    589.061      3.939    577.187    586.469    579.777    577.187    577.187
 46.370    565.000    589.506    -24.506    577.272    586.848    579.928    577.272    577.272
 46.470    629.000    589.994     39.006    577.358    587.263    580.087    577.358    577.358
 46.570    582.000    590.530     -8.530    577.445    587.719    580.255    577.445    577.445
 46.670    633.256    591.124     42.133    577.533    588.223    580.432    577.533    577.533
 46.770    574.000    591.783    -17.783    577.621    588.782    580.621    577.621    577.621
 46.870    655.000    592.523     62.477    577.710    589.408    580.823    577.710    577.710
 46.970    588.267    593.361     -5.094    577.800    590.118    581.041    577.800    577.800
 47.070    616.000    594.330     21.670    577.891    590.940    581.278    577.891    577.891
 47.170    626.869    595.485     31.384    577.983    591.923    581.542    577.983    577.983
 47.270    576.000    596.936    -20.936    578.075    593.164    581.843    578.075    578.075
 47.370    597.000    598.887     -1.887    578.168    594.845    582.205    578.168    578.168
 47.470    567.364    601.694    -34.330    578.262    597.284    582.666    578.262    578.262
 47.570    586.309    605.912    -19.604    578.357    600.974    583.286    578.357    578.357
 47.670    650.000    612.260     37.740    578.452    606.557    584.141    578.452    578.452
 47.770    611.000    621.454    -10.454    578.547    614.672    585.309    578.547    578.547
 47.870    676.632    633.883     42.749    578.644    625.665    586.834    578.644    578.644
 47.970    656.795    649.159      7.636    578.741    639.187    588.675    578.741    578.741
 48.070    670.000    665.621      4.379    578.839    653.752    590.660    578.839    578.839
 48.170    640.878    679.963    -39.085    578.937    666.400    592.442    578.937    578.937
 48.270    642.427    687.819    -45.391    579.036    673.230    593.564    579.036    579.036
 48.370    700.759    686.466     14.294    579.136    671.801    593.743    579.136    579.136
 48.470    637.342    677.327    -39.984    579.236    663.380    593.134    579.236    579.236
 48.570    689.000    664.557     24.443    579.337    651.672    592.183    579.337    579.337
 48.670    655.000    652.048      2.952    579.438    640.148    591.309    579.438    579.438
 48.770    619.000    642.146    -23.146    579.540    630.894    590.772    579.540    579.540
 48.870    640.000    635.776      4.224    579.642    624.723    590.681    579.642    579.642
 48.970    583.476    632.913    -49.437    579.745    621.595    591.052    579.745    579.745
 49.070    629.000    633.073     -4.073    579.849    621.054    591.859    579.849    579.849
 49.170    652.428    635.713     16.715    579.952    622.583    593.076    579.952    579.952
 49.270    594.000    640.518    -46.518    580.057    625.845    594.722    580.057    580.057
 49.370    622.000    647.614    -25.614    580.162    630.860    596.908    580.162    580.162
 49.470    648.000    657.931     -9.931    580.267    638.252    599.937    580.267    580.267
 49.570    671.000    674.017     -3.017    580.373    649.833    604.546    580.373    580.373
 49.670    743.069    701.684     41.384    580.479    669.773    612.375    580.479    580.479
 49.770    766.631    752.522     14.109    580.585    706.405    626.676    580.585    580.585
 49.870    846.000    846.273     -0.273    580.692    773.937    652.981    580.692    580.692
 49.970   1060.525   1010.412     50.112    580.800    892.141    698.990    580.800    580.800
 50.070   1158.000   1273.237   -115.237    580.908   1081.385    772.630    580.908    580.908
 50.170   1603.384   1648.682    -45.298    581.016   1351.706    877.805    581.016    581.016
 50.270   2155.000   2116.540     38.460    581.124   1688.599   1008.827    581.124    581.124
 50.370   2690.987   2606.879     84.108    581.233   2041.814   1146.039    581.233    581.233
 50.470   2949.000   2999.575    -50.575    581.342   2324.698   1255.993    581.342    581.342
 50.570   3009.000   3157.019   -148.019    581.452   2438.328   1300.015    581.452    581.452
 50.670   2923.000   3011.713    -88.713    581.562   2334.146   1259.136    581.562    581.562
 50.770   2624.000   2627.778     -3.778    581.672   2058.328   1151.241    581.672    581.672
 50.870   2129.000   2142.090    -13.090    581.782   1709.474   1014.575    581.782    581.782
 50.970   1620.000   1676.811    -56.811    581.893   1375.646    883.239    581.893    581.893
 51.070   1318.494   1304.090     14.404    582.004   1108.916    777.331    582.004    582.004
 51.170   1074.237   1045.913     28.323    582.115    925.184    702.959    582.115    582.115
 51.270    880.044    889.048     -9.004    582.226    814.853    656.502    582.226    582.226
 51.370    805.963    804.524      1.439    582.338    756.751    630.168    582.338    582.338
 51.470    826.000    762.864     63.136    582.449    729.038    616.318    582.449    582.449
 51.570    807.000    741.557     65.443    582.561    714.656    609.498    582.561    582.561
 51.670    702.240    726.989    -24.749    582.674    703.108    606.585    582.674    582.674
 51.770    667.627    713.598    -45.971    582.786    690.324    606.083    582.786    582.786
 51.870    701.000    700.964      0.036    582.899    676.563    607.316    582.899    582.899
 51.970    711.000    690.308     20.692    583.011    663.512    609.815    583.011    583.011
 52.070    665.964    682.388    -16.425    583.124    652.548    612.965    583.124    583.124
 52.170    697.808    676.917     20.892    583.237    644.306    615.843    583.237    583.237
 52.270    701.000    672.775     28.225    583.350    638.799    617.319    583.350    583.350
 52.370    705.000    668.767     36.233    583.463    635.672    616.550    583.463    583.463
 52.470    678.000    664.452     13.548    583.576    634.464    613.557    583.576    583.576
 52.570    702.000    660.295     41.705    583.690    634.800    609.180    583.690    583.690
 52.670    674.000    657.182     16.818    583.803    636.512    604.469    583.803    583.803
 52.770    595.000    656.042    -61.042    583.916    639.732    600.224    583.916    583.916
 52.870    667.000    657.856      9.144    584.030    645.012    596.871    584.030    584.030
 52.970    669.000    663.933      5.067    584.143    653.545    594.529    584.143    584.143
 53.070    673.000    676.316     -3.316    584.257    667.445    593.124    584.257    584.257
 53.170    699.000    698.133      0.867    584.370    689.983    592.517    584.370    584.370
 53.270    732.938    733.608     -0.670    584.484    725.496    592.589    584.484    584.484
 53.370    765.000    787.367    -22.367    584.597    778.677    593.277    584.597    584.597
 53.470    864.000    862.881      1.119    584.711    853.029    594.549    584.711    584.711
 53.570    921.000    960.176    -39.176    584.824    948.655    596.328    584.824    584.824
 53.670   1095.000   1073.226     21.774    584.937   1059.751    598.392    584.937    584.937
 53.770   1123.393   1187.810    -64.417    585.051   1172.219    600.620    585.051    585.051
 53.870   1307.000   1279.840     27.160    585.164   1262.558    602.428    585.164    585.164
 53.970   1356.000   1321.277     34.723    585.277   1303.315    603.230    585.277    585.277
 54.070   1251.000   1296.648    -45.648    585.390   1279.332    602.708    585.390    585.390
 54.170   1221.000   1215.954      5.046    585.503   1200.405    601.063    585.503    585.503
 54.270   1102.008   1105.693     -3.685    585.616   1092.495    598.830    585.616    585.616
 54.370   1045.477    991.534     53.943    585.728    980.749    596.529    585.728    585.728
 54.470    849.528    890.302    -40.775    585.841    881.655    594.502    585.841    585.841
 54.570    817.000    809.903      7.097    585.953    802.960    592.907    585.953    585.953
 54.670    784.000    751.560     32.440    586.065    745.864    591.769    586.065    586.065
 54.770    728.940    712.384     16.555    586.177    707.539    591.028    586.177    586.177
 54.870    709.000    687.750     21.250    586.289    683.453    590.589    586.289    586.289
 54.970    679.000    673.065      5.935    586.401    669.109    590.358    586.401    586.401
 55.070    641.743    664.700    -22.957    586.512    660.950    590.263    586.512    586.512
 55.170    657.000    660.211     -3.211    586.623    656.583    590.251    586.623    586.623
 55.270    695.456    658.145     37.311    586.734    654.585    590.294    586.734    586.734
 55.370    661.918    657.730      4.188    586.845    654.197    590.377    586.845    586.845
 55.470    642.000    658.600    -16.600    586.955    655.064    590.490    586.955    586.955
 55.570    636.000    660.623    -24.623    587.066    657.055    590.633    587.066    587.066
 55.670    710.714    663.807     46.907    587.175    660.176    590.804    587.175    587.175
 55.770    708.606    668.280     40.326    587.285    664.555    591.008    587.285    587.285
 55.870    655.000    674.334    -19.334    587.394    670.475    591.250    587.394    587.394
 55.970    683.000    682.549      0.451    587.503    678.505    591.544    587.503    587.503
 56.070    742.100    694.061     48.039    587.612    689.754    591.915    587.612    587.612
 56.170    748.000    711.013     36.987    587.720    706.316    592.411    587.720    587.720
 56.270    707.823    737.227    -29.404    587.828    731.928    593.117    587.828    587.828
 56.370    747.806    778.965    -31.159    587.936    772.710    594.173    587.936    587.936
 56.470    815.000    845.427    -30.427    588.043    837.658    595.785    588.043    588.043
 56.570    961.899    948.365     13.535    588.150    938.260    598.213    588.150    588.150
 56.670   1049.000   1100.123    -51.123    588.256   1086.585    601.735    588.256    588.256
 56.770   1331.000   1309.742     21.258    588.362   1291.476    606.551    588.362    588.362
 56.870   1581.000   1577.559      3.441    588.468   1553.265    612.670    588.468    588.468
 56.970   1947.000   1889.420     57.580    588.573   1858.119    619.779    588.573    588.573
 57.070   2230.000   2211.819     18.181    588.678   2173.284    627.132    588.678    588.678
 57.170   2487.964   2490.294     -2.331    588.782   2445.518    633.518    588.782    588.782
 57.270   2723.065   2658.364     64.701    588.886   2609.815    637.459    588.886    588.886
 57.370   2709.000   2665.460     43.540    588.989   2616.714    637.830    588.989    588.989
 57.470   2543.000   2509.521     33.479    589.092   2464.174    634.589    589.092    589.092
 57.570   2256.144   2238.672     17.472    589.195   2199.228    628.811    589.195    589.195
 57.670   1922.742   1919.625      3.116    589.297   1887.100    621.991    589.297    589.297
 57.770   1537.893   1608.308    -70.415    589.398   1582.463    615.389    589.398    589.398
 57.870   1378.723   1339.833     38.890    589.499   1319.630    609.818    589.499    589.499
 57.970   1059.000   1129.824    -70.824    589.600   1113.823    605.684    589.600    589.600
 58.070    927.000    979.285    -52.285    589.699    965.913    603.127    589.699    589.699
 58.170    852.831    880.540    -27.709    589.799    868.184    602.187    589.799    589.799
 58.270    869.000    822.881     46.119    589.898    809.833    602.961    589.898    589.898
 58.370    827.000    796.726     30.274    589.996    781.020    605.702    589.996    589.996
 58.470    770.000    795.633    -25.633    590.093    774.896    610.817    590.093    590.093
 58.570    854.675    816.355     38.320    590.190    787.806    618.714    590.190    590.190
 58.670    860.000    857.571      2.429    590.287    818.279    629.541    590.287    590.287
 58.770    881.000    918.028    -37.028    590.383    865.488    642.875    590.383    590.383
 58.870    955.000    994.699    -39.699    590.478    927.645    657.477    590.478    590.478
 58.970    967.000   1081.407   -114.407    590.573   1000.697    671.226    590.573    590.573
 59.070   1185.000   1168.604     16.396    590.666   1077.821    681.401    590.666    590.666
 59.170   1186.000   1245.492    -59.492    590.760   1150.632    685.587    590.760    590.760
 59.270   1274.755   1303.918    -29.163    590.852   1211.800    682.957    590.852    590.852
 59.370   1387.172   1339.891     47.281    590.944   1256.107    674.735    590.944    590.944
 59.470   1337.000   1351.336    -14.336    591.036   1279.180    663.218    591.036    591.036
 59.570   1304.000   1337.886    -33.886    591.126   1278.427    650.622    591.126    591.126
 59.670   1249.468   1304.807    -55.340    591.216   1257.418    638.641    591.216    591.216
 59.770   1277.167   1264.379     12.789    591.305   1227.326    628.375    591.305    591.305
 59.870   1209.000   1231.022    -22.022    591.394   1202.094    620.308    591.394    591.394
 59.970   1234.000   1215.681     18.319    591.482   1192.736    614.371    591.482    591.482
 60.070   1225.000   1224.185      0.815    591.569   1205.490    610.161    591.569    591.569
 60.170   1235.000   1258.825    -23.825    591.655   1243.126    607.202    591.655    591.655
 60.270   1293.245   1319.384    -26.140    591.741   1305.807    605.116    591.741    591.741
 60.370   1468.937   1400.941     67.996    591.825   1388.861    603.660    591.825    591.825
 60.470   1496.000   1490.719      5.281    591.909   1479.672    602.679    591.909    591.909
 60.570   1517.643   1567.546    -49.903    591.993   1557.176    602.074    591.993    591.993
 60.670   1592.000   1606.168    -14.168    592.075   1596.193    601.775    592.075    592.075
 60.770   1526.000   1587.601    -61.601    592.157   1577.785    601.734    592.157    592.157
 60.870   1569.550   1510.103     59.447    592.238   1500.232    601.920    592.238    592.238
 60.970   1394.000   1389.861      4.139    592.318   1379.723    602.315    592.318    592.318
 61.070   1300.000   1250.848     49.152    592.397   1240.223    602.923    592.397    592.397
 61.170   1165.479   1114.688     50.791    592.475   1103.320    603.776    592.475    592.475
 61.270    948.000    996.370    -48.370    592.553    983.919    604.957    592.553    592.553
 61.370    887.000    903.976    -16.976    592.629    889.932    606.638    592.629    592.629
 61.470    799.000    840.118    -41.118    592.705    823.657    609.133    592.705    592.705
 61.570    758.000    804.182    -46.182    592.780    783.956    612.969    592.780    592.780
 61.670    756.759    794.713    -37.955    592.854    768.574    618.947    592.854    592.854
 61.770    854.546    811.229     43.317    592.927    775.934    628.159    592.927    592.927
 61.870    857.000    854.910      2.090    592.999    805.918    641.904    592.999    592.999
 61.970    981.633    927.960     53.673    593.071    859.466    661.447    593.071    593.071
 62.070   1015.000   1031.824    -16.824    593.141    937.201    687.609    593.141    593.141
 62.170   1117.709   1164.754    -47.045    593.211   1037.506    720.264    593.211    593.211
 62.270   1352.713   1319.404     33.308    593.279   1154.621    757.830    593.279    593.279
 62.370   1474.000   1481.044     -7.044    593.347   1277.226    796.905    593.347    593.347
 62.470   1632.000   1626.959      5.041    593.414   1387.946    832.157    593.414    593.414
 62.570   1697.000   1728.734    -31.734    593.479   1465.076    856.882    593.479    593.479
 62.670   1778.000   1760.647     17.353    593.544   1488.966    865.003    593.544    593.544
 62.770   1752.000   1713.133     38.867    593.608   1452.297    854.266    593.608    593.608
 62.870   1567.000   1599.325    -32.325    593.671   1365.074    827.790    593.671    593.671
 62.970   1489.997   1446.434     43.563    593.732   1248.046    792.028    593.732    593.732
 63.070   1279.751   1282.287     -2.536    593.793   1122.438    753.580    593.793    593.793
 63.170   1083.000   1128.030    -45.030    593.853   1004.379    717.462    593.853    593.853
 63.270    960.000    996.560    -36.560    593.912    903.707    686.738    593.912    593.912
 63.370    913.607    893.332     20.276    593.970    824.577    662.704    593.970    593.970
 63.470    800.000    818.062    -18.062    594.026    766.770    645.302    594.026    594.026
 63.570    814.026    766.864     47.162    594.082    727.316    633.614    594.082    594.082
 63.670    750.000    734.444     15.556    594.137    702.173    626.393    594.137    594.137
 63.770    722.559    715.753      6.807    594.190    687.481    622.446    594.190    594.190
 63.870    704.000    706.966     -2.966    594.243    680.309    620.881    594.243    594.243
 63.970    717.000    705.886     11.114    594.294    678.943    621.216    594.294    594.294
 64.070    713.767    711.952      1.815    594.345    682.862    623.408    594.345    594.345
 64.170    762.930    726.071     36.859    594.394    692.563    627.868    594.394    594.394
 64.270    749.000    750.330     -1.330    594.442    709.277    635.450    594.442    594.442
 64.370    808.000    787.565     20.435    594.489    734.587    647.407    594.489    594.489
 64.470    842.000    840.717      1.283    594.535    769.917    665.254    594.535    594.535
 64.570    905.000    911.922     -6.922    594.580    815.907    690.489    594.580    594.580
 64.670    996.000   1001.400     -5.400    594.624    871.733    724.154    594.624    594.624
 64.770   1103.000   1106.252     -3.252    594.666    934.463    766.288    594.666    594.666
 64.870   1268.465   1219.409     49.055    594.708    998.559    815.362    594.708    594.708
 64.970   1372.000   1329.182     42.818    594.748   1055.882    867.830    594.748    594.748
 65.070   1459.812   1420.341     39.471    594.788   1096.989    917.915    594.788    594.788
 65.170   1478.000   1477.540      0.460    594.826   1114.211    957.940    594.826    594.826
 65.270   1552.000   1490.186     61.814    594.862   1104.984    979.875    594.862    594.862
 65.370   1393.000   1456.433    -63.433    594.898   1072.766    978.413    594.898    594.898
 65.470   1423.000   1384.147     38.853    594.933   1025.131    953.835    594.933    594.933
 65.570   1331.031   1287.822     43.209    594.966    970.824    911.890    594.966    594.966
 65.670   1188.000   1183.086      4.914    594.998    917.281    860.762    594.998    594.998
 65.770   1083.000   1082.301      0.699    595.029    869.290    808.024    595.029    595.029
 65.870    971.566    992.929    -21.363    595.059    828.773    759.216    595.059    595.059
 65.970    896.000    917.954    -21.954    595.087    795.430    717.623    595.087    595.087
 66.070    820.892    857.348    -36.456    595.115    767.929    684.551    595.115    595.115
 66.170    761.000    809.678    -48.678    595.141    745.040    659.796    595.141    595.141
 66.270    783.000    773.105      9.895    595.165    726.075    642.209    595.165    595.165
 66.370    729.000    745.731    -16.731    595.189    710.700    630.230    595.189    595.189
 66.470    777.916    725.761     52.155    595.211    698.675    622.302    595.211    595.211
 66.570    671.427    711.643    -40.215    595.232    689.765    617.112    595.232    595.232
 66.670    722.530    702.160     20.371    595.252    683.733    613.678    595.252    595.252
 66.770    673.318    696.425    -23.107    595.271    680.358    611.335    595.271    595.271
 66.870    647.623    693.845    -46.221    595.288    679.461    609.668    595.288    595.288
 66.970    669.695    694.098    -24.403    595.304    680.964    608.433    595.304    595.304
 67.070    719.227    697.188     22.039    595.319    685.004    607.499    595.319    595.319
 67.170    677.000    703.566    -26.566    595.332    692.090    606.803    595.332    595.332
 67.270    662.762    714.322    -51.560    595.344    703.330    606.330    595.344    595.344
 67.370    710.174    731.444    -21.270    595.355    720.692    606.100    595.355    595.355
 67.470    734.000    758.087    -24.087    595.365    747.272    606.169    595.365    595.365
 67.570    814.000    798.764     15.236    595.373    787.492    606.629    595.373    595.373
 67.670    815.018    859.293    -44.275    595.380    847.044    607.606    595.380    595.380
 67.770    942.007    946.316     -4.309    595.385    932.427    609.244    595.385    595.385
 67.870   1012.000   1066.237    -54.237    595.390   1049.903    611.687    595.390    595.390
 67.970   1205.758   1223.562    -17.803    595.393   1203.880    615.033    595.393    595.393
 68.070   1444.000   1418.838     25.162    595.394   1394.902    619.290    595.394    595.394
 68.170   1644.986   1646.563     -1.577    595.394   1617.601    624.326    595.394    595.394
 68.270   1959.365   1893.425     65.940    595.393   1858.980    629.830    595.393    595.393
 68.370   2225.165   2137.196     87.970    595.391   2097.332    635.282    595.391    595.391
 68.470   2317.922   2347.005    -29.083    595.387   2302.505    639.965    595.387    595.387
 68.570   2439.000   2487.293    -48.293    595.382   2439.762    643.051    595.382    595.382
 68.670   2515.403   2528.279    -12.876    595.375   2480.004    643.847    595.375    595.375
 68.770   2370.046   2460.049    -90.004    595.367   2413.533    642.122    595.367    595.367
 68.870   2465.000   2298.447    166.553    595.358   2255.820    638.240    595.358    595.358
 68.970   2154.000   2076.193     77.807    595.347   2038.829    632.961    595.347    595.347
 69.070   1889.000   1828.569     60.431    595.335   1797.029    627.102    595.335    595.335
 69.170   1544.677   1584.489    -39.812    595.321   1558.672    621.333    595.321    595.321
 69.270   1451.000   1363.847     87.153    595.306   1343.196    616.115    595.306    595.306
 69.370   1208.000   1177.794     30.206    595.290   1161.502    611.704    595.290    595.290
 69.470   1045.000   1030.074     14.926    595.272   1017.252    608.185    595.272    595.272
 69.570    959.181    918.903     40.278    595.253    908.695    605.525    595.253    595.253
 69.670    909.000    839.063     69.937    595.232    830.743    603.597    595.232    595.232
 69.770    792.000    783.913      8.087    595.210    776.906    602.247    595.210    595.210
 69.870    720.442    746.894    -26.452    595.187    740.778    601.322    595.187    595.187
 69.970    821.000    722.433     98.567    595.162    716.914    600.693    595.162    595.162
 70.070    734.000    706.289     27.711    595.135    701.171    600.261    595.135    595.135
 70.170    725.000    695.506     29.494    595.107    690.660    599.958    595.107    595.107
 70.270    651.032    688.170    -37.138    595.078    683.512    599.739    595.078    595.078
 70.370    691.000    683.121      7.879    595.047    678.592    599.577    595.047    595.047
 70.470    642.535    679.692    -37.158    595.015    675.250    599.457    595.015    595.015
 70.570    670.000    677.529     -7.529    594.982    673.137    599.371    594.982    594.982
 70.670    684.000    676.469      7.531    594.947    672.096    599.316    594.947    594.947
 70.770    691.000    676.490     14.510    594.910    672.103    599.293    594.910    594.910
 70.870    704.000    677.702     26.298    594.872    673.263    599.304    594.872    594.872
 70.970    733.000    680.378     52.622    594.832    675.842    599.360    594.832    594.832
 71.070    670.664    685.035    -14.371    594.791    680.338    599.477    594.791    594.791
 71.170    714.000    692.542     21.458    594.749    687.594    599.682    594.749    594.749
 71.270    687.000    704.266    -17.266    594.705    698.932    600.017    594.705    594.705
 71.370    686.116    722.213    -36.097    594.659    716.297    600.546    594.659    594.659
 71.470    785.000    749.125     35.875    594.612    742.344    601.354    594.612    594.612
 71.570    775.000    788.449    -13.449    594.564    780.410    602.548    594.564    594.564
 71.670    856.000    844.091     11.909    594.514    834.281    604.249    594.514    594.514
 71.770    888.738    919.899    -31.161    594.463    907.683    606.578    594.463    594.463
 71.870   1051.000   1018.844     32.156    594.410   1003.494    609.627    594.410    594.410
 71.970   1147.000   1141.992      5.008    594.355   1122.748    613.431    594.355    594.355
 72.070   1252.723   1287.415    -34.692    594.299   1263.576    617.931    594.299    594.299
 72.170   1406.000   1449.206    -43.206    594.241   1420.258    622.946    594.241    594.241
 72.270   1479.000   1616.758   -137.758    594.182   1582.517    628.149    594.182    594.182
 72.370   1712.082   1774.483    -62.401    594.122   1735.249    633.061    594.122    594.122
 72.470   1946.092   1902.630     43.462    594.060   1859.319    637.073    594.060    594.060
 72.570   1910.373   1980.580    -70.207    593.996   1934.744    639.548    593.996    593.996
 72.670   2050.981   1993.271     57.710    593.931   1946.925    640.025    593.931    593.931
 72.770   1941.371   1937.934      3.437    593.864   1893.167    638.419    593.864    593.864
 72.870   1815.000   1825.573    -10.573    593.796   1784.128    635.072    593.796    593.796
 72.970   1643.000   1675.684    -32.684    593.726   1638.695    630.586    593.726    593.726
 73.070   1494.000   1508.988    -14.988    593.655   1476.953    625.596    593.655    593.655
 73.170   1373.091   1342.831     30.261    593.582   1315.720    620.626    593.582    593.582
 73.270   1123.000   1189.638    -66.638    593.508   1167.055    616.044    593.508    593.508
 73.370   1113.082   1056.939     56.142    593.432   1038.276    612.062    593.432    593.432
 73.470   1001.955    947.989     53.966    593.354    932.558    608.762    593.354    593.354
 73.570    874.500    862.682     11.818    593.275    849.806    606.134    593.275    593.275
 73.670    828.226    798.637     29.589    593.195    787.704    604.114    593.195    593.195
 73.770    713.284    752.268    -38.984    593.112    742.751    602.618    593.112    593.112
 73.870    684.971    719.678    -34.708    593.029    711.137    601.560    593.029    593.029
 73.970    713.869    697.285     16.584    592.943    689.355    600.865    592.943    592.943
 74.070    678.525    682.157     -3.632    592.857    674.528    600.479    592.857    592.857
 74.170    638.000    672.110    -34.110    592.768    664.503    600.371    592.768    592.768
 74.270    653.000    665.646    -12.646    592.678    657.794    600.528    592.678    592.678
 74.370    622.388    661.802    -39.413    592.587    653.437    600.952    592.587    592.587
 74.470    617.808    659.985    -42.176    592.494    650.836    601.647    592.494    592.494
 74.570    640.826    659.816    -18.991    592.399    649.613    602.610    592.399    592.399
 74.670    597.000    661.007    -64.007    592.303    649.499    603.824    592.303    592.303
 74.770    699.202    663.268     35.934    592.205    650.248    605.244    592.205    592.205
 74.870    708.000    666.248     41.752    592.106    651.584    606.794    592.106    592.106
 74.970    692.000    669.498     22.502    592.005    653.170    608.363    592.005    592.005
 75.070    643.824    672.464    -28.639    591.902    654.595    609.805    591.902    591.902
 75.170    621.869    674.535    -52.665    591.798    655.412    610.959    591.798    591.798
 75.270    690.000    675.188     14.812    591.692    655.234    611.687    591.692    591.692
 75.370    684.096    674.196      9.901    591.585    653.881    611.940    591.585    591.585
 75.470    655.034    671.758    -16.724    591.476    651.470    611.802    591.476    591.476
 75.570    696.426    668.458     27.968    591.366    648.385    611.472    591.366    591.366
 75.670    645.967    665.090    -19.123    591.254    645.142    611.229    591.254    591.254
 75.770    639.977    662.522    -22.545    591.140    642.289    611.393    591.140    591.140
 75.870    687.825    661.638     26.187    591.025    640.362    612.313    591.025    591.025
 75.970    703.000    663.336     39.664    590.908    639.873    614.375    590.908    590.908
 76.070    653.000    668.530    -15.530    590.790    641.321    617.993    590.790    590.790
 76.170    646.101    678.123    -32.022    590.670    645.176    623.602    590.670    590.670
 76.270    744.087    692.940     51.147    590.549    651.850    631.612    590.549    590.549
 76.370    698.000    713.614    -15.614    590.425    661.648    642.353    590.425    590.425
 76.470    720.000    740.426    -20.426    590.301    674.690    655.985    590.301    590.301
 76.570    781.000    773.136      7.864    590.175    690.831    672.413    590.175    590.175
 76.670    858.298    810.783     47.515    590.047    709.560    691.189    590.047    590.047
 76.770    833.000    851.554    -18.554    589.917    729.934    711.441    589.917    589.917
 76.870    876.173    892.678    -16.505    589.786    750.528    731.827    589.786    589.786
 76.970    966.510    930.430     36.080    589.654    769.436    750.529    589.654    589.654
 77.070   1018.000    960.374     57.626    589.520    784.392    765.379    589.520    589.520
 77.170    999.520    978.111     21.409    589.384    793.150    774.223    589.384    589.384
 77.270   1014.000    980.550     33.450    589.247    794.134    775.548    589.247    589.247
 77.370    917.000    967.154    -50.154    589.108    787.066    769.092    589.108    589.108
 77.470    963.000    940.181     22.819    588.968    773.093    755.966    588.968    588.968
 77.570    877.000    903.723    -26.723    588.826    754.298    738.175    588.826    588.826
 77.670    874.000    862.304     11.696    588.682    732.982    717.943    588.682    588.682
 77.770    800.000    819.916    -19.916    588.537    711.177    697.228    588.537    588.537
 77.870    830.839    779.615     51.224    588.390    690.438    677.530    588.390    588.390
 77.970    726.000    743.464    -17.464    588.242    671.814    659.863    588.242    588.242
 78.070    740.389    712.606     27.784    588.092    655.888    644.789    588.092    588.092
 78.170    656.000    687.408    -31.408    587.941    642.844    632.488    587.941    587.941
 78.270    689.000    667.641     21.359    587.788    632.567    622.850    587.788    587.788
 78.370    665.000    652.684     12.316    587.633    624.738    615.569    587.633    587.633
 78.470    634.000    641.716     -7.716    587.477    618.939    610.246    587.477    587.477
 78.570    621.744    633.880    -12.136    587.319    614.733    606.460    587.319    587.319
 78.670    637.000    628.392      8.608    587.160    611.719    603.827    587.160    587.160
 78.770    656.000    624.597     31.403    586.999    609.563    602.027    586.999    586.999
 78.870    680.000    621.994     58.006    586.837    608.009    600.816    586.837    586.837
 78.970    651.000    620.221     30.779    586.673    606.872    600.017    586.673    586.673
 79.070    589.070    619.035    -29.965    586.508    606.026    599.513    586.508    586.508
 79.170    666.000    618.284     47.716    586.341    605.392    599.229    586.341    586.341
 79.270    602.000    617.882    -15.882    586.172    604.925    599.125    586.172    586.172
 79.370    616.000    617.794     -1.794    586.002    604.604    599.188    586.002    586.002
 79.470    594.000    618.020    -24.020    585.830    604.425    599.421    585.830    585.830
 79.570    648.290    618.598     29.691    585.657    604.400    599.851    585.657    585.657
 79.670    571.731    619.602    -47.870    585.482    604.550    600.528    585.482    585.482
 79.770    611.000    621.149    -10.149    585.306    604.911    601.538    585.306    585.306
 79.870    599.000    623.421    -24.421    585.128    605.528    603.015    585.128    585.128
 79.970    606.000    626.682    -20.682    584.949    606.461    605.162    584.949    584.949
 80.070    657.000    631.311     25.689    584.768    607.786    608.283    584.768    584.768
 80.170    624.000    637.834    -13.834    584.586    609.603    612.804    584.586    584.586
 80.270    646.000    646.955     -0.955    584.402    612.036    619.306    584.402    584.402
 80.370    668.000    659.573      8.427    584.217    615.238    628.532    584.217    584.217
 80.470    661.000    676.769    -15.769    584.030    619.399    641.375    584.030    584.030
 80.570    730.000    699.745     30.255    583.841    624.732    658.822    583.841    583.841
 80.670    725.000    729.713     -4.713    583.651    631.471    681.853    583.651    583.651
 80.770    726.210    767.733    -41.523    583.460    639.856    711.289    583.460    583.460
 80.870    836.000    814.513     21.487    583.267    650.120    747.605    583.267    583.267
 80.970    831.585    870.180    -38.595    583.072    662.463    790.726    583.072    583.072
 81.070    972.801    934.030     38.772    582.877    677.007    839.828    582.877    582.877
 81.170    958.000   1004.285    -46.285    582.679    693.715    893.173    582.679    582.679
 81.270   1073.978   1077.929     -3.951    582.480    712.312    948.019    582.480    582.480
 81.370   1187.545   1150.703     36.841    582.280    732.235   1000.672    582.280    582.280
 81.470   1215.000   1217.392     -2.392    582.078    752.636   1046.764    582.078    582.078
 81.570   1316.000   1272.501     43.499    581.875    772.463   1081.854    581.875    581.875
 81.670   1457.000   1311.284    145.716    581.670    790.607   1102.303    581.670    581.670
 81.770   1376.000   1330.694     45.306    581.464    806.060   1106.071    581.464    581.464
 81.870   1381.000   1329.803     51.197    581.256    818.020   1093.031    581.256    581.256
 81.970   1342.430   1309.679     32.751    581.047    825.952   1064.785    581.047    581.047
 82.070   1211.627   1273.010    -61.383    580.836    829.599   1024.275    580.836    580.836
 82.170   1343.000   1223.865    119.135    580.624    829.127    975.406    580.624    580.624
 82.270   1234.000   1166.636     67.364    580.411    824.736    922.367    580.411    580.411
 82.370   1148.000   1105.504     42.496    580.196    816.705    869.059    580.196    580.196
 82.470   1015.491   1043.957    -28.466    579.979    805.387    818.619    579.979    579.979
 82.570   1005.726    984.699     21.027    579.762    791.318    773.215    579.762    579.762
 82.670    918.820    929.696    -10.876    579.542    775.255    734.055    579.542    579.542
 82.770    902.000    880.170     21.830    579.322    758.046    701.514    579.322    579.322
 82.870    791.000    836.611    -45.611    579.100    740.441    675.333    579.100    579.100
 82.970    767.211    798.904    -31.694    578.876    723.009    654.830    578.876    578.876
 83.070    687.000    766.593    -79.593    578.652    706.178    639.118    578.652    578.652
 83.170    727.589    739.135    -11.546    578.425    690.329    627.277    578.425    578.425
 83.270    650.000    716.071    -66.071    578.198    675.832    618.474    578.198    578.198
 83.370    658.000    697.054    -39.054    577.969    663.035    612.017    577.969    577.969
 83.470    632.000    681.827    -49.827    577.738    652.215    607.372    577.738    577.738
 83.570    658.190    670.183    -11.993    577.507    643.555    604.148    577.507    577.507
 83.670    639.000    661.933    -22.933    577.274    637.141    602.071    577.274    577.274
 83.770    625.000    656.877    -31.877    577.039    632.962    600.951    577.039    577.039
 83.870    692.715    654.768     37.947    576.803    630.911    600.648    576.803    576.803
 83.970    605.000    655.285    -50.285    576.566    630.790    601.040    576.566    576.566
 84.070    590.000    658.008    -68.008    576.328    632.306    602.001    576.328    576.328
 84.170    635.000    662.406    -27.406    576.088    635.076    603.380    576.088    576.088
 84.270    649.745    667.829    -18.084    575.847    638.635    604.996    575.847    575.847
 84.370    641.000    673.530    -32.530    575.604    642.447    606.637    575.604    575.604
 84.470    693.000    678.682     14.318    575.361    645.927    608.060    575.361    575.361
 84.570    687.000    682.449      4.551    575.116    648.485    609.022    575.116    575.116
 84.670    672.000    684.105    -12.105    574.869    649.612    609.305    574.869    574.869
 84.770    671.000    683.193    -12.193    574.622    648.982    608.775    574.622    574.622
 84.870    617.000    679.636    -62.636    574.373    646.538    607.417    574.373    574.373
 84.970    634.000    673.747    -39.747    574.122    642.485    605.337    574.122    574.122
 85.070    673.000    666.113      6.887    573.871    637.216    602.725    573.871    573.871
 85.170    621.000    657.427    -36.427    573.618    631.198    599.810    573.618    573.618
 85.270    643.000    648.369     -5.369    573.364    624.884    596.818    573.364    573.364
 85.370    651.000    639.529     11.471    573.109    618.661    593.950    573.109    573.109
 85.470    603.000    631.377    -28.377    572.852    612.829    591.378    572.852    572.852
 85.570    600.000    624.262    -24.262    572.595    607.599    589.239    572.595    572.595
 85.670    625.000    618.411      6.589    572.336    603.091    587.639    572.336    572.336
 85.770    585.101    613.950    -28.848    572.076    599.352    586.658    572.076    572.076
 85.870    601.000    610.917     -9.917    571.814    596.366    586.351    571.814    571.814
 85.970    567.364    609.293    -41.929    571.552    594.078    586.751    571.552    571.552
 86.070    593.000    609.011    -16.011    571.288    592.410    587.873    571.288    571.288
 86.170    576.502    609.979    -33.477    571.023    591.280    589.704    571.023    571.023
 86.270    622.000    612.085      9.915    570.757    590.617    592.205    570.757    570.757
 86.370    636.811    615.204     21.607    570.490    590.372    595.298    570.490    570.490
 86.470    617.000    619.192     -2.192    570.221    590.524    598.862    570.221    570.221
 86.570    581.281    623.889    -42.608    569.952    591.082    602.728    569.952    569.952
 86.670    652.476    629.118     23.359    569.681    592.093    606.671    569.681    569.681
 86.770    627.000    634.682     -7.682    569.409    593.633    610.418    569.409    569.409
 86.870    670.000    640.374     29.626    569.136    595.810    613.655    569.136    569.136
 86.970    678.888    645.998     32.890    568.862    598.753    616.057    568.862    568.862
 87.070    691.332    651.409     39.923    568.587    602.601    617.340    568.587    568.587
 87.170    664.530    656.564      7.965    568.311    607.489    617.325    568.311    568.311
 87.270    650.775    661.552    -10.777    568.034    613.527    615.990    568.034    568.034
 87.370    658.000    666.567     -8.567    567.755    620.774    613.472    567.755    567.755
 87.470    683.000    671.839     11.161    567.476    629.212    610.018    567.476    567.476
 87.570    689.953    677.540     12.414    567.195    638.719    605.921    567.195    567.195
 87.670    711.000    683.709     27.291    566.914    649.051    601.467    566.914    566.914
 87.770    734.000    690.213     43.787    566.631    659.823    596.905    566.631    566.631
 87.870    727.000    696.726     30.274    566.348    670.505    592.444    566.348    566.348
 87.970    712.363    702.744      9.620    566.063    680.431    588.243    566.063    566.063
 88.070    726.000    707.613     18.387    565.777    688.837    584.415    565.777    565.777
 88.170    701.763    710.636     -8.873    565.491    694.959    581.027    565.491    565.491
 88.270    733.000    711.236     21.764    565.203    698.199    578.102    565.203    565.203
 88.370    693.000    709.137    -16.137    564.915    698.292    575.628    564.915    564.915
 88.470    685.000    704.461    -19.461    564.625    695.392    573.573    564.625    564.625
 88.570    683.151    697.682    -14.530    564.335    690.021    571.887    564.335    564.335
 88.670    675.355    689.484    -14.129    564.043    682.916    570.518    564.043    564.043
 88.770    691.000    680.624     10.376    563.751    674.883    569.415    563.751    563.751
 88.870    704.000    671.836     32.164    563.458    666.702    568.530    563.458    563.458
 88.970    627.000    663.784    -36.784    563.163    659.078    567.823    563.163    563.163
 89.070    656.302    657.023     -0.721    562.868    652.597    567.261    562.868    562.868
 89.170    654.742    651.966      2.775    562.573    647.701    566.818    562.573    562.573
 89.270    660.255    648.861     11.394    562.276    644.656    566.472    562.276    562.276
 89.370    687.000    647.775     39.225    561.978    643.552    566.204    561.978    561.978
 89.470    607.000    648.604    -41.604    561.680    644.298    565.998    561.680    561.680
 89.570    668.000    651.076     16.924    561.380    646.641    565.837    561.380    561.380
 89.670    641.460    654.776    -13.316    561.080    650.184    565.703    561.080    561.080
 89.770    683.000    659.168     23.832    560.779    654.408    565.577    560.779    560.779
 89.870    653.000    663.623    -10.623    560.477    658.706    565.440    560.477    560.477
 89.970    680.000    667.463     12.537    560.175    662.420    565.269    560.175    560.175
 90.070    696.000    670.031     25.969    559.871    664.915    565.045    559.871    559.871
 90.170    684.000    670.793     13.207    559.567    665.672    564.750    559.567    559.567
 90.270    667.548    669.441     -1.893    559.262    664.390    564.376    559.262    559.262
 90.370    689.109    665.955     23.154    558.957    661.050    563.925    558.957    558.957
 90.470    700.877    660.587     40.291    558.651    655.892    563.406    558.651    558.651
 90.570    626.534    653.770    -27.236    558.344    649.335    562.836    558.344    558.344
 90.670    599.000    646.016    -47.016    558.036    641.871    562.233    558.036    558.036
 90.770    673.000    637.824     35.176    557.727    633.984    561.615    557.727    557.727
 90.870    615.000    629.638    -14.638    557.418    626.099    560.997    557.418    557.418
 90.970    667.063    621.817     45.246    557.109    618.565    560.394    557.109    557.109
 91.070    633.000    614.629     18.371    556.798    611.641    559.814    556.798    556.798
 91.170    538.000    608.255    -70.255    556.487    605.501    559.263    556.487    556.487
 91.270    587.000    602.795    -15.795    556.176    600.242    558.746    556.176    556.176
 91.370    587.964    598.278    -10.315    555.863    595.892    558.263    555.863    555.863
 91.470    597.000    594.681      2.319    555.551    592.427    557.813    555.551    555.551
 91.570    594.000    591.942      2.058    555.237    589.791    557.394    555.237    555.237
 91.670    611.000    589.986     21.014    554.923    587.908    557.004    554.923    554.923
 91.770    560.000    588.733    -28.733    554.609    586.704    556.639    554.609    554.609
 91.870    568.019    588.120    -20.101    554.294    586.114    556.298    554.294    554.294
 91.970    606.229    588.105     18.124    553.978    586.100    555.980    553.978    553.978
 92.070    589.932    588.678      1.254    553.662    586.652    555.683    553.662    553.662
 92.170    627.000    589.865     37.135    553.345    587.794    555.410    553.345    553.345
 92.270    586.000    591.730     -5.730    553.028    589.588    555.162    553.028    553.028
 92.370    586.000    594.370     -8.370    552.711    592.128    554.943    552.711    552.711
 92.470    570.000    597.915    -27.915    552.393    595.538    554.757    552.393    552.393
 92.570    611.000    602.517      8.483    552.075    599.965    554.610    552.075    552.075
 92.670    600.000    608.341     -8.341    551.756    605.570    554.506    551.756    551.756
 92.770    652.000    615.551     36.449    551.437    612.512    554.451    551.437    551.437
 92.870    641.000    624.296     16.704    551.117    620.936    554.447    551.117    551.117
 92.970    604.000    634.689    -30.689    550.797    630.952    554.498    550.797    550.797
 93.070    633.000    646.778    -13.778    550.477    642.610    554.603    550.477    550.477
 93.170    668.000    660.603      7.397    550.156    655.950    554.760    550.156    550.156
 93.270    668.616    676.078     -7.461    549.835    670.892    554.964    549.835    549.835
 93.370    724.000    693.032     30.968    549.514    687.274    555.208    549.514    549.514
 93.470    693.000    711.208    -18.208    549.192    704.844    555.484    549.192    549.192
 93.570    714.000    730.248    -16.248    548.870    723.256    555.783    548.870    548.870
 93.670    774.000    749.711     24.289    548.548    742.075    556.099    548.548    548.548
 93.770    746.000    769.108    -23.108    548.226    760.813    556.431    548.226    548.226
 93.870    781.922    787.977     -6.056    547.903    779.002    556.784    547.903    547.903
 93.970    843.000    805.995     37.005    547.581    796.297    557.179    547.581    547.581
 94.070    775.122    823.064    -47.942    547.258    812.565    557.657    547.258    547.258
 94.170    788.000    839.347    -51.347    546.935    827.906    558.274    546.935    546.935
 94.270    852.000    855.186     -3.186    546.611    842.593    559.101    546.611    546.611
 94.370    846.000    870.967    -24.967    546.288    856.935    560.216    546.288    546.288
 94.470    887.000    886.984      0.016    545.964    871.154    561.691    545.964    545.964
 94.570    933.056    903.351     29.705    545.641    885.305    563.583    545.641    545.641
 94.670    876.898    920.003    -43.105    545.317    899.290    565.927    545.317    545.317
 94.770    920.000    936.760    -16.760    544.993    912.925    568.725    544.993    544.993
 94.870    977.000    953.411     23.589    544.669    926.036    571.943    544.669    544.669
 94.970    942.381    969.744    -27.363    544.345    938.486    575.504    544.345    544.345
 95.070   1040.084    985.493     54.590    544.021    950.133    579.286    544.021    544.021
 95.170   1043.621   1000.230     43.392    543.697    960.711    583.124    543.697    543.697
 95.270    980.000   1013.263    -33.263    543.373    969.736    586.814    543.373    543.373
 95.370   1079.518   1023.622     55.896    543.050    976.466    590.124    543.050    543.050
 95.470    985.352   1030.121    -44.768    542.726    979.967    592.807    542.726    542.726
 95.570    993.000   1031.545    -38.545    542.402    979.255    594.628    542.402    542.402
 95.670   1033.000   1026.908      6.092    542.078    973.529    595.404    542.078    542.078
 95.770   1029.000   1015.727     13.273    541.755    962.405    595.033    541.755    541.755
 95.870   1010.000    998.208     11.792    541.431    946.084    593.522    541.431    541.431
 95.970    965.000    975.269    -10.269    541.108    925.364    590.988    541.108    541.108
 96.070    970.000    948.353     21.647    540.785    901.499    587.623    540.785    540.785
 96.170    924.000    919.225      4.775    540.462    876.015    583.661    540.462    540.462
 96.270    949.565    889.751     59.814    540.139    850.532    579.351    540.139    540.139
 96.370    891.000    861.758     29.242    539.817    826.647    574.922    539.817    539.817
 96.470    887.017    836.953     50.063    539.495    805.863    570.578    539.495    539.495
 96.570    816.000    816.877     -0.877    539.173    789.556    566.483    539.173    539.173
 96.670    746.065    802.881    -56.817    538.851    778.954    562.764    538.851    538.851
 96.770    833.833    796.118     37.716    538.529    775.125    559.502    538.529    538.529
 96.870    853.490    797.527     55.962    538.208    778.965    556.742    538.208    538.208
 96.970    828.000    807.836     20.164    537.888    791.189    554.496    537.888    537.888
 97.070    845.000    827.539     17.461    537.567    812.306    552.750    537.567    537.567
 97.170    880.000    856.859     23.141    537.247    842.573    551.472    537.247    537.247
 97.270    839.916    895.805    -55.889    536.928    882.040    550.618    536.928    536.928
 97.370    957.000    944.085     12.915    536.608    930.466    550.141    536.608    536.608
 97.470    983.000   1000.973    -17.973    536.290    987.174    549.988    536.290    536.290
 97.570   1028.000   1065.358    -37.358    535.972   1051.112    550.105    535.972    535.972
 97.670   1141.000   1135.672      5.328    535.654   1120.770    550.433    535.654    535.654
 97.770   1200.000   1209.846     -9.846    535.336   1194.138    550.913    535.336    535.336
 97.870   1240.405   1285.293    -44.888    535.020   1268.695    551.479    535.020    535.020
 97.970   1344.360   1358.932    -14.572    534.704   1341.433    552.062    534.704    534.704
 98.070   1453.000   1427.224     25.776    534.388   1408.887    552.586    534.388    534.388
 98.170   1572.000   1486.369     85.631    534.073   1467.334    552.975    534.073    534.073
 98.270   1472.464   1532.626    -60.162    533.759   1513.107    553.155    533.759    533.759
 98.370   1541.000   1562.795    -21.795    533.445   1543.069    553.064    533.445    533.445
 98.470   1612.000   1574.770     37.230    533.132   1555.152    552.661    533.132    533.132
 98.570   1504.941   1567.966    -63.024    532.819   1548.781    551.936    532.819    532.819
 98.670   1538.698   1543.425     -4.727    532.508   1524.977    550.907    532.508    532.508
 98.770   1577.702   1503.569     74.133    532.197   1486.115    549.621    532.197    532.197
 98.870   1468.000   1451.729     16.271    531.886   1435.462    548.138    531.886    531.886
 98.970   1360.716   1391.642    -30.926    531.577   1376.689    546.527    531.577    531.577
 99.070   1308.000   1327.068    -19.068    531.268   1313.489    544.854    531.268    531.268
 99.170   1248.000   1261.537    -13.537    530.960   1249.330    543.179    530.960    530.960
 99.270   1198.000   1198.204     -0.204    530.653   1187.316    541.556    530.653    530.653
 99.370   1151.310   1139.791     11.518    530.347   1130.125    540.027    530.347    530.347
 99.470   1062.000   1088.572    -26.572    530.042   1079.997    538.628    530.042    530.042
 99.570   1052.088   1046.395      5.693    529.737   1038.756    537.382    529.737    529.737
 99.670   1051.000   1014.723     36.277    529.434   1007.850    536.306    529.434    529.434
 99.770   1011.000    994.673     16.327    529.131    988.388    535.408    529.131    529.131
 99.870    995.000    987.039      7.961    528.830    981.164    534.690    528.830    528.830
 99.970    966.000    992.311    -26.311    528.529    986.674    534.145    528.529    528.529
100.070   1036.900   1010.688     26.213    528.230   1005.125    533.763    528.230    528.230
100.170   1044.526   1042.075      2.451    527.932   1036.441    533.531    527.932    527.932
100.270   1114.611   1086.096     28.515    527.634   1080.260    533.430    527.634    527.634
100.370   1140.000   1142.076     -2.076    527.338   1135.931    533.440    527.338    527.338
100.470   1173.780   1209.030    -35.250    527.043   1202.491    533.538    527.043    527.043
100.570   1332.000   1285.629     46.371    526.749   1278.636    533.699    526.749    526.749
100.670   1480.000   1370.168    109.832    526.456   1362.687    533.897    526.456    526.456
100.770   1470.000   1460.538      9.462    526.164   1452.564    534.105    526.164    526.164
100.870   1543.000   1554.212    -11.212    525.874   1545.769    534.294    525.874    525.874
100.970   1683.000   1648.339     34.661    525.585   1639.479    534.435    525.585    525.585
101.070   1770.714   1739.866     30.848    525.297   1730.664    534.504    525.297    525.297
101.170   1877.528   1825.742     51.786    525.010   1816.295    534.481    525.010    525.010
101.270   1859.000   1903.239    -44.239    524.725   1893.655    534.354    524.725    524.725
101.370   1945.000   1970.158    -25.158    524.441   1960.542    534.121    524.441    524.441
101.470   2029.000   2024.881      4.119    524.159   2015.330    533.792    524.159    524.159
101.570   1987.831   2066.247    -78.416    523.878   2056.837    533.387    523.878    523.878
101.670   2171.577   2093.330     78.247    523.598   2084.114    532.930    523.598    523.598
101.770   2141.000   2105.293     35.707    523.320   2096.295    532.448    523.320    523.320
101.870   2091.689   2101.423     -9.735    523.043   2092.642    531.966    523.043    523.043
101.970   2015.000   2081.392    -66.392    522.768   2072.804    531.508    522.768    522.768
102.070   2041.000   2045.630     -4.630    522.494   2037.191    531.091    522.494    522.494
102.170   1964.000   1995.628    -31.628    522.222   1987.282    530.729    522.222    522.222
102.270   1985.893   1933.978     51.915    521.951   1925.660    530.431    521.951    521.951
102.370   1932.949   1864.102     68.847    521.682   1855.742    530.200    521.682    521.682
102.470   1847.674   1789.777     57.896    521.415   1781.312    530.031    521.415    521.415
102.570   1710.000   1714.649     -4.649    521.149   1706.025    529.916    521.149    521.149
102.670   1676.129   1641.856     34.273    520.885   1633.035    529.840    520.885    520.885
102.770   1544.000   1573.842    -29.842    520.623   1564.803    529.784    520.623    520.623
102.870   1477.000   1512.242    -35.242    520.362   1502.987    529.730    520.362    520.362
102.970   1362.000   1457.903    -95.903    520.104   1448.452    529.657    520.104    520.104
103.070   1418.000   1410.923      7.077    519.847   1401.313    529.551    519.847    519.847
103.170   1433.230   1370.716     62.514    519.592   1360.999    529.397    519.592    519.592
103.270   1220.000   1336.107   -116.107    519.338   1326.346    529.182    519.338    519.338
103.370   1272.000   1305.470    -33.470    519.087   1295.739    528.898    519.087    519.087
103.470   1259.000   1276.914    -17.914    518.838   1267.296    528.533    518.838    518.838
103.570   1213.000   1248.534    -35.534    518.590   1239.118    528.083    518.590    518.590
103.670   1205.000   1218.685    -13.685    518.345   1209.563    527.544    518.345    518.345
103.770   1171.380   1186.217    -14.837    518.101   1177.476    526.919    518.101    518.101
103.870   1136.000   1150.598    -14.598    517.860   1142.317    526.217    517.860    517.860
103.970   1072.000   1111.895    -39.895    517.620   1104.138    525.454    517.620    517.620
104.070   1040.390   1070.641    -30.251    517.383   1063.452    524.646    517.383    517.383
104.170   1049.183   1027.651     21.532    517.148   1021.057    523.813    517.148    517.148
104.270    958.000    983.865    -25.865    516.915    977.873    522.974    516.915    516.915
104.370   1000.000    940.226     59.774    516.684    934.829    522.144    516.684    516.684
104.470    913.000    897.610     15.390    516.455    892.786    521.337    516.455    516.455
104.570    899.000    856.788     42.212    516.229    852.505    520.564    516.229    516.229
104.670    865.935    818.395     47.540    516.004    814.613    519.834    516.004    516.004
104.770    809.076    782.923     26.154    515.782    779.597    519.150    515.782    515.782
104.870    754.190    750.712      3.478    515.563    747.794    518.517    515.563    515.563
104.970    748.000    721.949     26.051    515.346    719.393    517.933    515.346    515.346
105.070    765.000    696.670     68.330    515.131    694.433    517.394    515.131    515.131
105.170    702.000    674.865     27.135    514.918    672.894    516.911    514.918    514.918
105.270    687.000    656.346     30.654    514.709    654.598    516.474    514.709    514.709
105.370    670.000    640.881     29.119    514.501    639.316    516.079    514.501    514.501
105.470    638.000    628.192      9.808    514.296    626.777    515.721    514.296    514.296
105.570    666.000    617.987     48.013    514.094    616.691    515.397    514.094    514.094
105.670    620.000    609.972     10.028    513.894    608.768    515.102    513.894    513.894
105.770    617.849    603.874     13.975    513.697    602.739    514.834    513.697    513.697
105.870    647.552    599.450     48.102    513.502    598.363    514.588    513.502    513.502
105.970    598.548    596.496      2.052    513.310    595.440    514.363    513.310    513.310
106.070    612.000    594.850     17.150    513.121    593.809    514.156    513.121    513.121
106.170    603.194    594.391      8.803    512.934    593.352    513.967    512.934    512.934
106.270    619.000    595.040     23.960    512.751    593.988    513.793    512.751    512.751
106.370    583.000    596.749    -13.749    512.570    595.672    513.635    512.570    512.570
106.470    629.961    599.499     30.462    512.392    598.385    513.492    512.392    512.392
106.570    629.082    603.291     25.791    512.216    602.126    513.364    512.216    512.216
106.670    623.000    608.139     14.861    512.044    606.910    513.252    512.044    512.044
106.770    590.528    614.062    -23.533    511.874    612.757    513.156    511.874    511.874
106.870    656.728    621.075     35.652    511.708    619.681    513.076    511.708    511.708
106.970    599.117    629.184    -30.067    511.545    627.686    513.012    511.545    511.545
107.070    611.000    638.370    -27.370    511.384    636.756    512.964    511.384    511.384
107.170    666.687    648.584     18.104    511.227    646.841    512.932    511.227    511.227
107.270    665.000    659.734      5.266    511.072    657.852    512.913    511.072    511.072
107.370    669.000    671.686     -2.686    510.921    669.656    512.906    510.921    510.921
107.470    668.000    684.251    -16.251    510.773    682.066    512.909    510.773    510.773
107.570    675.000    697.191    -22.191    510.628    694.850    512.918    510.628    510.628
107.670    781.000    710.220     70.780    510.487    707.723    512.929    510.487    510.487
107.770    715.000    723.006     -8.006    510.348    720.359    512.938    510.348    510.348
107.870    726.000    735.182     -9.182    510.213    732.396    512.940    510.213    510.213
107.970    745.000    746.366     -1.366    510.082    743.459    512.929    510.082    510.082
108.070    731.000    756.184    -25.184    509.953    753.178    512.900    509.953    509.953
108.170    744.000    764.311    -20.311    509.829    761.233    512.848    509.829    509.829
108.270    813.847    770.516     43.331    509.707    767.397    512.769    509.707    509.707
108.370    778.000    774.702      3.298    509.589    771.575    512.662    509.589    509.589
108.470    776.551    776.930     -0.379    509.475    773.828    512.527    509.475    509.475
108.570    749.000    777.423    -28.423    509.364    774.376    512.365    509.364    509.364
108.670    749.067    776.530    -27.462    509.256    773.564    512.180    509.256    509.256
108.770    733.950    774.677    -40.727    509.152    771.814    511.978    509.152    509.152
108.870    726.000    772.319    -46.319    509.052    769.574    511.764    509.052    509.052
108.970    783.695    769.885     13.811    508.956    767.267    511.544    508.956    508.956
109.070    783.000    767.744     15.256    508.863    765.259    511.323    508.863    508.863
109.170    731.000    766.183    -35.183    508.774    763.830    511.106    508.774    508.774
109.270    728.137    765.391    -37.254    508.689    763.166    510.896    508.689    508.689
109.370    744.000    765.449    -21.449    508.608    763.346    510.697    508.608    508.608
109.470    780.000    766.330     13.670    508.530    764.340    510.510    508.530    508.530
109.570    701.000    767.899    -66.899    508.457    766.011    510.338    508.457    508.457
109.670    725.000    769.918    -44.918    508.387    768.122    510.179    508.387    508.387
109.770    727.422    772.058    -44.636    508.321    770.345    510.034    508.321    508.321
109.870    726.778    773.922    -47.143    508.260    772.283    509.902    508.260    508.260
109.970    781.724    775.070      6.654    508.202    773.498    509.780    508.202    508.202
110.070    800.740    775.070     25.671    508.149    773.559    509.668    508.149    508.149
110.170    803.000    773.541     29.459    508.099    772.089    509.563    508.099    508.099
110.270    739.000    770.204    -31.204    508.054    768.815    509.457    508.054    508.054
110.370    731.000    764.941    -33.941    508.013    763.613    509.356    508.013    508.013
110.470    732.000    757.788    -25.788    507.976    756.517    509.265    507.976    507.976
110.570    753.736    748.913      4.823    507.944    747.696    509.178    507.944    507.944
110.670    716.307    738.594    -22.287    507.916    737.432    509.095    507.916    507.916
110.770    728.000    727.175      0.825    507.892    726.068    509.016    507.892    507.892
110.870    772.000    715.023     56.977    507.873    713.970    508.942    507.873    507.873
110.970    683.000    702.496    -19.496    507.858    701.496    508.874    507.858    507.858
111.070    667.000    689.940    -22.940    507.847    688.989    508.812    507.847    507.847
111.170    676.463    677.657     -1.193    507.841    676.752    508.758    507.841    507.841
111.270    644.000    665.898    -21.898    507.840    665.037    508.712    507.840    507.840
111.370    657.955    654.874      3.081    507.843    654.051    508.675    507.843    507.843
111.470    614.000    644.748    -30.748    507.851    643.959    508.647    507.851    507.851
111.570    613.000    635.636    -22.636    507.863    634.877    508.628    507.863    507.863
111.670    602.178    627.612    -25.434    507.881    626.878    508.618    507.881    507.881
111.770    645.000    620.707     24.293    507.903    619.993    508.618    507.903    507.903
111.870    640.920    614.917     26.003    507.929    614.220    508.627    507.929    507.929
111.970    605.000    610.209     -5.209    507.961    609.523    508.645    507.961    507.961
112.070    624.000    606.526     17.474    507.997    605.847    508.672    507.997    507.997
112.170    647.025    603.792     43.233    508.039    603.118    508.708    508.039    508.039
112.270    588.249    601.923    -13.674    508.085    601.249    508.752    508.085    508.085
112.370    612.224    600.827     11.397    508.137    600.151    508.804    508.137    508.137
112.470    633.000    600.412     32.588    508.193    599.732    508.864    508.193    508.193
112.570    624.225    600.590     23.636    508.254    599.905    508.930    508.254    508.254
112.670    638.000    601.279     36.721    508.321    600.587    509.002    508.321    508.321
112.770    583.883    602.406    -18.523    508.393    601.707    509.081    508.393    508.393
112.870    598.723    603.910     -5.187    508.470    603.202    509.165    508.470    508.470
112.970    576.936    605.740    -28.804    508.552    605.024    509.255    508.552    508.552
113.070    623.000    607.860     15.140    508.639    607.137    509.350    508.639    508.639
113.170    601.000    610.251     -9.251    508.732    609.519    509.450    508.732    508.732
113.270    560.000    612.905    -52.905    508.830    612.165    509.556    508.830    508.830
113.370    624.000    615.833      8.167    508.934    615.084    509.668    508.934    508.934
113.470    626.000    619.059      6.941    509.043    618.301    509.786    509.043    509.043
113.570    580.459    622.628    -42.169    509.158    621.859    509.911    509.158    509.158
113.670    603.000    626.597    -23.597    509.278    625.816    510.043    509.278    509.278
113.770    676.490    631.050     45.440    509.403    630.253    510.184    509.403    509.403
113.870    630.802    636.092     -5.290    509.535    635.276    510.334    509.535    509.535
113.970    654.000    641.860     12.140    509.672    641.020    510.494    509.672    509.672
114.070    643.000    648.531     -5.531    509.814    647.661    510.665    509.814    509.814
114.170    642.000    656.328    -14.328    509.963    655.422    510.848    509.963    509.963
114.270    625.000    665.538    -40.538    510.117    664.586    511.046    510.117    510.117
114.370    719.365    676.518     42.847    510.277    675.510    511.259    510.277    510.277
114.470    721.000    689.717     31.283    510.443    688.641    511.490    510.443    510.443
114.570    732.695    705.688     27.007    510.615    704.530    511.740    510.615    510.615
114.670    685.000    725.110    -40.110    510.793    723.853    512.010    510.793    510.793
114.770    727.000    748.803    -21.803    510.977    747.429    512.304    510.977    510.977
114.870    829.000    777.746     51.254    511.167    776.234    512.623    511.167    511.167
114.970    896.000    813.091     82.909    511.364    811.418    512.969    511.364    511.364
115.070    801.000    856.174    -55.174    511.566    854.314    513.345    511.566    511.566
115.170    835.000    908.517    -73.517    511.775    906.441    513.754    511.775    511.775
115.270   1001.000    971.822     29.178    511.989    969.500    514.196    511.989    511.989
115.370    985.000   1047.959    -62.959    512.210   1045.357    514.674    512.210    512.210
115.470   1097.000   1138.930    -41.930    512.438   1136.014    515.190    512.438    512.438
115.570   1252.000   1246.830      5.170    512.672   1243.562    515.744    512.672    512.672
115.670   1310.465   1373.780    -63.314    512.912   1370.123    516.339    512.912    512.912
115.770   1460.000   1521.853    -61.853    513.159   1517.769    516.974    513.159    513.159
115.870   1728.412   1692.980     35.432    513.412   1688.432    517.649    513.412    513.412
115.970   1920.795   1888.837     31.958    513.672   1883.787    518.362    513.672    513.672
116.070   2157.000   2110.727     46.273    513.939   2105.143    519.113    513.939    513.939
116.170   2376.912   2359.455     17.456    514.212   2353.306    519.899    514.212    514.212
116.270   2673.000   2635.200     37.800    514.492   2628.459    520.715    514.492    514.492
116.370   2870.070   2937.393    -67.324    514.778   2930.042    521.558    514.778    514.778
116.470   3204.000   3264.613    -60.613    515.072   3256.638    522.420    515.072    515.072
116.570   3579.000   3614.484    -35.484    515.372   3605.881    523.297    515.372    515.372
116.670   3851.000   3983.613   -132.613    515.680   3974.387    524.179    515.680    515.680
116.770   4261.000   4367.689   -106.689    515.994   4357.851    525.063    515.994    515.994
116.870   4747.805   4761.237    -13.432    516.315   4750.809    525.940    516.315    516.315
116.970   5185.536   5157.822     27.714    516.643   5146.833    526.804    516.643    516.643
117.070   5371.000   5550.088   -179.088    516.979   5538.574    527.650    516.979    516.979
117.170   5798.000   5929.863   -131.863    517.321   5917.869    528.473    517.321    517.321
117.270   6365.000   6288.327     76.673    517.671   6275.904    529.265    517.671    517.671
117.370   6753.207   6616.247    136.960    518.028   6603.452    530.024    518.028    518.028
117.470   6887.000   6904.306    -17.306    518.392   6891.203    530.742    518.392    518.392
117.570   7142.000   7143.551     -1.551    518.764   7130.209    531.415    518.764    518.764
117.670   7380.000   7325.951     54.049    519.143   7312.443    532.036    519.143    519.143
117.770   7387.687   7445.018    -57.331    519.529   7431.422    532.601    519.529    519.529
117.870   7499.000   7496.414      2.586    519.923   7482.805    533.106    519.923    519.923
117.970   7541.000   7478.396     62.604    520.325   7464.850    533.549    520.325    520.325
118.070   7240.073   7392.013   -151.940    520.734   7378.602    533.930    520.734    520.734
118.170   7300.000   7240.980     59.020    521.151   7227.769    534.250    521.151    521.151
118.270   7046.867   7031.273     15.594    521.575   7018.321    534.511    521.575    521.575
118.370   6871.218   6770.548    100.670    522.007   6757.907    534.718    522.007    522.007
118.470   6491.276   6467.510     23.766    522.447   6455.228    534.874    522.447    522.447
118.570   5980.000   6131.336   -151.336    522.895   6119.451    534.985    522.895    522.895
118.670   5720.000   5771.194    -51.194    523.351   5759.742    535.056    523.351    523.351
118.770   5513.356   5395.893    117.462    523.815   5384.903    535.093    523.815    523.815
118.870   4931.000   5013.622    -82.622    524.286   5003.118    535.101    524.286    524.286
118.970   4737.998   4631.772    106.226    524.766   4621.771    535.088    524.766    524.766
119.070   4369.000   4256.815    112.185    525.254   4247.328    535.062    525.254    525.254
119.170   3982.000   3894.229     87.771    525.750   3885.262    535.031    525.750    525.750
119.270   3785.000   3548.464    236.536    526.254   3540.014    535.002    526.254    526.254
119.370   3304.000   3222.944     81.056    526.767   3215.002    534.985    526.767    526.767
119.470   2979.079   2920.106     58.973    527.288   2912.659    534.986    527.288    527.288
119.570   2713.000   2641.474     71.526    527.817   2634.501    535.013    527.817    527.817
119.670   2329.951   2387.752    -57.801    528.355   2381.228    535.073    528.355    528.355
119.770   2169.000   2158.940     10.060    528.901   2152.835    535.170    528.901    528.901
119.870   2034.000   1954.452     79.548    529.455   1948.734    535.310    529.455    529.455
119.970   1768.000   1773.243     -5.243    530.018   1767.875    535.496    530.018    530.018
120.070   1636.015   1613.918     22.097    530.590   1608.861    535.732    530.590    530.590
120.170   1559.000   1474.839     84.161    531.171   1470.052    536.021    531.171    531.171
120.270   1391.000   1354.224     36.776    531.760   1349.664    536.365    531.760    531.760
120.370   1307.000   1250.225     56.775    532.358   1245.847    536.765    532.358    532.358
120.470   1160.000   1161.001     -1.001    532.965   1156.759    537.222    532.965    532.965
120.570   1059.622   1084.772    -25.151    533.581   1080.620    537.739    533.581    533.581
120.670   1037.000   1019.867     17.133    534.206   1015.754    538.315    534.206    534.206
120.770    988.616    964.745     23.871    534.839    960.625    538.952    534.839    534.839
120.870    913.000    918.025     -5.025    535.482    913.846    539.650    535.482    535.482
120.970    897.000    878.482     18.518    536.134    874.192    540.410    536.134    536.134
121.070    867.156    845.050     22.106    536.795    840.598    541.232    536.795    536.795
121.170    793.000    816.818    -23.818    537.466    812.150    542.118    537.466    537.466
121.270    827.679    793.011     34.668    538.145    788.072    543.070    538.145    538.145
121.370    775.000    772.980      2.020    538.834    767.712    544.088    538.834    538.834
121.470    794.000    756.185     37.815    539.533    750.531    545.175    539.533    539.533
121.570    780.000    742.180     37.820    540.241    736.079    546.332    540.241    540.241
121.670    708.024    730.598    -22.574    540.958    723.986    547.561    540.958    540.958
121.770    696.000    721.136    -25.136    541.685    713.949    548.864    541.685    541.685
121.870    710.549    713.546     -2.996    542.421    705.717    550.244    542.421    542.421
121.970    688.000    707.622    -19.622    543.168    699.083    551.702    543.168    543.168
122.070    704.851    703.193      1.658    543.924    693.873    553.241    543.924    543.924
122.170    734.529    700.115     34.415    544.689    689.941    554.862    544.689    544.689
122.270    662.000    698.263    -36.263    545.465    687.161    556.567    545.465    545.465
122.370    673.926    697.531    -23.605    546.251    685.425    558.357    546.251    546.251
122.470    693.000    697.819     -4.819    547.046    684.634    560.234    547.046    547.046
122.570    669.000    699.038    -30.038    547.852    684.698    562.196    547.852    547.852
122.670    713.000    701.102     11.898    548.667    685.532    564.243    548.667    548.667
122.770    685.000    703.925    -18.925    549.493    687.054    566.372    549.493    549.493
122.870    683.209    707.421    -24.211    550.329    689.180    568.578    550.329    550.329
122.970    722.624    711.498     11.126    551.175    691.830    570.855    551.175    551.175
123.070    720.000    716.062      3.938    552.032    694.916    573.192    552.032    552.032
123.170    760.102    721.013     39.090    552.899    698.349    575.577    552.899    552.899
123.270    723.000    726.241     -3.241    553.776    702.038    577.997    553.776    553.776
123.370    699.000    731.632    -32.632    554.664    705.883    580.433    554.664    554.664
123.470    716.000    737.063    -21.063    555.562    709.783    582.864    555.562    555.562
123.570    771.049    742.406     28.642    556.471    713.633    585.270    556.471    556.471
123.670    775.000    747.528     27.472    557.391    717.322    587.624    557.391    557.391
123.770    775.616    752.293     23.322    558.321    720.743    589.901    558.321    558.321
123.870    734.000    756.567    -22.567    559.262    723.787    592.075    559.262    559.262
123.970    791.123    760.222     30.901    560.214    726.352    594.119    560.214    560.214
124.070    778.000    763.127     14.873    561.177    728.333    596.008    561.177    561.177
124.170    734.000    765.187    -31.187    562.151    729.655    597.722    562.151    562.151
124.270    778.000    766.371     11.629    563.136    730.303    599.245    563.136    563.136
124.370    789.000    766.608     22.392    564.132    730.220    600.563    564.132    564.132
124.470    811.000    765.883     45.117    565.139    729.393    601.672    565.139    565.139
124.570    781.000    764.209     16.791    566.158    727.839    602.571    566.158    566.158
124.670    740.602    761.629    -21.026    567.188    725.594    603.266    567.188    567.188
124.770    805.000    758.205     46.795    568.229    722.712    603.765    568.229    568.229
124.870    851.000    754.019     96.981    569.281    719.261    604.082    569.281    569.281
124.970    758.000    749.161      8.839    570.345    715.316    604.233    570.345    570.345
