neutron_powder_diffraction_0230
R_wp: 3.874
Temperature (K): 1065.300
Counts: 83811.00
Wavelength (Ã…): 2.52098
COMMENTS
Test file for demonstrating the .xyy file format in Reel1.0
END OF HEADER
   tth       Y_obs     Y_calc      Y_res    Background    Phase_1_Nuc    Phase_1_Mag    Phase_2_Nuc    Phase_2_Mag
  9.970    616.240    576.966     39.274    576.338    576.937    576.338    576.367    576.338
 10.070    603.000    577.037     25.963    576.338    577.007    576.338    576.368    576.338
 10.170    563.951    577.097    -13.147    576.334    577.067    576.334    576.364    576.334
 10.270    587.000    577.159      9.841    576.324    577.128    576.324    576.354    576.324
 10.370    576.000    577.226     -1.226    576.310    577.196    576.310    576.340    576.310
 10.470    614.917    577.304     37.613    576.291    577.272    576.291    576.323    576.291
 10.570    590.000    577.394     12.606    576.267    577.361    576.267    576.300    576.267
 10.670    609.000    577.501     31.499    576.238    577.468    576.238    576.271    576.238
 10.770    585.000    577.631      7.369    576.205    577.597    576.205    576.238    576.205
 10.870    571.000    577.793     -6.793    576.167    577.759    576.167    576.200    576.167
 10.970    587.000    577.998      9.002    576.124    577.963    576.124    576.159    576.124
 11.070    614.140    578.263     35.878    576.077    578.227    576.077    576.112    576.077
 11.170    569.044    578.612     -9.568    576.025    578.575    576.025    576.061    576.025
 11.270    569.000    579.092    -10.092    575.969    579.044    575.969    576.016    575.969
 11.370    600.000    579.748     20.252    575.908    579.697    575.908    575.957    575.908
 11.470    579.000    580.723     -1.723    575.843    580.671    575.843    575.892    575.843
 11.570    572.643    582.405     -9.762    575.773    582.352    575.773    575.823    575.773
 11.670    563.666    585.912    -22.246    575.700    585.857    575.700    575.749    575.700
 11.770    559.300    593.929    -34.629    575.622    593.868    575.622    575.672    575.622
 11.870    664.000    610.924     53.076    575.539    610.854    575.539    575.590    575.539
 11.970    691.000    640.566     50.434    575.453    640.478    575.453    575.503    575.453
 12.070    702.000    679.253     22.747    575.362    679.142    575.362    575.414    575.362
 12.170    673.480    710.104    -36.624    575.268    709.969    575.268    575.325    575.268
 12.270    669.568    711.472    -41.904    575.169    711.335    575.169    575.227    575.169
 12.370    631.164    682.029    -50.865    575.066    681.909    575.066    575.125    575.066
 12.470    598.970    642.869    -43.899    574.960    642.771    574.960    575.019    574.960
 12.570    548.000    612.009    -64.009    574.849    611.929    574.849    574.908    574.849
 12.670    635.000    593.933     41.067    574.735    593.863    574.735    574.794    574.735
 12.770    558.000    585.231    -27.231    574.617    585.165    574.617    574.677    574.617
 12.870    626.000    581.324     44.676    574.495    581.260    574.495    574.555    574.495
 12.970    576.000    579.373     -3.373    574.369    579.310    574.369    574.430    574.369
 13.070    561.000    578.173    -17.173    574.240    578.111    574.240    574.301    574.240
 13.170    578.344    577.311      1.034    574.107    577.248    574.107    574.168    574.107
 13.270    596.037    576.640     19.397    573.971    576.577    573.971    574.032    573.971
 13.370    540.000    576.094    -36.094    573.830    576.031    573.830    573.892    573.830
 13.470    561.000    575.636    -14.636    573.687    575.573    573.687    573.749    573.687
 13.570    573.406    575.239     -1.834    573.540    575.176    573.540    573.602    573.540
 13.670    587.698    574.889     12.809    573.389    574.825    573.389    573.452    573.389
 13.770    575.000    574.572      0.428    573.235    574.508    573.235    573.298    573.235
 13.870    577.000    574.280      2.720    573.078    574.216    573.078    573.141    573.078
 13.970    606.208    574.007     32.201    572.917    573.943    572.917    572.981    572.917
 14.070    558.936    573.749    -14.813    572.754    573.684    572.754    572.818    572.754
 14.170    616.557    573.504     43.052    572.586    573.436    572.586    572.654    572.586
 14.270    577.000    573.266      3.734    572.416    573.197    572.416    572.485    572.416
 14.370    547.000    573.034    -26.034    572.243    572.964    572.243    572.313    572.243
 14.470    550.000    572.807    -22.807    572.066    572.736    572.066    572.137    572.066
 14.570    551.000    572.583    -21.583    571.887    572.511    571.887    571.958    571.887
 14.670    583.000    572.361     10.639    571.704    572.289    571.704    571.776    571.704
 14.770    601.654    572.142     29.512    571.519    572.069    571.519    571.591    571.519
 14.870    550.000    571.926    -21.926    571.330    571.853    571.330    571.403    571.330
 14.970    543.000    571.709    -28.709    571.139    571.636    571.139    571.212    571.139
 15.070    553.797    571.491    -17.694    570.944    571.418    570.944    571.018    570.944
 15.170    571.000    571.273     -0.273    570.747    571.199    570.747    570.821    570.747
 15.270    559.000    571.054    -12.054    570.547    570.980    570.547    570.621    570.547
 15.370    539.371    570.835    -31.464    570.344    570.760    570.344    570.419    570.344
 15.470    544.000    570.614    -26.614    570.139    570.539    570.139    570.214    570.139
 15.570    545.000    570.393    -25.393    569.931    570.317    569.931    570.006    569.931
 15.670    547.000    570.170    -23.170    569.720    570.094    569.720    569.796    569.720
 15.770    584.476    569.946     14.531    569.507    569.869    569.507    569.583    569.507
 15.870    596.000    569.720     26.280    569.291    569.643    569.291    569.368    569.291
 15.970    563.000    569.493     -6.493    569.073    569.415    569.073    569.150    569.073
 16.070    559.000    569.264    -10.264    568.852    569.186    568.852    568.929    568.852
 16.170    555.000    569.034    -14.034    568.628    568.955    568.628    568.707    568.628
 16.270    602.585    568.802     33.783    568.402    568.723    568.402    568.481    568.402
 16.370    598.000    568.568     29.432    568.174    568.489    568.174    568.253    568.174
 16.470    609.697    568.333     41.365    567.944    568.253    567.944    568.023    567.944
 16.570    550.000    568.096    -18.096    567.711    568.015    567.711    567.791    567.711
 16.670    530.000    567.859    -37.859    567.476    567.776    567.476    567.558    567.476
 16.770    564.000    567.621     -3.621    567.238    567.537    567.238    567.321    567.238
 16.870    576.000    567.379      8.621    566.999    567.295    566.999    567.082    566.999
 16.970    549.000    567.135    -18.135    566.757    567.050    566.757    566.841    566.757
 17.070    560.000    566.889     -6.889    566.513    566.804    566.513    566.598    566.513
 17.170    588.000    566.641     21.359    566.267    566.556    566.267    566.352    566.267
 17.270    534.921    566.392    -31.471    566.019    566.306    566.019    566.105    566.019
 17.370    559.000    566.141     -7.141    565.769    566.055    565.769    565.855    565.769
 17.470    547.934    565.889    -17.954    565.517    565.802    565.517    565.604    565.517
 17.570    610.675    565.635     45.040    565.263    565.547    565.263    565.350    565.263
 17.670    530.929    565.381    -34.453    565.007    565.293    565.007    565.095    565.007
 17.770    528.000    565.125    -37.125    564.749    565.036    564.749    564.838    564.749
 17.870    597.994    564.866     33.128    564.489    564.777    564.489    564.579    564.489
 17.970    553.803    564.606    -10.803    564.227    564.516    564.227    564.318    564.227
 18.070    528.000    564.344    -36.344    563.964    564.253    563.964    564.055    563.964
 18.170    543.900    564.080    -20.181    563.699    563.989    563.699    563.790    563.699
 18.270    535.000    563.816    -28.816    563.432    563.723    563.432    563.524    563.432
 18.370    533.000    563.549    -30.549    563.163    563.456    563.163    563.256    563.163
 18.470    536.066    563.282    -27.216    562.893    563.188    562.893    562.987    562.893
 18.570    603.000    563.012     39.988    562.621    562.918    562.621    562.715    562.621
 18.670    576.000    562.742     13.258    562.348    562.647    562.348    562.443    562.348
 18.770    549.260    562.475    -13.216    562.072    562.375    562.072    562.173    562.072
 18.870    554.000    562.205     -8.205    561.796    562.101    561.796    561.899    561.796
 18.970    554.000    561.931     -7.931    561.518    561.826    561.518    561.622    561.518
 19.070    541.000    561.655    -20.655    561.238    561.550    561.238    561.343    561.238
 19.170    579.000    561.379     17.621    560.957    561.272    560.957    561.063    560.957
 19.270    552.000    561.101     -9.101    560.674    560.994    560.674    560.782    560.674
 19.370    570.000    560.822      9.178    560.390    560.714    560.390    560.498    560.390
 19.470    574.000    560.543     13.457    560.105    560.434    560.105    560.214    560.105
 19.570    590.000    560.263     29.737    559.819    560.153    559.819    559.928    559.819
 19.670    549.000    559.982    -10.982    559.531    559.871    559.531    559.641    559.531
 19.770    595.000    559.700     35.300    559.241    559.589    559.241    559.353    559.241
 19.870    583.550    559.417     24.133    558.951    559.304    558.951    559.064    558.951
 19.970    536.000    559.133    -23.133    558.659    559.019    558.659    558.773    558.659
 20.070    515.000    558.848    -43.848    558.367    558.733    558.367    558.481    558.367
 20.170    564.084    558.562      5.521    558.073    558.446    558.073    558.188    558.073
 20.270    542.692    558.277    -15.585    557.778    558.160    557.778    557.894    557.778
 20.370    560.000    558.002      1.998    557.481    557.884    557.481    557.599    557.481
 20.470    588.000    557.726     30.274    557.184    557.607    557.184    557.303    557.184
 20.570    529.000    557.439    -28.439    556.886    557.319    556.886    557.006    556.886
 20.670    528.000    557.150    -29.150    556.587    557.029    556.587    556.708    556.587
 20.770    536.000    556.862    -20.862    556.286    556.739    556.286    556.409    556.286
 20.870    553.000    556.573     -3.573    555.985    556.449    555.985    556.109    555.985
 20.970    519.000    556.284    -37.284    555.683    556.159    555.683    555.808    555.683
 21.070    561.000    555.995      5.005    555.380    555.869    555.380    555.506    555.380
 21.170    576.378    555.706     20.672    555.076    555.578    555.076    555.204    555.076
 21.270    509.000    555.417    -46.417    554.771    555.288    554.771    554.900    554.771
 21.370    493.000    555.128    -62.128    554.466    554.998    554.466    554.596    554.466
 21.470    551.000    554.840     -3.840    554.159    554.708    554.159    554.291    554.159
 21.570    547.640    554.552     -6.912    553.852    554.419    553.852    553.985    553.852
 21.670    575.197    554.265     20.932    553.544    554.131    553.544    553.679    553.544
 21.770    574.310    553.979     20.331    553.236    553.843    553.236    553.372    553.236
 21.870    528.000    553.694    -25.694    552.926    553.556    552.926    553.064    552.926
 21.970    507.000    553.410    -46.410    552.616    553.271    552.616    552.756    552.616
 22.070    537.000    553.128    -16.128    552.306    552.987    552.306    552.447    552.306
 22.170    506.000    552.850    -46.850    551.994    552.707    551.994    552.138    551.994
 22.270    544.000    552.592     -8.592    551.683    552.447    551.683    551.828    551.683
 22.370    584.035    552.353     31.682    551.370    552.206    551.370    551.517    551.370
 22.470    578.000    552.158     25.842    551.057    552.009    551.057    551.207    551.057
 22.570    570.000    551.920     18.080    550.744    551.769    550.744    550.895    550.744
 22.670    570.371    551.665     18.706    550.430    551.511    550.430    550.584    550.430
 22.770    576.282    551.453     24.829    550.116    551.296    550.116    550.274    550.116
 22.870    532.000    551.227    -19.227    549.801    551.066    549.801    549.962    549.801
 22.970    567.000    550.992     16.008    549.486    550.829    549.486    549.650    549.486
 23.070    568.000    550.763     17.237    549.170    550.597    549.170    549.336    549.170
 23.170    533.000    550.547    -17.547    548.854    550.378    548.854    549.023    548.854
 23.270    588.864    550.347     38.517    548.538    550.176    548.538    548.710    548.538
 23.370    553.000    550.168      2.832    548.222    549.995    548.222    548.396    548.222
 23.470    542.680    550.017     -7.337    547.905    549.841    547.905    548.082    547.905
 23.570    518.849    549.902    -31.052    547.587    549.722    547.587    547.768    547.587
 23.670    572.322    549.835     22.487    547.270    549.653    547.270    547.453    547.270
 23.770    507.613    549.835    -42.222    546.952    549.649    546.952    547.139    546.952
 23.870    559.000    549.929      9.071    546.635    549.741    546.635    546.825    546.635
 23.970    566.000    550.170     15.830    546.317    549.978    546.317    546.510    546.317
 24.070    601.000    550.677     50.323    545.998    550.482    545.998    546.196    545.998
 24.170    585.654    551.797     33.856    545.680    551.599    545.680    545.882    545.680
 24.270    591.000    554.468     36.532    545.362    554.267    545.362    545.567    545.362
 24.370    528.117    560.726    -32.609    545.043    560.526    545.043    545.253    545.043
 24.470    556.000    573.497    -17.497    544.725    573.301    544.725    544.939    544.725
 24.570    550.828    594.384    -43.555    544.406    594.198    544.406    544.626    544.406
 24.670    661.498    619.466     42.033    544.087    619.293    544.087    544.312    544.087
 24.770    594.000    636.494    -42.494    543.769    636.328    543.769    543.999    543.769
 24.870    629.985    632.970     -2.985    543.450    632.796    543.450    543.686    543.450
 24.970    615.396    611.747      3.649    543.131    611.552    543.131    543.373    543.131
 25.070    577.000    586.595     -9.595    542.813    586.376    542.813    543.061    542.813
 25.170    583.000    567.394     15.606    542.494    567.155    542.494    542.750    542.494
 25.270    517.480    556.135    -38.655    542.176    555.881    542.176    542.439    542.176
 25.370    527.000    550.564    -23.564    541.858    550.298    541.858    542.128    541.858
 25.470    563.876    547.925     15.951    541.540    547.649    541.540    541.818    541.540
 25.570    501.708    546.509    -44.801    541.222    546.224    541.222    541.509    541.222
 25.670    560.000    545.576     14.424    540.904    545.281    540.904    541.201    540.904
 25.770    581.664    544.875     36.789    540.586    544.569    540.586    540.893    540.586
 25.870    551.000    544.316      6.684    540.269    543.999    540.269    540.587    540.269
 25.970    568.000    543.855     24.145    539.952    543.525    539.952    540.282    539.952
 26.070    604.000    543.470     60.530    539.635    543.128    539.635    539.977    539.635
 26.170    542.000    543.146     -1.146    539.318    542.790    539.318    539.675    539.318
 26.270    581.000    542.872     38.128    539.002    542.501    539.002    539.373    539.002
 26.370    585.000    542.647     42.353    538.686    542.260    538.686    539.073    538.686
 26.470    564.000    542.471     21.529    538.370    542.066    538.370    538.775    538.370
 26.570    552.415    542.348     10.067    538.055    541.923    538.055    538.480    538.055
 26.670    503.517    542.304    -38.787    537.740    541.858    537.740    538.186    537.740
 26.770    549.000    542.325      6.675    537.425    541.855    537.425    537.895    537.425
 26.870    521.294    542.399    -21.105    537.111    541.904    537.111    537.606    537.111
 26.970    525.000    542.565    -17.565    536.797    542.041    536.797    537.321    536.797
 27.070    559.000    542.851     16.149    536.484    542.295    536.484    537.040    536.484
 27.170    550.000    543.294      6.706    536.171    542.702    536.171    536.762    536.171
 27.270    563.224    543.948     19.275    535.859    543.317    535.859    536.490    535.859
 27.370    524.219    544.901    -20.682    535.547    544.225    535.547    536.223    535.547
 27.470    580.000    546.309     33.691    535.236    545.581    535.236    535.962    535.236
 27.570    528.000    548.564    -20.564    534.925    547.777    534.925    535.709    534.925
 27.670    527.433    553.046    -25.613    534.615    552.192    534.615    535.465    534.615
 27.770    598.000    564.281     33.719    534.305    563.346    534.305    535.232    534.305
 27.870    579.000    593.873    -14.873    533.996    592.839    533.996    535.011    533.996
 27.970    657.512    659.825     -2.313    533.687    658.665    533.687    534.807    533.687
 28.070    767.000    770.281     -3.281    533.379    768.967    533.379    534.622    533.379
 28.170    917.000    894.538     22.462    533.072    893.049    533.072    534.460    533.072
 28.270    905.000    957.041    -52.041    532.765    955.377    532.765    534.330    532.765
 28.370    917.000    906.713     10.287    532.459    904.871    532.459    534.238    532.459
 28.470    747.941    795.624    -47.684    532.153    793.553    532.153    534.198    532.153
 28.570    763.000    708.650     54.350    531.849    706.255    531.849    534.231    531.849
 28.670    715.000    690.285     24.715    531.545    687.445    531.545    534.369    531.545
 28.770    746.000    736.591      9.409    531.241    733.136    531.241    534.675    531.241
 28.870    781.689    807.623    -25.935    530.939    803.289    530.939    535.258    530.939
 28.970    870.000    842.324     27.676    530.637    836.657    530.637    536.304    530.637
 29.070    796.000    803.534     -7.534    530.336    795.798    530.336    538.083    530.336
 29.170    733.000    722.713     10.287    530.036    711.837    530.036    540.924    530.036
 29.270    622.000    649.008    -27.008    529.736    633.631    529.736    545.120    529.736
 29.370    649.000    604.500     44.500    529.437    583.203    529.437    550.739    529.437
 29.470    633.394    586.145     47.249    529.139    558.011    529.139    557.276    529.139
 29.570    558.000    581.479    -23.479    528.842    547.158    528.842    563.164    528.842
 29.670    627.000    579.620     47.380    528.546    542.354    528.546    565.812    528.546
 29.770    565.000    575.066    -10.066    528.251    539.762    528.251    563.555    528.251
 29.870    560.000    567.687     -7.687    527.956    538.066    527.956    557.577    527.956
 29.970    568.000    559.652      8.348    527.663    536.865    527.663    550.448    527.663
 30.070    573.467    552.644     20.824    527.370    536.032    527.370    543.981    527.370
 30.170    553.000    547.335      5.665    527.078    535.537    527.078    538.875    527.078
 30.270    566.000    543.861     22.139    526.787    535.485    526.787    535.162    526.787
 30.370    560.818    542.385     18.433    526.497    536.297    526.497    532.582    526.497
 30.470    573.739    543.706     30.033    526.209    539.104    526.209    530.805    526.209
 30.570    582.018    549.697     32.320    525.921    546.061    525.921    529.545    525.921
 30.670    539.672    562.578    -22.905    525.633    559.592    525.633    528.597    525.633
 30.770    617.940    582.277     35.662    525.347    579.749    525.347    527.838    525.347
 30.870    578.000    602.970    -24.970    525.062    600.784    525.062    527.197    525.062
 30.970    616.000    612.657      3.343    524.778    610.745    524.778    526.635    524.778
 31.070    600.000    603.203     -3.203    524.495    601.524    524.495    526.128    524.495
 31.170    515.000    581.764    -66.764    524.213    580.284    524.213    525.664    524.213
 31.270    540.000    560.372    -20.372    523.932    559.056    523.932    525.232    523.932
 31.370    515.829    545.333    -29.504    523.653    544.151    523.653    524.827    523.653
 31.470    494.424    536.972    -42.548    523.374    535.900    523.374    524.442    523.374
 31.570    525.000    532.956     -7.956    523.096    531.975    523.096    524.074    523.096
 31.670    562.000    531.051     30.949    522.819    530.149    522.819    523.720    522.819
 31.770    523.000    530.016     -7.016    522.544    529.181    522.544    523.377    522.544
 31.870    510.000    529.346    -19.346    522.269    528.569    522.269    523.045    522.269
 31.970    555.000    528.870     26.130    521.996    528.144    521.996    522.721    521.996
 32.070    568.000    528.531     39.469    521.724    527.849    521.724    522.404    521.724
 32.170    575.000    528.306     46.694    521.453    527.664    521.453    522.094    521.453
 32.270    521.958    528.188     -6.230    521.183    527.580    521.183    521.790    521.183
 32.370    553.000    528.176     24.824    520.914    527.600    520.914    521.490    520.914
 32.470    543.123    528.279     14.844    520.647    527.730    520.647    521.195    520.647
 32.570    523.538    528.514     -4.976    520.381    527.989    520.381    520.904    520.381
 32.670    568.497    528.903     39.595    520.115    528.400    520.115    520.617    520.115
 32.770    509.000    529.481    -20.481    519.852    528.998    519.852    520.333    519.852
 32.870    504.515    530.303    -25.788    519.589    529.838    519.589    520.053    519.589
 32.970    570.000    531.449     38.551    519.327    531.000    519.327    519.775    519.327
 33.070    534.000    533.041      0.959    519.067    532.607    519.067    519.500    519.067
 33.170    545.546    535.300     10.247    518.808    534.878    518.808    519.227    518.808
 33.270    519.367    538.726    -19.359    518.550    538.317    518.550    518.957    518.550
 33.370    555.718    544.697     11.021    518.294    544.298    518.294    518.690    518.294
 33.470    558.934    556.889      2.045    518.039    556.498    518.039    518.425    518.039
 33.570    587.000    583.438      3.562    517.785    583.051    517.785    518.161    517.785
 33.670    657.295    637.511     19.785    517.532    637.121    517.532    517.900    517.532
 33.770    695.228    731.486    -36.257    517.281    731.088    517.281    517.641    517.281
 33.870    878.064    862.400     15.665    517.031    861.991    517.031    517.384    517.031
 33.970    970.772    995.168    -24.396    516.782    994.755    516.782    517.129    516.782
 34.070   1108.000   1062.071     45.929    516.535   1061.673    516.535    516.875    516.535
 34.170   1013.000   1015.869     -2.869    516.288   1015.503    516.288    516.624    516.288
 34.270    874.224    891.008    -16.784    516.044    890.672    516.044    516.374    516.044
 34.370    721.000    755.804    -34.804    515.800    755.485    515.800    516.126    515.800
 34.470    622.000    652.697    -30.697    515.558    652.383    515.558    515.880    515.558
 34.570    566.000    590.304    -24.304    515.317    589.991    515.317    515.636    515.317
 34.670    538.000    558.308    -20.308    515.078    557.995    515.078    515.393    515.078
 34.770    488.000    543.144    -55.144    514.840    542.833    514.840    515.152    514.840
 34.870    543.000    535.595      7.405    514.604    535.286    514.604    514.912    514.604
 34.970    552.000    531.186     20.814    514.368    530.880    514.368    514.674    514.368
 35.070    515.000    528.165    -13.165    514.135    527.861    514.135    514.438    514.135
 35.170    540.000    525.889     14.111    513.902    525.587    513.902    514.204    513.902
 35.270    539.000    524.092     14.908    513.671    523.792    513.671    513.971    513.671
 35.370    516.000    522.633     -6.633    513.442    522.335    513.442    513.740    513.442
 35.470    530.000    521.424      8.576    513.213    521.127    513.213    513.510    513.213
 35.570    541.000    520.404     20.596    512.987    520.108    512.987    513.282    512.987
 35.670    552.603    519.529     33.074    512.761    519.234    512.761    513.056    512.761
 35.770    525.508    518.769      6.739    512.538    518.475    512.538    512.831    512.538
 35.870    556.150    518.100     38.050    512.315    517.807    512.315    512.608    512.315
 35.970    536.000    517.506     18.494    512.094    517.214    512.094    512.386    512.094
 36.070    493.233    516.973    -23.740    511.875    516.681    511.875    512.166    511.875
 36.170    492.638    516.493    -23.855    511.657    516.201    511.657    511.948    511.657
 36.270    493.315    516.057    -22.742    511.440    515.766    511.440    511.731    511.440
 36.370    516.000    515.662      0.338    511.225    515.371    511.225    511.516    511.225
 36.470    564.000    515.303     48.697    511.011    515.012    511.011    511.302    511.011
 36.570    517.000    514.979      2.021    510.799    514.688    510.799    511.090    510.799
 36.670    474.605    514.692    -40.087    510.589    514.401    510.589    510.880    510.589
 36.770    512.000    514.446     -2.446    510.379    514.155    510.379    510.671    510.379
 36.870    523.000    514.259      8.741    510.172    513.966    510.172    510.464    510.172
 36.970    499.000    514.176    -15.176    509.966    513.884    509.966    510.258    509.966
 37.070    515.000    514.316      0.684    509.761    514.023    509.761    510.055    509.761
 37.170    501.000    514.912    -13.912    509.558    514.618    509.558    509.852    509.558
 37.270    484.471    516.312    -31.841    509.356    516.017    509.356    509.652    509.356
 37.370    525.574    518.826      6.748    509.156    518.531    509.156    509.452    509.156
 37.470    484.692    522.398    -37.706    508.957    522.102    508.957    509.255    508.957
 37.570    487.301    526.226    -38.925    508.760    525.929    508.760    509.059    508.760
 37.670    529.000    528.707      0.293    508.565    528.411    508.565    508.865    508.565
 37.770    531.000    528.448      2.552    508.371    528.153    508.371    508.672    508.371
 37.870    568.000    525.721     42.279    508.178    525.426    508.178    508.481    508.178
 37.970    485.000    521.997    -36.997    507.987    521.702    507.987    508.292    507.987
 38.070    533.131    518.465     14.666    507.798    518.170    507.798    508.104    507.798
 38.170    558.000    515.602     42.398    507.610    515.304    507.610    507.918    507.610
 38.270    514.000    513.500      0.500    507.424    513.197    507.424    507.734    507.424
 38.370    505.011    512.065     -7.054    507.239    511.758    507.239    507.551    507.239
 38.470    534.689    511.119     23.569    507.056    510.808    507.056    507.370    507.056
 38.570    528.000    510.496     17.504    506.875    510.181    506.875    507.191    506.875
 38.670    522.000    510.066     11.934    506.695    509.749    506.695    507.013    506.695
 38.770    472.000    509.744    -37.744    506.516    509.425    506.516    506.837    506.516
 38.870    554.708    509.480     45.229    506.339    509.157    506.339    506.662    506.339
 38.970    489.000    509.247    -20.247    506.164    508.922    506.164    506.489    506.164
 39.070    494.736    509.034    -14.299    505.990    508.707    505.990    506.318    505.990
 39.170    499.000    508.837     -9.837    505.818    508.506    505.818    506.149    505.818
 39.270    463.000    508.651    -45.651    505.648    508.318    505.648    505.981    505.648
 39.370    531.000    508.475     22.525    505.479    508.139    505.479    505.815    505.479
 39.470    535.134    508.309     26.825    505.311    507.970    505.311    505.650    505.311
 39.570    503.000    508.151     -5.151    505.145    507.809    505.145    505.488    505.145
 39.670    479.222    508.001    -28.779    504.981    507.656    504.981    505.327    504.981
 39.770    497.000    507.859    -10.859    504.819    507.510    504.819    505.167    504.819
 39.870    518.000    507.724     10.276    504.658    507.372    504.658    505.010    504.658
 39.970    489.000    507.597    -18.597    504.498    507.241    504.498    504.854    504.498
 40.070    492.000    507.478    -15.478    504.340    507.119    504.340    504.700    504.340
 40.170    481.000    507.367    -26.367    504.184    507.004    504.184    504.547    504.184
 40.270    460.000    507.265    -47.265    504.029    506.899    504.029    504.396    504.029
 40.370    487.000    507.173    -20.173    503.876    506.802    503.876    504.247    503.876
 40.470    471.000    507.091    -36.091    503.725    506.717    503.725    504.100    503.725
 40.570    498.000    507.022     -9.022    503.575    506.643    503.575    503.954    503.575
 40.670    504.054    506.965     -2.911    503.427    506.582    503.427    503.811    503.427
 40.770    493.000    506.925    -13.925    503.280    506.537    503.280    503.669    503.280
 40.870    487.000    506.902    -19.902    503.135    506.509    503.135    503.528    503.135
 40.970    510.086    506.901      3.185    502.992    506.503    502.992    503.390    502.992
 41.070    480.570    506.925    -26.356    502.850    506.523    502.850    503.253    502.850
 41.170    486.000    506.982    -20.982    502.710    506.574    502.710    503.118    502.710
 41.270    528.951    507.078     21.873    502.571    506.665    502.571    502.984    502.571
 41.370    506.271    507.224     -0.953    502.434    506.806    502.434    502.853    502.434
 41.470    478.000    507.435    -29.435    502.299    507.011    502.299    502.723    502.299
 41.570    516.000    507.734      8.266    502.165    507.305    502.165    502.595    502.165
 41.670    520.000    508.164     11.836    502.033    507.729    502.033    502.469    502.033
 41.770    522.000    508.817     13.183    501.902    508.376    501.902    502.345    501.902
 41.870    482.000    509.918    -27.918    501.773    509.471    501.773    502.222    501.773
 41.970    519.000    511.995      7.005    501.646    511.542    501.646    502.102    501.646
 42.070    513.000    516.124     -3.124    501.520    515.666    501.520    501.983    501.520
 42.170    490.179    524.063    -33.885    501.396    523.602    501.396    501.866    501.396
 42.270    501.956    537.890    -35.934    501.273    537.427    501.273    501.751    501.273
 42.370    522.784    558.782    -35.998    501.152    558.321    501.152    501.638    501.152
 42.470    536.000    585.143    -49.143    501.033    584.687    501.033    501.526    501.033
 42.570    576.747    610.938    -34.191    500.915    610.489    500.915    501.417    500.915
 42.670    623.375    626.151     -2.776    500.799    625.703    500.799    501.310    500.799
 42.770    620.000    622.859     -2.859    500.684    622.404    500.684    501.204    500.684
 42.870    585.000    602.997    -17.997    500.571    602.525    500.571    501.100    500.571
 42.970    563.000    576.052    -13.052    500.460    575.557    500.460    500.999    500.460
 43.070    514.000    550.958    -36.958    500.350    550.438    500.350    500.899    500.350
 43.170    488.000    532.205    -44.205    500.242    531.664    500.242    500.801    500.242
 43.270    502.259    520.303    -18.045    500.136    519.744    500.136    500.706    500.136
 43.370    523.000    513.629      9.371    500.031    513.054    500.031    500.612    500.031
 43.470    467.876    510.142    -42.266    499.927    509.552    499.927    500.521    499.927
 43.570    470.000    508.303    -38.303    499.825    507.700    499.825    500.431    499.825
 43.670    547.196    507.237     39.959    499.725    506.621    499.725    500.344    499.725
 43.770    551.000    506.533     44.467    499.627    505.902    499.627    500.259    499.627
 43.870    507.000    506.017      0.983    499.530    505.372    499.530    500.176    499.530
 43.970    516.146    505.617     10.528    499.434    504.957    499.434    500.095    499.434
 44.070    522.000    505.300     16.700    499.340    504.625    499.340    500.017    499.340
 44.170    508.156    505.046      3.110    499.248    504.354    499.248    499.941    499.248
 44.270    499.000    504.840     -5.840    499.157    504.131    499.157    499.867    499.157
 44.370    519.000    504.675     14.325    499.068    503.948    499.068    499.796    499.068
 44.470    529.521    504.542     24.978    498.980    503.796    498.980    499.727    498.980
 44.570    535.386    504.438     30.948    498.894    503.672    498.894    499.661    498.894
 44.670    473.000    504.358    -31.358    498.810    503.571    498.810    499.597    498.810
 44.770    506.918    504.299      2.619    498.727    503.490    498.727    499.536    498.727
 44.870    504.000    504.260     -0.260    498.646    503.428    498.646    499.478    498.646
 44.970    515.000    504.240     10.760    498.566    503.382    498.566    499.423    498.566
 45.070    550.000    504.237     45.763    498.488    503.353    498.488    499.371    498.488
 45.170    532.929    504.250     28.679    498.411    503.339    498.411    499.322    498.411
 45.270    473.000    504.280    -31.280    498.336    503.340    498.336    499.277    498.336
 45.370    468.000    504.328    -36.328    498.262    503.355    498.262    499.235    498.262
 45.470    518.000    504.392     13.608    498.190    503.386    498.190    499.196    498.190
 45.570    554.000    504.474     49.526    498.120    503.432    498.120    499.161    498.120
 45.670    505.000    504.574      0.426    498.051    503.495    498.051    499.130    498.051
 45.770    482.000    504.695    -22.695    497.983    503.575    497.983    499.104    497.983
 45.870    477.000    504.838    -27.838    497.917    503.673    497.917    499.082    497.917
 45.970    498.706    505.005     -6.300    497.853    503.793    497.853    499.065    497.853
 46.070    504.000    505.199     -1.199    497.790    503.936    497.790    499.053    497.790
 46.170    490.000    505.424    -15.424    497.729    504.105    497.729    499.047    497.729
 46.270    495.000    505.683    -10.683    497.669    504.304    497.669    499.047    497.669
 46.370    503.670    505.983     -2.313    497.611    504.539    497.611    499.054    497.611
 46.470    503.542    506.331     -2.788    497.554    504.816    497.554    499.068    497.554
 46.570    465.435    506.736    -41.302    497.499    505.144    497.499    499.090    497.499
 46.670    538.000    507.215     30.785    497.445    505.537    497.445    499.121    497.445
 46.770    490.000    507.791    -17.791    497.392    506.020    497.392    499.162    497.392
 46.870    510.711    508.517      2.194    497.342    506.643    497.342    499.214    497.342
 46.970    499.000    509.506    -10.506    497.292    507.517    497.292    499.279    497.292
 47.070    481.473    511.014    -29.541    497.244    508.897    497.244    499.358    497.244
 47.170    516.701    513.541      3.159    497.198    511.281    497.198    499.453    497.198
 47.270    523.516    517.914      5.601    497.153    515.492    497.153    499.567    497.153
 47.370    560.662    525.201     35.461    497.110    522.595    497.110    499.702    497.110
 47.470    533.000    536.300     -3.300    497.068    533.483    497.068    499.863    497.068
 47.570    534.000    551.202    -17.202    497.027    548.143    497.027    500.054    497.027
 47.670    548.404    568.173    -19.769    496.988    564.837    496.988    500.280    496.988
 47.770    628.745    583.279     45.466    496.950    579.628    496.950    500.548    496.950
 47.870    627.125    591.177     35.948    496.914    587.165    496.914    500.868    496.914
 47.970    567.000    588.582    -21.582    496.879    584.157    496.879    501.250    496.879
 48.070    603.153    577.429     25.725    496.846    572.519    496.846    501.713    496.846
 48.170    581.000    562.870     18.130    496.814    557.374    496.814    502.279    496.814
 48.270    564.000    549.500     14.500    496.784    543.275    496.784    502.988    496.784
 48.370    534.392    539.850     -5.458    496.755    532.687    496.755    503.905    496.755
 48.470    551.978    534.575     17.403    496.727    526.153    496.727    505.141    496.727
 48.570    554.000    533.236     20.764    496.701    523.043    496.701    506.889    496.701
 48.670    528.000    535.142     -7.142    496.676    522.363    496.676    509.452    496.676
 48.770    519.376    539.906    -20.530    496.653    523.275    496.653    513.280    496.653
 48.870    515.408    547.626    -32.218    496.631    525.296    496.631    518.958    496.631
 48.970    599.752    558.791     40.961    496.610    528.269    496.610    527.128    496.610
 49.070    533.000    574.074    -41.074    496.591    532.340    496.591    538.321    496.591
 49.170    584.757    594.210     -9.453    496.573    538.094    496.573    552.685    496.573
 49.270    615.000    620.232     -5.232    496.556    547.150    496.556    569.632    496.556
 49.370    666.536    654.501     12.035    496.541    563.650    496.541    587.382    496.541
 49.470    668.145    703.081    -34.936    496.527    596.991    496.527    602.597    496.527
 49.570    820.000    779.609     40.391    496.515    665.170    496.515    610.914    496.515
 49.670    937.104    908.580     28.524    496.504    795.728    496.504    609.282    496.504
 49.770   1072.000   1120.943    -48.943    496.494   1018.942    496.494    598.378    496.494
 49.870   1502.000   1435.238     66.762    496.486   1349.586    496.486    581.977    496.486
 49.970   1804.731   1829.818    -25.087    496.479   1761.882    496.479    564.235    496.479
 50.070   2223.000   2224.084     -1.084    496.473   2172.428    496.473    547.982    496.473
 50.170   2453.992   2489.907    -35.915    496.468   2451.738    496.468    534.584    496.468
 50.270   2522.000   2512.435      9.565    496.465   2484.608    496.465    524.362    496.465
 50.370   2286.000   2276.179      9.821    496.463   2255.783    496.463    517.022    496.463
 50.470   1835.000   1880.393    -45.393    496.463   1865.075    496.463    511.976    496.463
 50.570   1429.665   1459.826    -30.161    496.463   1447.878    496.463    508.588    496.463
 50.670   1015.000   1111.272    -96.272    496.465   1101.559    496.465    506.313    496.465
 50.770    842.092    872.444    -30.352    496.469    864.257    496.469    504.748    496.469
 50.870    696.000    734.226    -38.226    496.473    727.136    496.473    503.625    496.473
 50.970    744.000    665.295     78.705    496.479    659.038    496.479    502.783    496.479
 51.070    632.000    633.098     -1.098    496.486    627.497    496.486    502.126    496.486
 51.170    639.000    614.570     24.430    496.495    609.501    496.495    501.598    496.495
 51.270    611.910    598.424     13.486    496.504    593.792    496.504    501.166    496.504
 51.370    551.000    582.130    -31.130    496.515    577.859    496.515    500.808    496.515
 51.470    564.000    566.903     -2.903    496.527    562.937    496.527    500.511    496.527
 51.570    590.000    554.287     35.713    496.540    550.577    496.540    500.262    496.540
 51.670    561.225    544.982     16.243    496.555    541.491    496.555    500.053    496.555
 51.770    545.000    538.829      6.171    496.570    535.526    496.570    499.879    496.570
 51.870    557.000    535.180     21.820    496.587    532.037    496.587    499.733    496.587
 51.970    537.000    533.303      3.697    496.605    530.299    496.605    499.612    496.605
 52.070    547.335    532.642     14.693    496.625    529.756    496.625    499.513    496.625
 52.170    585.000    532.893     52.107    496.645    530.108    496.645    499.432    496.645
 52.270    517.054    533.995    -16.940    496.667    531.295    496.667    499.368    496.667
 52.370    493.317    536.140    -42.823    496.689    533.512    496.689    499.319    496.689
 52.470    551.000    539.920     11.080    496.713    537.352    496.713    499.282    496.713
 52.570    533.566    546.671    -13.105    496.738    544.152    496.738    499.258    496.738
 52.670    602.000    559.020     42.980    496.765    556.540    496.765    499.244    496.765
 52.770    602.000    581.451     20.549    496.792    579.001    496.792    499.240    496.792
 52.870    653.965    620.363     33.602    496.820    617.934    496.820    499.245    496.820
 52.970    716.000    682.844     33.156    496.850    680.429    496.850    499.259    496.850
 53.070    786.000    773.661     12.339    496.881    771.253    496.881    499.281    496.881
 53.170    924.870    890.865     34.004    496.912    888.459    496.912    499.311    496.912
 53.270   1023.000   1021.499      1.501    496.945   1019.092    496.945    499.349    496.945
 53.370   1213.000   1139.523     73.477    496.979   1137.113    496.979    499.393    496.979
 53.470   1154.000   1210.213    -56.213    497.014   1207.800    497.014    499.445    497.014
 53.570   1250.113   1207.001     43.112    497.051   1204.578    497.051    499.503    497.051
 53.670   1112.514   1131.408    -18.894    497.088   1128.965    497.088    499.568    497.088
 53.770    979.880   1011.618    -31.738    497.126   1009.141    497.126    499.640    497.126
 53.870    853.000    881.951    -28.951    497.165    879.430    497.165    499.719    497.165
 53.970    802.436    767.319     35.117    497.206    764.744    497.206    499.805    497.206
 54.070    712.479    679.595     32.884    497.247    676.961    497.247    499.898    497.247
 54.170    558.000    619.974    -61.974    497.289    617.275    497.289    499.999    497.289
 54.270    540.182    583.342    -43.160    497.333    580.575    497.333    500.107    497.333
 54.370    523.892    562.593    -38.701    497.377    559.751    497.377    500.223    497.377
 54.470    548.000    551.478     -3.478    497.423    548.556    497.423    500.347    497.423
 54.570    505.090    545.689    -40.599    497.469    542.679    497.469    500.481    497.469
 54.670    563.000    542.727     20.273    497.517    539.622    497.517    500.623    497.517
 54.770    545.000    541.331      3.669    497.565    538.122    497.565    500.775    497.565
 54.870    545.744    540.926      4.818    497.614    537.603    497.614    500.938    497.614
 54.970    512.000    541.271    -29.271    497.665    537.825    497.665    501.111    497.665
 55.070    519.000    542.281    -23.281    497.716    538.700    497.716    501.297    497.716
 55.170    542.000    543.944     -1.944    497.768    540.216    497.768    501.497    497.768
 55.270    562.000    546.296     15.704    497.821    542.408    497.821    501.710    497.821
 55.370    567.000    549.425     17.575    497.875    545.362    497.875    501.939    497.875
 55.470    554.000    553.487      0.513    497.930    549.232    497.930    502.186    497.930
 55.570    541.000    558.778    -17.778    497.986    554.313    497.986    502.451    497.986
 55.670    553.000    565.911    -12.911    498.043    561.217    498.043    502.738    498.043
 55.770    614.000    576.221     37.779    498.100    571.273    498.100    503.047    498.100
 55.870    594.000    592.565      1.435    498.159    587.339    498.159    503.383    498.159
 55.970    607.000    620.642    -13.642    498.218    615.107    498.218    503.748    498.218
 56.070    630.248    670.582    -40.334    498.278    664.703    498.278    504.146    498.278
 56.170    759.000    757.922      1.078    498.340    751.658    498.340    504.582    498.340
 56.270    915.161    902.235     12.926    498.402    895.541    498.402    505.059    498.402
 56.370   1098.582   1121.640    -23.057    498.464   1114.466    498.464    505.585    498.464
 56.470   1417.860   1422.908     -5.048    498.528   1415.205    498.528    506.167    498.528
 56.570   1715.000   1789.779    -74.779    498.592   1781.496    498.592    506.814    498.592
 56.670   2088.000   2174.169    -86.169    498.658   2165.257    498.658    507.535    498.658
 56.770   2410.000   2495.884    -85.884    498.724   2486.286    498.724    508.344    498.724
 56.870   2611.000   2661.604    -50.604    498.790   2651.246    498.790    509.256    498.790
 56.970   2624.344   2613.049     11.295    498.858   2601.810    498.858    510.290    498.858
 57.070   2373.997   2369.780      4.217    498.926   2357.484    498.926    511.471    498.926
 57.170   2080.000   2012.690     67.310    498.996   1999.112    498.996    512.832    498.996
 57.270   1650.000   1632.507     17.493    499.065   1617.386    499.065    514.417    499.065
 57.370   1279.000   1295.647    -16.647    499.136   1278.673    499.136    516.293    499.136
 57.470   1101.000   1035.360     65.640    499.207   1016.134    499.207    518.565    499.207
 57.570    835.000    856.553    -21.553    499.280    834.513    499.280    521.404    499.280
 57.670    759.000    746.623     12.377    499.352    720.928    499.352    525.098    499.352
 57.770    704.000    686.993     17.007    499.426    656.335    499.426    530.112    499.426
 57.870    708.000    661.390     46.610    499.500    623.735    499.500    537.168    499.500
 57.970    641.800    659.611    -17.811    499.575    611.881    499.575    547.307    499.575
 58.070    689.491    677.777     11.714    499.651    615.517    499.651    561.904    499.651
 58.170    746.734    716.655     30.079    499.727    633.799    499.727    582.566    499.727
 58.270    827.195    779.265     47.931    499.804    668.158    499.804    610.884    499.804
 58.370    900.464    868.156     32.307    499.881    719.992    499.881    648.009    499.881
 58.470    975.000    982.950     -7.950    499.960    788.755    499.960    694.110    499.960
 58.570   1071.000   1118.271    -47.271    500.038    870.546    500.038    747.717    500.038
 58.670   1194.000   1262.642    -68.642    500.118    957.732    500.118    804.986    500.118
 58.770   1401.000   1399.436      1.564    500.198   1040.673    500.198    858.931    500.198
 58.870   1589.000   1510.069     78.931    500.279   1110.895    500.279    899.440    500.279
 58.970   1650.000   1577.471     72.529    500.360   1161.834    500.360    916.006    500.360
 59.070   1607.000   1589.920     17.080    500.442   1186.869    500.442    903.522    500.442
 59.170   1602.000   1546.648     55.352    500.524   1181.220    500.524    865.997    500.524
 59.270   1466.000   1460.855      5.145    500.607   1147.980    500.607    813.529    500.607
 59.370   1321.232   1355.049    -33.817    500.691   1099.303    500.691    756.470    500.691
 59.470   1298.000   1252.142     45.858    500.775   1050.662    500.775    702.262    500.775
 59.570   1160.000   1170.891    -10.891    500.859   1016.563    500.859    655.157    500.859
 59.670   1103.000   1126.688    -23.688    500.945   1010.637    500.945    616.919    500.945
 59.770   1197.293   1131.251     66.042    501.030   1044.573    501.030    587.578    501.030
 59.870   1242.455   1188.056     54.399    501.116   1122.895    501.116    566.090    501.116
 59.970   1280.000   1287.473     -7.473    501.203   1237.534    501.203    550.900    501.203
 60.070   1513.000   1405.158    107.842    501.290   1365.777    501.290    540.389    501.290
 60.170   1566.000   1504.629     61.371    501.378   1472.569    501.378    533.143    501.378
 60.270   1667.000   1546.702    120.298    501.466   1519.822    501.466    528.073    501.466
 60.370   1529.608   1507.744     21.864    501.555   1484.660    501.555    524.419    501.555
 60.470   1435.000   1393.974     41.026    501.644   1373.779    501.644    521.684    501.644
 60.570   1282.000   1234.983     47.017    501.733   1217.056    501.733    519.566    501.733
 60.670   1085.000   1065.543     19.457    501.823   1049.430    501.823    517.888    501.823
 60.770    893.050    912.805    -19.755    501.913    898.152    501.913    516.546    501.913
 60.870    779.000    791.917    -12.917    502.004    778.429    502.004    515.485    502.004
 60.970    682.000    706.892    -24.892    502.095    694.309    502.095    514.675    502.095
 61.070    634.105    654.389    -20.284    502.187    642.469    502.187    514.101    502.187
 61.170    620.000    628.412     -8.412    502.279    616.925    502.279    513.754    502.279
 61.270    646.000    624.204     21.796    502.371    612.930    502.371    513.625    502.371
 61.370    657.220    640.386     16.834    502.463    629.124    502.463    513.695    502.463
 61.470    718.000    679.172     38.828    502.556    667.753    502.556    513.928    502.556
 61.570    781.451    744.837     36.614    502.650    733.153    502.650    514.262    502.650
 61.670    807.000    840.778    -33.778    502.743    828.816    502.743    514.604    502.743
 61.770    980.410    965.793     14.617    502.837    953.671    502.837    514.826    502.837
 61.870   1115.000   1110.690      4.310    502.932   1098.661    502.932    514.797    502.932
 61.970   1244.549   1256.477    -11.928    503.026   1244.877    503.026    514.444    503.026
 62.070   1376.284   1375.442      0.842    503.121   1364.591    503.121    513.791    503.121
 62.170   1364.000   1437.588    -73.588    503.216   1427.705    503.216    512.942    503.216
 62.270   1369.415   1424.009    -54.594    503.312   1415.186    503.312    512.020    503.312
 62.370   1273.000   1338.673    -65.673    503.407   1330.888    503.407    511.124    503.407
 62.470   1195.000   1205.569    -10.569    503.503   1198.726    503.503    510.316    503.503
 62.570   1097.933   1054.981     42.951    503.599   1048.948    503.599    509.629    503.599
 62.670    912.343    912.189      0.155    503.696    906.824    503.696    509.070    503.696
 62.770    791.000    792.906     -1.906    503.792    788.077    503.792    508.635    503.792
 62.870    707.000    703.169      3.831    503.889    698.764    503.889    508.306    503.889
 62.970    599.264    641.603    -42.339    503.986    637.533    503.986    508.064    503.986
 63.070    633.282    602.709     30.573    504.083    598.906    504.083    507.889    504.083
 63.170    564.813    579.904    -15.090    504.181    576.319    504.181    507.765    504.181
 63.270    604.173    567.517     36.656    504.278    564.116    504.278    507.677    504.278
 63.370    547.000    561.641    -14.641    504.376    558.396    504.376    507.616    504.376
 63.470    601.383    560.185     41.198    504.474    557.078    504.474    507.575    504.474
 63.570    560.348    562.627     -2.279    504.572    559.641    504.572    507.549    504.572
 63.670    618.236    569.723     48.513    504.670    566.844    504.670    507.535    504.670
 63.770    583.000    583.251     -0.251    504.768    580.467    504.768    507.532    504.768
 63.870    579.006    605.674    -26.669    504.867    602.974    504.867    507.538    504.867
 63.970    608.109    639.557    -31.448    504.965    636.928    504.965    507.552    504.965
 64.070    688.906    686.655      2.251    505.064    684.086    505.064    507.572    505.064
 64.170    795.000    746.783     48.217    505.162    744.266    505.162    507.599    505.162
 64.270    830.000    816.720     13.280    505.261    814.248    505.261    507.631    505.261
 64.370    922.000    889.479     32.521    505.360    887.051    505.360    507.669    505.360
 64.470    960.000    954.480      5.520    505.459    952.099    505.459    507.711    505.459
 64.570   1004.000    999.703      4.297    505.557    997.375    505.557    507.758    505.557
 64.670   1018.000   1016.273      1.727    505.656   1014.007    505.656    507.809    505.656
 64.770   1022.000   1002.407     19.593    505.755   1000.210    505.755    507.863    505.755
 64.870    985.000    963.215     21.785    505.854    961.087    505.854    507.921    505.854
 64.970    963.000    907.880     55.120    505.953    905.817    505.953    507.982    505.953
 65.070    910.000    846.568     63.432    506.052    844.564    506.052    508.047    506.052
 65.170    803.000    787.579     15.421    506.151    785.625    506.151    508.114    506.151
 65.270    719.000    735.669    -16.669    506.250    733.756    506.250    508.184    506.250
 65.370    677.000    692.258    -15.258    506.349    690.377    506.349    508.256    506.349
 65.470    614.640    656.878    -42.238    506.447    655.021    506.447    508.331    506.447
 65.570    669.484    628.575     40.908    506.546    626.736    506.546    508.409    506.546
 65.670    591.000    606.423    -15.423    506.645    604.598    506.645    508.488    506.645
 65.770    561.000    589.536    -28.536    506.743    587.723    506.743    508.569    506.743
 65.870    559.000    577.087    -18.087    506.842    575.284    506.842    508.652    506.842
 65.970    558.000    568.330    -10.330    506.940    566.536    506.940    508.738    506.940
 66.070    586.000    562.603     23.397    507.038    560.816    507.038    508.826    507.038
 66.170    533.000    559.324    -26.324    507.137    557.544    507.137    508.916    507.137
 66.270    486.000    558.002    -72.002    507.235    556.229    507.235    509.008    507.235
 66.370    575.000    558.265     16.735    507.332    556.495    507.332    509.102    507.332
 66.470    539.455    559.897    -20.441    507.430    558.129    507.430    509.198    507.430
 66.570    588.000    562.900     25.100    507.528    561.133    507.528    509.295    507.528
 66.670    566.210    567.593     -1.383    507.625    565.825    507.625    509.394    507.625
 66.770    556.000    574.805    -18.805    507.722    573.033    507.722    509.496    507.722
 66.870    550.000    586.200    -36.200    507.819    584.421    507.819    509.599    507.819
 66.970    575.000    604.756    -29.756    507.916    602.967    507.916    509.704    507.916
 67.070    625.659    635.303     -9.644    508.013    633.501    508.013    509.811    508.013
 67.170    698.000    684.904     13.096    508.109    683.085    508.109    509.920    508.109
 67.270    798.833    762.671     36.162    508.205    760.832    508.205    510.032    508.205
 67.370    894.000    878.582     15.418    508.301    876.721    508.301    510.145    508.301
 67.470    998.000   1040.981    -42.981    508.397   1039.098    508.397    510.261    508.397
 67.570   1244.000   1252.957     -8.957    508.493   1251.057    508.493    510.379    508.493
 67.670   1488.000   1508.374    -20.374    508.588   1506.465    508.588    510.499    508.588
 67.770   1789.000   1788.741      0.259    508.683   1786.836    508.683    510.622    508.683
 67.870   2164.000   2062.091    101.909    508.777   2060.204    508.777    510.748    508.777
 67.970   2282.000   2285.335     -3.335    508.872   2283.481    508.872    510.877    508.872
 68.070   2383.000   2413.053    -30.053    508.966   2411.234    508.966    511.009    508.966
 68.170   2438.000   2414.318     23.682    509.059   2412.524    509.059    511.144    509.059
 68.270   2273.000   2288.841    -15.841    509.153   2287.041    509.153    511.283    509.153
 68.370   2140.725   2067.151     73.574    509.246   2065.307    509.246    511.425    509.246
 68.470   1844.000   1794.601     49.399    509.338   1792.680    509.338    511.572    509.338
 68.570   1587.000   1514.421     72.579    509.431   1512.396    509.431    511.723    509.431
 68.670   1277.000   1258.790     18.210    509.523   1256.648    509.523    511.880    509.523
 68.770   1105.036   1046.416     58.619    509.614   1044.152    509.614    512.041    509.614
 68.870    859.000    883.614    -24.614    509.706    881.227    509.706    512.208    509.706
 68.970    742.000    767.412    -25.412    509.796    764.904    509.796    512.382    509.796
 69.070    707.000    689.513     17.487    509.887    686.889    509.887    512.563    509.887
 69.170    682.000    639.942     42.058    509.977    637.200    509.977    512.751    509.977
 69.270    613.834    609.549      4.284    510.067    606.689    510.067    512.948    510.067
 69.370    608.000    591.227     16.773    510.156    588.242    510.156    513.155    510.156
 69.470    621.517    580.092     41.425    510.244    576.974    510.244    513.372    510.244
 69.570    591.141    573.110     18.031    510.333    569.849    510.333    513.601    510.333
 69.670    548.000    568.547    -20.547    510.421    565.129    510.421    513.844    510.421
 69.770    570.000    565.474      4.526    510.508    561.885    510.508    514.101    510.508
 69.870    586.000    563.417     22.583    510.595    559.640    510.595    514.375    510.595
 69.970    532.433    562.144    -29.712    510.681    558.160    510.681    514.668    510.681
 70.070    605.000    561.547     43.453    510.767    557.333    510.767    514.983    510.767
 70.170    584.874    561.590     23.284    510.853    557.121    510.853    515.322    510.853
 70.270    583.818    562.297     21.522    510.938    557.544    510.938    515.690    510.938
 70.370    603.669    563.768     39.901    511.022    558.699    511.022    516.090    511.022
 70.470    556.000    566.232    -10.232    511.106    560.808    511.106    516.528    511.106
 70.570    599.000    570.139     28.861    511.189    564.314    511.189    517.010    511.189
 70.670    546.408    576.329    -29.921    511.272    570.051    511.272    517.544    511.272
 70.770    567.000    586.254    -19.254    511.354    579.458    511.354    518.140    511.354
 70.870    612.000    602.253      9.747    511.436    594.860    511.436    518.813    511.436
 70.970    654.592    627.807     26.786    511.517    619.715    511.517    519.583    511.517
 71.070    652.925    667.607    -14.683    511.598    658.684    511.598    520.482    511.598
 71.170    659.000    727.270    -68.270    511.678    717.329    511.678    521.561    511.678
 71.270    787.000    812.487    -25.487    511.757    801.259    511.757    522.902    511.757
 71.370    896.000    927.569    -31.569    511.836    914.656    511.836    524.638    511.836
 71.470    997.000   1073.552    -76.552    511.914   1058.350    511.914    526.974    511.914
 71.570   1224.912   1246.266    -21.354    511.991   1227.869    511.991    530.218    511.991
 71.670   1374.000   1434.928    -60.928    512.068   1411.999    512.068    534.803    512.068
 71.770   1606.000   1621.707    -15.707    512.144   1592.347    512.144    541.298    512.144
 71.870   1879.000   1782.858     96.142    512.220   1744.482    512.220    550.394    512.220
 71.970   1890.685   1892.634     -1.948    512.295   1841.912    512.295    562.838    512.295
 72.070   1936.000   1931.190      4.810    512.369   1864.097    512.369    579.319    512.369
 72.170   1979.447   1893.745     85.702    512.442   1805.783    512.442    600.304    512.442
 72.270   1812.601   1793.349     19.252    512.515   1679.966    512.515    625.835    512.515
 72.370   1613.000   1654.002    -41.002    512.587   1511.228    512.587    655.328    512.587
 72.470   1526.000   1500.736     25.264    512.659   1325.998    512.659    687.386    512.659
 72.570   1364.909   1353.186     11.724    512.730   1146.265    512.730    719.651    512.730
 72.670   1162.000   1223.108    -61.108    512.800    987.151    512.800    748.764    512.800
 72.770   1098.000   1114.391    -16.391    512.869    856.635    512.869    770.635    512.869
 72.870    994.576   1024.942    -30.366    512.937    756.522    512.937    781.368    512.937
 72.970    881.000    949.937    -68.937    513.005    684.188    513.005    778.765    513.005
 73.070    817.000    884.917    -67.917    513.072    634.584    513.072    763.414    513.072
 73.170    843.771    827.211     16.561    513.139    601.991    513.139    738.366    513.139
 73.270    724.000    775.734    -51.734    513.204    581.216    513.204    707.729    513.204
 73.370    685.000    730.261    -45.261    513.269    568.177    513.269    675.359    513.269
 73.470    731.754    690.901     40.853    513.333    560.014    513.333    644.227    513.333
 73.570    695.112    657.809     37.303    513.396    554.910    513.396    616.302    513.396
 73.670    666.329    630.997     35.333    513.458    551.816    513.458    592.647    513.458
 73.770    633.471    610.229     23.242    513.520    550.179    513.520    573.579    513.520
 73.870    632.420    595.000     37.420    513.581    549.724    513.581    558.867    513.581
 73.970    581.000    584.577     -3.577    513.640    550.294    513.640    547.938    513.640
 74.070    577.000    578.084     -1.084    513.700    551.740    513.700    540.063    513.700
 74.170    589.000    574.579     14.421    513.758    553.853    513.758    534.509    513.758
 74.270    548.931    573.105    -24.174    513.815    556.323    513.815    530.628    513.815
 74.370    609.958    572.734     37.224    513.872    558.738    513.872    527.905    513.872
 74.470    627.000    572.593     54.407    513.927    560.606    513.927    525.957    513.927
 74.570    531.002    571.940    -40.939    513.982    561.447    513.982    524.519    513.982
 74.670    647.000    570.286     76.714    514.036    560.948    514.036    523.418    514.036
 74.770    628.000    567.508     60.492    514.089    559.096    514.089    522.544    514.089
 74.870    545.945    563.842    -17.897    514.141    556.196    514.141    521.826    514.141
 74.970    544.302    559.745    -15.443    514.192    552.747    514.192    521.223    514.192
 75.070    598.000    555.739     42.261    514.243    549.300    514.243    520.708    514.243
 75.170    523.225    552.335    -29.109    514.292    546.384    514.292    520.263    514.292
 75.270    541.000    550.012     -9.012    514.341    544.491    514.341    519.876    514.341
 75.370    549.659    549.238      0.420    514.388    544.098    514.388    519.536    514.388
 75.470    529.000    550.499    -21.499    514.435    545.698    514.435    519.238    514.435
 75.570    563.000    554.309      8.691    514.480    549.811    514.480    518.975    514.480
 75.670    562.406    561.194      1.212    514.525    556.968    514.525    518.742    514.525
 75.770    556.000    571.611    -15.611    514.569    567.629    514.569    518.535    514.569
 75.870    578.344    585.817     -7.473    514.612    582.055    514.612    518.351    514.612
 75.970    639.906    603.697     36.209    514.654    600.132    514.654    518.187    514.654
 76.070    579.227    624.593    -45.366    514.694    621.206    514.694    518.040    514.694
 76.170    652.420    647.186      5.234    514.734    643.962    514.734    517.909    514.734
 76.270    601.000    669.468    -68.468    514.773    666.392    514.773    517.792    514.773
 76.370    663.000    688.828    -25.828    514.811    685.890    514.811    517.686    514.811
 76.470    659.000    702.381    -43.381    514.848    699.573    514.848    517.591    514.848
 76.570    682.000    707.661    -25.661    514.884    704.977    514.884    517.506    514.884
 76.670    686.000    703.561    -17.561    514.919    700.994    514.919    517.428    514.919
 76.770    742.080    690.854     51.226    514.952    688.399    514.952    517.359    514.952
 76.870    672.820    671.809      1.011    514.985    669.459    514.985    517.295    514.985
 76.970    645.000    649.275     -4.275    515.017    647.023    515.017    517.238    515.017
 77.070    619.851    625.923     -6.072    515.048    623.762    515.048    517.186    515.048
 77.170    624.088    603.859     20.229    515.077    601.781    515.077    517.139    515.077
 77.270    588.000    584.488      3.512    515.106    582.487    515.106    517.096    515.106
 77.370    569.895    568.525      1.370    515.133    566.595    515.133    517.057    515.133
 77.470    558.123    556.093      2.029    515.160    554.228    515.160    517.021    515.160
 77.570    505.450    546.893    -41.443    515.185    545.088    515.185    516.988    515.185
 77.670    517.000    540.383    -23.383    515.209    538.633    515.209    516.958    515.209
 77.770    540.000    535.946      4.054    515.233    534.247    515.233    516.930    515.233
 77.870    512.000    533.003    -21.003    515.255    531.352    515.255    516.904    515.255
 77.970    573.844    531.079     42.765    515.276    529.473    515.276    516.881    515.276
 78.070    513.000    529.818    -16.818    515.296    528.254    515.296    516.859    515.296
 78.170    551.482    528.958     22.523    515.314    527.433    515.314    516.838    515.314
 78.270    575.000    528.358     46.642    515.332    526.870    515.332    516.819    515.332
 78.370    511.000    527.959    -16.959    515.349    526.505    515.349    516.802    515.349
 78.470    560.000    527.687     32.313    515.364    526.266    515.364    516.785    515.364
 78.570    525.000    527.518     -2.518    515.378    526.126    515.378    516.770    515.378
 78.670    524.000    527.446     -3.446    515.392    526.082    515.392    516.755    515.392
 78.770    515.000    527.480    -12.480    515.404    526.141    515.404    516.742    515.404
 78.870    515.080    527.637    -12.557    515.414    526.321    515.414    516.730    515.414
 78.970    561.000    527.943     33.057    515.424    526.646    515.424    516.720    515.424
 79.070    557.000    528.427     28.573    515.433    527.147    515.433    516.712    515.433
 79.170    546.000    529.123     16.877    515.440    527.855    515.440    516.706    515.440
 79.270    521.000    530.061     -9.061    515.446    528.802    515.446    516.704    515.446
 79.370    506.571    531.270    -24.699    515.451    530.013    515.451    516.706    515.451
 79.470    537.000    532.776      4.224    515.455    531.514    515.455    516.713    515.455
 79.570    519.000    534.606    -15.606    515.458    533.332    515.458    516.728    515.458
 79.670    496.782    536.804    -40.023    515.459    535.509    515.459    516.750    515.459
 79.770    532.000    539.448     -7.448    515.460    538.121    515.460    516.781    515.460
 79.870    542.576    542.666     -0.090    515.459    541.298    515.459    516.821    515.459
 79.970    524.968    546.673    -21.705    515.457    545.253    515.457    516.871    515.457
 80.070    540.000    551.789    -11.789    515.453    550.309    515.453    516.928    515.453
 80.170    559.000    558.449      0.551    515.449    556.903    515.449    516.991    515.449
 80.270    553.714    567.158    -13.444    515.443    565.543    515.443    517.057    515.443
 80.370    538.545    578.389    -39.844    515.436    576.707    515.436    517.119    515.436
 80.470    604.283    592.464     11.819    515.428    590.724    515.428    517.172    515.428
 80.570    572.074    609.438    -37.364    515.419    607.658    515.419    517.207    515.419
 80.670    671.000    629.004     41.996    515.408    627.208    515.408    517.217    515.408
 80.770    671.000    650.447     20.553    515.396    648.665    515.396    517.197    515.396
 80.870    633.187    672.660    -39.472    515.383    670.920    515.383    517.147    515.383
 80.970    670.144    694.256    -24.113    515.369    692.584    515.369    517.071    515.369
 81.070    723.845    713.779     10.066    515.353    712.193    515.353    516.977    515.353
 81.170    775.441    729.896     45.545    515.336    728.407    515.336    516.870    515.336
 81.270    737.000    741.527     -4.527    515.318    740.136    515.318    516.760    515.318
 81.370    751.000    747.929      3.071    515.299    746.634    515.299    516.651    515.299
 81.470    763.830    748.788     15.042    515.278    747.582    515.278    516.546    515.278
 81.570    732.000    744.237    -12.237    515.256    743.110    515.256    516.449    515.256
 81.670    751.327    734.795     16.532    515.233    733.735    515.233    516.361    515.233
 81.770    729.523    721.318      8.205    515.209    720.314    515.209    516.281    515.209
 81.870    722.069    704.969     17.100    515.183    704.010    515.183    516.209    515.183
 81.970    711.000    687.069     23.931    515.156    686.145    515.156    516.145    515.156
 82.070    715.000    668.825     46.175    515.128    667.928    515.128    516.088    515.128
 82.170    649.377    651.104     -1.727    515.098    650.227    515.098    516.035    515.098
 82.270    649.000    634.377     14.623    515.067    633.513    515.067    515.985    515.067
 82.370    581.072    618.823    -37.752    515.035    617.970    515.035    515.939    515.035
 82.470    591.000    604.520    -13.520    515.002    603.673    515.002    515.893    515.002
 82.570    580.000    591.572    -11.572    514.967    590.729    514.967    515.849    514.967
 82.670    603.083    580.143     22.940    514.931    579.302    514.931    515.805    514.931
 82.770    612.000    570.420     41.580    514.894    569.578    514.894    515.761    514.894
 82.870    533.218    562.565    -29.347    514.855    561.722    514.855    515.717    514.855
 82.970    538.000    556.704    -18.704    514.815    555.858    514.815    515.673    514.815
 83.070    544.000    552.908     -8.908    514.774    552.060    514.774    515.627    514.774
 83.170    503.000    551.183    -48.183    514.731    550.330    514.731    515.581    514.731
 83.270    526.234    551.439    -25.205    514.687    550.582    514.687    515.534    514.687
 83.370    575.000    553.478     21.522    514.642    552.616    514.642    515.487    514.642
 83.470    544.000    556.978    -12.978    514.596    556.111    514.596    515.438    514.596
 83.570    568.000    561.493      6.507    514.548    560.621    514.548    515.389    514.548
 83.670    573.000    566.463      6.537    514.499    565.587    514.499    515.338    514.499
 83.770    525.000    571.244    -46.244    514.448    570.363    514.448    515.287    514.448
 83.870    607.816    575.150     32.666    514.397    574.267    514.397    515.234    514.397
 83.970    557.000    577.546    -20.546    514.343    576.662    514.343    515.181    514.343
 84.070    565.000    577.976    -12.976    514.289    577.093    514.289    515.127    514.289
 84.170    550.000    576.287    -26.287    514.233    575.406    514.233    515.071    514.233
 84.270    549.323    572.673    -23.350    514.176    571.795    514.176    515.015    514.176
 84.370    556.000    567.590    -11.590    514.118    566.716    514.118    514.958    514.118
 84.470    496.000    561.613    -65.613    514.058    560.743    514.058    514.899    514.058
 84.570    559.000    555.310      3.690    513.997    554.443    513.997    514.840    513.997
 84.670    525.000    549.165    -24.165    513.935    548.301    513.935    514.780    513.935
 84.770    531.000    543.543    -12.543    513.871    542.681    513.871    514.718    513.871
 84.870    506.000    538.679    -32.679    513.806    537.817    513.806    514.656    513.806
 84.970    516.000    534.679    -18.679    513.739    533.817    513.739    514.592    513.739
 85.070    500.005    531.548    -31.544    513.672    530.686    513.672    514.528    513.672
 85.170    530.000    529.218      0.782    513.603    528.353    513.603    514.462    513.603
 85.270    534.000    527.577      6.423    513.532    526.709    513.532    514.396    513.532
 85.370    536.203    526.504      9.699    513.460    525.633    513.460    514.328    513.460
 85.470    568.586    525.890     42.697    513.387    525.013    513.387    514.259    513.387
 85.570    530.000    525.650      4.350    513.313    524.769    513.313    514.190    513.313
 85.670    521.000    525.738     -4.738    513.237    524.852    513.237    514.119    513.237
 85.770    560.060    526.149     33.911    513.160    525.256    513.160    514.047    513.160
 85.870    550.324    526.918     23.406    513.082    526.018    513.082    513.975    513.082
 85.970    515.000    528.129    -13.129    513.002    527.221    513.002    513.901    513.002
 86.070    531.000    529.905      1.095    512.921    528.988    512.921    513.827    512.921
 86.170    504.000    532.409    -28.409    512.838    531.482    512.838    513.751    512.838
 86.270    539.874    535.832      4.042    512.755    534.893    512.755    513.675    512.755
 86.370    512.000    540.371    -28.371    512.670    539.418    512.670    513.597    512.670
 86.470    549.000    546.204      2.796    512.583    545.237    512.583    513.519    512.583
 86.570    509.463    553.454    -43.991    512.495    552.468    512.495    513.440    512.495
 86.670    583.000    562.130     20.870    512.406    561.125    512.406    513.359    512.406
 86.770    604.000    572.124     31.876    512.316    571.099    512.316    513.278    512.316
 86.870    599.402    583.148     16.254    512.224    582.101    512.224    513.196    512.224
 86.970    614.000    594.698     19.302    512.131    593.628    512.131    513.114    512.131
 87.070    603.000    606.086     -3.086    512.037    604.994    512.037    513.030    512.037
 87.170    660.000    616.458     43.542    511.941    615.346    511.941    512.946    511.941
 87.270    672.000    624.872     47.128    511.844    623.742    511.844    512.861    511.844
 87.370    634.000    630.434      3.566    511.745    629.289    511.745    512.775    511.745
 87.470    680.000    632.502     47.498    511.646    631.347    511.646    512.689    511.646
 87.570    694.000    630.878     63.122    511.545    629.715    511.545    512.602    511.545
 87.670    630.921    625.866      5.055    511.442    624.698    511.442    512.514    511.442
 87.770    650.000    618.171     31.829    511.339    617.000    511.339    512.426    511.339
 87.870    617.000    608.725      8.275    511.234    607.552    511.234    512.337    511.234
 87.970    631.170    598.518     32.652    511.127    597.341    511.127    512.247    511.127
 88.070    609.000    588.491     20.509    511.020    587.309    511.020    512.158    511.020
 88.170    617.000    579.462     37.538    510.911    578.274    510.911    512.067    510.911
 88.270    546.958    572.082    -25.124    510.801    570.884    510.801    511.977    510.801
 88.370    597.818    566.801     31.017    510.689    565.593    510.689    511.886    510.689
 88.470    525.222    563.868    -38.646    510.576    562.646    510.576    511.795    510.576
 88.570    571.000    563.329      7.671    510.462    562.092    510.462    511.704    510.462
 88.670    531.366    565.042    -33.676    510.347    563.788    510.347    511.613    510.347
 88.770    590.000    568.694     21.306    510.230    567.423    510.230    511.521    510.230
 88.870    605.000    573.825     31.175    510.112    572.536    510.112    511.429    510.112
 88.970    598.000    579.850     18.150    509.993    578.539    509.993    511.339    509.993
 89.070    618.000    586.083     31.917    509.872    584.750    509.872    511.249    509.872
 89.170    622.000    591.787     30.213    509.750    590.428    509.750    511.160    509.750
 89.270    635.000    596.223     38.777    509.627    594.836    509.627    511.071    509.627
 89.370    559.490    598.752    -39.262    509.503    597.332    509.503    510.983    509.503
 89.470    634.000    598.950     35.050    509.377    597.494    509.377    510.896    509.377
 89.570    584.000    596.710    -12.710    509.250    595.212    509.250    510.811    509.250
 89.670    588.000    592.256     -4.256    509.122    590.712    509.122    510.727    509.122
 89.770    580.000    586.064     -6.064    508.993    584.469    508.993    510.646    508.993
 89.870    577.623    578.731     -1.108    508.862    577.079    508.862    510.566    508.862
 89.970    548.651    570.861    -22.210    508.730    569.148    508.730    510.489    508.730
 90.070    563.466    562.995      0.471    508.597    561.216    508.597    510.414    508.597
 90.170    505.000    555.566    -50.566    508.463    553.717    508.463    510.344    508.463
 90.270    586.287    548.888     37.399    508.327    546.963    508.327    510.277    508.327
 90.370    508.120    543.149    -35.029    508.190    541.144    508.190    510.215    508.190
 90.470    559.147    538.427     20.720    508.052    536.336    508.052    510.158    508.052
 90.570    523.000    534.709    -11.709    507.913    532.524    507.913    510.109    507.913
 90.670    507.008    531.915    -24.907    507.772    529.627    507.772    510.068    507.772
 90.770    506.976    529.932    -22.956    507.630    527.531    507.630    510.037    507.630
 90.870    504.248    528.635    -24.388    507.487    526.106    507.487    510.020    507.487
 90.970    532.000    527.906      4.094    507.343    525.230    507.343    510.021    507.343
 91.070    550.554    527.621     22.933    507.198    524.774    507.198    510.045    507.198
 91.170    516.000    527.786    -11.786    507.052    524.737    507.052    510.100    507.052
 91.270    494.000    528.384    -34.384    506.904    525.090    506.904    510.196    506.904
 91.370    511.000    529.431    -18.431    506.755    525.835    506.755    510.348    506.755
 91.470    497.000    531.004    -34.004    506.605    527.032    506.605    510.573    506.605
 91.570    512.000    533.238    -21.238    506.454    528.793    506.454    510.893    506.454
 91.670    531.647    536.305     -4.657    506.301    531.264    506.301    511.335    506.301
 91.770    539.000    540.422     -1.422    506.148    534.629    506.148    511.932    506.148
 91.870    555.000    545.841      9.159    505.993    539.104    505.993    512.719    505.993
 91.970    563.000    552.829     10.171    505.837    544.917    505.837    513.734    505.837
 92.070    595.598    561.647     33.951    505.680    552.290    505.680    515.016    505.680
 92.170    558.000    572.522    -14.522    505.522    561.417    505.522    516.602    505.522
 92.270    599.000    585.618     13.382    505.363    572.431    505.363    518.520    505.363
 92.370    576.785    600.998    -24.213    505.203    585.375    505.203    520.788    505.203
 92.470    582.000    618.595    -36.595    505.041    600.183    505.041    523.409    505.041
 92.570    645.000    638.188      6.812    504.879    616.653    504.879    526.363    504.879
 92.670    658.196    659.386     -1.190    504.715    634.435    504.715    529.607    504.715
 92.770    689.966    681.614      8.352    504.551    653.031    504.551    533.069    504.551
 92.870    748.820    704.144     44.676    504.385    671.816    504.385    536.643    504.385
 92.970    774.934    726.139     48.795    504.218    690.095    504.218    540.188    504.218
 93.070    734.023    746.734    -12.711    504.050    707.181    504.050    543.526    504.050
 93.170    760.000    765.191     -5.191    503.881    722.547    503.881    546.448    503.881
 93.270    786.000    781.019      4.981    503.711    735.930    503.711    548.723    503.711
 93.370    781.000    794.036    -13.036    503.540    747.359    503.540    550.142    503.540
 93.470    817.346    804.339     13.006    503.368    757.087    503.368    550.547    503.368
 93.570    819.000    812.230      6.770    503.195    765.476    503.195    549.878    503.195
 93.670    883.000    818.158     64.842    503.021    772.919    503.021    548.192    503.021
 93.770    812.000    822.691    -10.691    502.846    779.830    502.846    545.642    502.846
 93.870    853.923    826.516     27.407    502.670    786.681    502.670    542.441    502.670
 93.970    811.690    830.409    -18.719    502.493    794.024    502.493    538.817    502.493
 94.070    813.800    835.141    -21.341    502.315    802.415    502.315    534.980    502.315
 94.170    829.022    841.297    -12.275    502.136    812.265    502.136    531.111    502.136
 94.270    908.000    849.100     58.900    501.956    823.651    501.956    527.350    501.956
 94.370    883.000    858.281     24.719    501.775    836.198    501.775    523.804    501.775
 94.470    874.000    868.048      5.952    501.594    849.042    501.594    520.548    501.594
 94.570    888.000    877.149     10.851    501.411    860.888    501.411    517.626    501.411
 94.670    938.667    884.008     54.659    501.227    870.138    501.227    515.056    501.227
 94.770    901.000    886.954     14.046    501.043    875.124    501.043    512.839    501.043
 94.870    865.572    884.530    -18.959    500.857    874.407    500.857    510.956    500.857
 94.970    857.000    875.834    -18.834    500.671    867.110    500.671    509.379    500.671
 95.070    928.000    860.757     67.243    500.484    853.161    500.484    508.073    500.484
 95.170    892.000    840.023     51.977    500.295    833.321    500.295    506.998    500.295
 95.270    796.045    815.005    -18.960    500.106    809.002    500.106    506.116    500.106
 95.370    758.691    787.523    -28.832    499.917    782.058    499.917    505.392    499.917
 95.470    713.739    759.521    -45.782    499.726    754.466    499.726    504.793    499.726
 95.570    730.000    732.924     -2.924    499.535    728.177    499.535    504.293    499.535
 95.670    736.000    709.541     26.459    499.342    705.023    499.342    503.870    499.342
 95.770    664.821    690.995    -26.175    499.149    686.644    499.149    503.506    499.149
 95.870    739.000    678.700     60.300    498.955    674.469    498.955    503.187    498.955
 95.970    701.000    673.858     27.142    498.761    669.710    498.761    502.902    498.761
 96.070    702.000    677.471     24.529    498.565    673.376    498.565    502.646    498.565
 96.170    745.000    690.347     54.653    498.369    686.282    498.369    502.411    498.369
 96.270    762.222    713.098     49.124    498.172    709.042    498.172    502.194    498.172
 96.370    723.000    746.105    -23.105    497.975    742.041    497.975    501.994    497.975
 96.470    754.000    789.429    -35.429    497.776    785.343    497.776    501.806    497.776
 96.570    843.000    842.728      0.272    497.577    838.605    497.577    501.632    497.577
 96.670    897.000    905.137     -8.137    497.377    900.967    497.377    501.469    497.377
 96.770    936.657    975.175    -38.518    497.177    970.946    497.177    501.319    497.177
 96.870   1069.000   1050.669     18.331    496.976   1046.372    496.976    501.179    496.976
 96.970   1070.000   1128.733    -58.733    496.774   1124.358    496.774    501.051    496.774
 97.070   1235.000   1205.799     29.201    496.572   1201.337    496.572    500.935    496.572
 97.170   1263.937   1277.732    -13.794    496.369   1273.175    496.369    500.830    496.369
 97.270   1362.294   1340.068     22.225    496.165   1335.409    496.165    500.739    496.165
 97.370   1447.000   1388.426     58.574    495.961   1383.655    495.961    500.661    495.961
 97.470   1456.000   1419.099     36.901    495.756   1414.205    495.756    500.597    495.756
 97.570   1390.000   1429.723    -39.723    495.550   1424.693    495.550    500.549    495.550
 97.670   1468.851   1419.757     49.094    495.344   1414.573    495.344    500.518    495.344
 97.770   1457.000   1390.543     66.457    495.138   1385.186    495.138    500.506    495.138
 97.870   1310.000   1344.943    -34.943    494.931   1339.386    494.931    500.516    494.931
 97.970   1272.000   1286.750    -14.750    494.723   1280.964    494.723    500.552    494.723
 98.070   1250.000   1220.148     29.852    494.515   1214.099    494.515    500.617    494.515
 98.170   1109.816   1149.307    -39.491    494.306   1142.952    494.306    500.720    494.306
 98.270   1094.000   1078.123     15.877    494.097   1071.414    494.097    500.867    494.097
 98.370    980.582   1010.062    -29.480    493.888   1002.937    493.888    501.071    493.888
 98.470    962.115    948.076     14.038    493.678    940.459    493.678    501.348    493.678
 98.570    874.000    894.582    -20.582    493.467    886.376    493.467    501.719    493.467
 98.670    864.412    851.482     12.930    493.257    842.564    493.257    502.211    493.257
 98.770    814.000    820.226     -6.226    493.045    810.436    493.045    502.862    493.045
 98.870    763.000    801.879    -38.879    492.834    791.012    492.834    503.717    492.834
 98.970    809.000    797.202     11.798    492.622    784.997    492.622    504.833    492.622
 99.070    777.000    806.759    -29.759    492.409    792.886    492.409    506.280    492.409
 99.170    797.000    830.908    -33.908    492.197    814.954    492.197    508.140    492.197
 99.270    817.868    869.806    -51.938    491.984    851.265    491.984    510.507    491.984
 99.370    921.000    923.384     -2.384    491.770    901.647    491.770    513.485    491.770
 99.470   1005.000    991.263     13.737    491.557    965.609    491.557    517.186    491.557
 99.570   1105.000   1072.654     32.346    491.343   1042.252    491.343    521.720    491.343
 99.670   1103.875   1166.254    -62.378    491.129   1130.167    491.129    527.194    491.129
 99.770   1259.000   1270.145    -11.145    490.914   1227.347    490.914    533.698    490.914
 99.870   1390.708   1381.722      8.986    490.700   1331.122    490.700    541.297    490.700
 99.970   1527.000   1497.669     29.331    490.485   1438.148    490.485    550.019    490.485
100.070   1626.000   1614.019     11.981    490.270   1544.475    490.270    559.846    490.270
100.170   1758.607   1726.334     32.273    490.055   1645.744    490.055    570.701    490.055
100.270   1865.000   1830.035     34.965    489.840   1737.519    489.840    582.439    489.840
100.370   1935.000   1920.816     14.184    489.624   1815.711    489.624    594.840    489.624
100.470   2054.070   1995.010     59.060    489.409   1876.953    489.409    607.603    489.409
100.570   2078.722   2049.771     28.951    489.193   1918.784    489.193    620.343    489.193
100.670   2118.000   2083.062     34.938    488.977   1939.641    488.977    632.585    488.977
100.770   2075.024   2093.595    -18.571    488.761   1938.785    488.761    643.777    488.761
100.870   2117.000   2080.901     36.099    488.545   1916.350    488.545    653.315    488.545
100.970   2064.828   2045.587     19.241    488.330   1873.557    488.330    660.588    488.330
101.070   2083.000   1989.627     93.373    488.114   1812.915    488.114    665.058    488.114
101.170   1916.000   1916.428     -0.428    487.898   1738.201    487.898    666.354    487.898
101.270   1885.000   1830.557     54.443    487.682   1654.109    487.682    664.352    487.682
101.370   1743.000   1737.197      5.803    487.466   1565.673    487.466    659.199    487.466
101.470   1606.000   1641.535    -35.535    487.250   1477.694    487.250    651.286    487.250
101.570   1463.000   1548.246    -85.246    487.035   1394.298    487.035    641.161    487.035
101.670   1423.000   1461.144    -38.144    486.819   1318.688    486.819    629.435    486.819
101.770   1372.000   1382.996    -10.996    486.604   1253.028    486.604    616.713    486.604
101.870   1341.073   1315.454     25.619    486.389   1198.429    486.389    603.541    486.389
101.970   1297.000   1259.086     37.914    486.174   1154.990    486.174    590.382    486.174
102.070   1183.000   1213.454    -30.454    485.959   1121.897    485.959    577.617    485.959
102.170   1147.000   1177.259    -30.259    485.744   1097.556    485.744    565.539    485.744
102.270   1186.959   1148.511     38.448    485.530   1079.767    485.530    554.361    485.530
102.370   1083.000   1124.762    -41.762    485.315   1065.941    485.315    544.221    485.315
102.470   1143.827   1103.375     40.453    485.101   1053.370    485.101    535.189    485.101
102.570   1087.000   1081.848      5.152    484.888   1039.539    484.888    527.281    484.888
102.670   1084.000   1058.140     25.860    484.674   1022.435    484.674    520.464    484.674
102.770   1080.272   1030.914     49.357    484.461   1000.791    484.461    514.671    484.461
102.870   1058.402    999.648     58.754    484.249    974.175    484.249    509.808    484.249
102.970    911.209    964.553    -53.344    484.037    942.904    484.037    505.771    484.037
103.070    937.139    926.379     10.760    483.825    907.841    483.825    502.446    483.825
103.170    892.000    886.195      5.805    483.613    870.164    483.613    499.723    483.613
103.270    808.000    845.191    -37.191    483.402    831.168    483.402    497.499    483.402
103.370    749.220    804.540    -55.319    483.192    792.118    483.192    495.680    483.192
103.470    729.000    765.306    -36.306    482.982    754.162    482.982    494.187    482.982
103.570    733.000    728.385      4.615    482.772    718.262    482.772    492.949    482.772
103.670    704.000    694.464      9.536    482.564    685.162    482.564    491.912    482.564
103.770    683.000    664.008     18.992    482.355    655.373    482.355    491.030    482.355
103.870    670.919    637.266     33.653    482.147    629.179    482.147    490.267    482.147
103.970    656.531    614.274     42.257    481.940    606.645    481.940    489.597    481.940
104.070    597.000    594.920      2.080    481.734    587.677    481.734    488.999    481.734
104.170    609.000    578.950     30.050    481.528    572.038    481.528    488.457    481.528
104.270    588.000    566.023     21.977    481.322    559.399    481.322    487.960    481.322
104.370    581.037    555.758     25.279    481.118    549.387    481.118    487.499    481.118
104.470    506.246    547.764    -41.517    480.914    541.616    480.914    487.069    480.914
104.570    541.000    541.667     -0.667    480.711    535.719    480.711    486.664    480.711
104.670    583.915    537.130     46.785    480.509    531.361    480.509    486.281    480.509
104.770    559.000    533.868     25.132    480.307    528.259    480.307    485.917    480.307
104.870    532.314    531.648      0.667    480.107    526.183    480.107    485.571    480.107
104.970    542.000    530.294     11.706    479.907    524.960    479.907    485.240    479.907
105.070    577.000    529.686     47.314    479.708    524.468    479.708    484.923    479.708
105.170    523.000    529.753     -6.753    479.510    524.639    479.510    484.620    479.510
105.270    494.000    530.474    -36.474    479.313    525.452    479.313    484.329    479.313
105.370    523.000    531.863     -8.863    479.117    526.924    479.117    484.049    479.117
105.470    496.969    533.973    -37.004    478.922    529.106    478.922    483.780    478.922
105.570    560.000    536.884     23.116    478.727    532.081    478.727    483.520    478.727
105.670    515.000    540.697    -25.697    478.534    535.948    478.534    483.271    478.534
105.770    545.000    545.516     -0.516    478.342    540.814    478.342    483.030    478.342
105.870    577.094    551.438     25.657    478.151    546.779    478.151    482.792    478.151
105.970    587.903    558.546     29.357    477.961    553.919    477.961    482.568    477.961
106.070    587.000    566.876     20.124    477.773    562.273    477.773    482.352    477.773
106.170    549.000    576.414    -27.414    477.585    571.828    477.585    482.144    477.585
106.270    602.000    587.086     14.914    477.399    582.510    477.399    481.944    477.399
106.370    591.000    598.747     -7.747    477.214    594.176    477.214    481.751    477.214
106.470    619.000    611.183      7.817    477.030    606.610    477.030    481.565    477.030
106.570    592.947    624.108    -31.161    476.847    619.528    476.847    481.387    476.847
106.670    608.540    637.173    -28.633    476.666    632.582    476.666    481.214    476.666
106.770    649.000    649.968     -0.968    476.486    645.370    476.486    481.039    476.486
106.870    601.000    662.077    -61.077    476.307    657.459    476.307    480.879    476.307
106.970    687.000    673.050     13.950    476.130    668.405    476.130    480.728    476.130
107.070    677.000    682.474     -5.474    475.954    677.798    475.954    480.584    475.954
107.170    714.000    690.019     23.981    475.780    685.307    475.780    480.446    475.780
107.270    685.000    695.488    -10.488    475.607    690.736    475.607    480.316    475.607
107.370    667.000    698.862    -31.862    475.436    694.065    475.436    480.193    475.436
107.470    705.299    700.311      4.988    475.266    695.465    475.266    480.077    475.266
107.570    665.000    700.169    -35.169    475.098    695.269    475.098    479.968    475.098
107.670    701.000    698.879      2.121    474.931    693.918    474.931    479.867    474.931
107.770    641.000    696.921    -55.921    474.766    691.894    474.766    479.773    474.766
107.870    722.000    694.756     27.244    474.603    689.656    474.603    479.687    474.603
107.970    673.000    692.773    -19.773    474.441    687.595    474.441    479.608    474.441
108.070    704.095    691.260     12.834    474.281    685.996    474.281    479.539    474.281
108.170    714.205    690.381     23.824    474.123    685.024    474.123    479.477    474.123
108.270    711.032    690.167     20.865    473.966    684.710    473.966    479.424    473.966
108.370    667.000    690.517    -23.517    473.812    684.954    473.812    479.381    473.812
108.470    671.000    691.206    -20.206    473.659    685.528    473.659    479.346    473.659
108.570    636.000    691.902    -55.902    473.508    686.101    473.508    479.322    473.508
108.670    679.121    692.200    -13.079    473.359    686.267    473.359    479.308    473.359
108.770    708.000    691.663     16.337    473.212    685.589    473.212    479.304    473.212
108.870    672.927    689.882    -16.955    473.067    683.657    473.067    479.312    473.067
108.970    673.000    686.535    -13.535    472.924    680.150    472.924    479.331    472.924
109.070    699.000    681.439     17.561    472.783    674.882    472.783    479.363    472.783
109.170    655.000    674.572    -19.572    472.644    667.833    472.644    479.408    472.644
109.270    621.507    666.069    -44.562    472.507    659.133    472.507    479.467    472.507
109.370    671.000    656.183     14.817    472.372    649.040    472.372    479.540    472.372
109.470    648.000    645.248      2.752    472.239    637.882    472.239    479.629    472.239
109.570    627.000    633.609     -6.609    472.109    626.007    472.109    479.734    472.109
109.670    622.000    621.662      0.338    471.981    613.807    471.981    479.857    471.981
109.770    596.724    609.780    -13.056    471.855    601.655    471.855    479.999    471.855
109.870    635.462    598.256     37.206    471.731    589.843    471.731    480.161    471.731
109.970    608.000    587.355     20.645    471.610    578.635    471.610    480.345    471.610
110.070    556.000    577.292    -21.292    471.491    568.242    471.491    480.553    471.491
110.170    581.000    568.225     12.775    471.374    558.822    471.374    480.788    471.374
110.270    586.000    560.256     25.744    471.260    550.474    471.260    481.052    471.260
110.370    583.000    553.439     29.561    471.149    543.246    471.149    481.349    471.149
110.470    562.000    547.777     14.223    471.040    537.138    471.040    481.683    471.040
110.570    506.000    543.239    -37.239    470.933    532.115    470.933    482.061    470.933
110.670    534.000    539.764     -5.764    470.829    528.107    470.829    482.488    470.829
110.770    542.000    537.273      4.727    470.728    525.026    470.728    482.975    470.728
110.870    529.000    535.675     -6.675    470.629    522.771    470.629    483.532    470.629
110.970    516.892    534.878    -17.986    470.533    521.235    470.533    484.174    470.533
111.070    508.408    534.794    -26.386    470.440    520.312    470.440    484.918    470.440
111.170    552.000    535.346     16.654    470.349    519.903    470.349    485.788    470.349
111.270    569.293    536.469     32.824    470.262    519.914    470.262    486.811    470.262
111.370    536.000    538.115     -2.115    470.177    520.264    470.177    488.022    470.177
111.470    536.691    540.257     -3.566    470.095    520.882    470.095    489.463    470.095
111.570    531.873    542.884    -11.011    470.016    521.708    470.016    491.185    470.016
111.670    536.116    546.007     -9.891    469.940    522.693    469.940    493.246    469.940
111.770    583.000    549.660     33.340    469.866    523.800    469.866    495.719    469.866
111.870    558.000    553.897      4.103    469.796    525.003    469.796    498.682    469.796
111.970    560.000    558.793      1.207    469.729    526.285    469.729    502.229    469.729
112.070    565.000    564.446      0.554    469.665    527.643    469.665    506.460    469.665
112.170    609.075    570.972     38.103    469.604    529.081    469.604    511.486    469.604
112.270    564.000    578.502    -14.502    469.547    530.614    469.547    517.425    469.547
112.370    572.000    587.179    -15.179    469.492    532.263    469.492    524.399    469.492
112.470    556.451    597.155    -40.704    469.441    534.059    469.441    532.528    469.441
112.570    604.156    608.585     -4.429    469.393    536.038    469.393    541.930    469.393
112.670    616.000    621.620     -5.620    469.348    538.248    469.348    552.710    469.348
112.770    673.363    636.407     36.956    469.307    540.746    469.307    564.959    469.307
112.870    623.990    653.086    -29.096    469.269    543.606    469.269    578.739    469.269
112.970    641.575    671.783    -30.208    469.235    546.923    469.235    594.084    469.235
113.070    642.355    692.618    -50.262    469.204    550.821    469.204    610.989    469.204
113.170    690.265    715.702    -25.437    469.177    555.466    469.177    629.401    469.177
113.270    751.954    741.147     10.807    469.153    561.072    469.153    649.214    469.153
113.370    764.951    769.076     -4.124    469.133    567.927    469.133    670.267    469.133
113.470    750.491    799.637    -49.146    469.116    576.404    469.116    692.332    469.116
113.570    779.367    833.025    -53.657    469.103    586.991    469.103    715.118    469.103
113.670    869.000    869.501     -0.501    469.094    600.312    469.094    738.260    469.094
113.770    931.000    909.422     21.578    469.089    617.158    469.089    761.325    469.089
113.870    962.000    953.273      8.727    469.088    638.519    469.088    783.809    469.088
113.970   1028.000   1001.696     26.304    469.090    665.604    469.090    805.140    469.090
114.070   1047.000   1055.527     -8.527    469.096    699.876    469.096    824.695    469.096
114.170   1146.000   1115.839     30.161    469.106    743.062    469.106    841.819    469.106
114.270   1252.119   1183.983     68.135    469.121    797.162    469.121    855.862    469.121
114.370   1275.000   1261.629     13.371    469.139    864.437    469.139    866.231    469.139
114.470   1324.000   1350.791    -26.791    469.161    947.381    469.161    872.449    469.161
114.570   1451.000   1453.836     -2.836    469.188   1048.662    469.188    874.211    469.188
114.670   1588.000   1573.436     14.564    469.218   1171.040    469.218    871.431    469.218
114.770   1742.000   1712.466     29.534    469.253   1317.250    469.253    864.249    469.253
114.870   1910.000   1873.840     36.160    469.292   1489.856    469.292    853.014    469.292
114.970   2126.108   2060.291     65.817    469.336   1691.083    469.336    838.235    469.336
115.070   2325.000   2274.116     50.884    469.383   1922.615    469.383    820.526    469.383
115.170   2570.000   2516.913     53.087    469.436   2185.397    469.436    800.541    469.436
115.270   2790.000   2789.327      0.673    469.492   2479.424    469.492    778.932    469.492
115.370   3053.818   3090.827    -37.009    469.553   2803.553    469.553    756.312    469.553
115.470   3439.000   3419.524     19.476    469.619   3155.342    469.619    733.237    469.619
115.570   3783.000   3772.046     10.954    469.689   3530.932    469.689    710.195    469.689
115.670   4226.000   4143.472     82.528    469.763   3924.988    469.763    687.603    469.763
115.770   4543.251   4527.337     15.915    469.843   4330.700    469.843    665.808    469.843
115.870   4812.000   4915.708   -103.708    469.927   4739.863    469.927    645.086    469.927
115.970   5140.000   5299.340   -159.340    470.016   5143.021    470.016    625.649    470.016
116.070   5453.000   5667.905   -214.905    470.109   5529.699    470.109    607.645    470.109
116.170   5952.000   6010.317    -58.317    470.208   5888.721    470.208    591.167    470.208
116.270   6242.884   6315.168    -72.284    470.311   6208.639    470.311    576.254    470.311
116.370   6714.390   6571.285    143.105    470.419   6478.282    470.419    562.904    470.419
116.470   6668.000   6768.428   -100.428    470.533   6687.453    470.533    551.075    470.533
116.570   6941.000   6898.106     42.894    470.651   6827.725    470.651    540.696    470.651
116.670   6934.000   6954.418    -20.418    470.774   6893.291    470.774    531.675    470.774
116.770   6900.049   6934.594    -34.545    470.903   6881.481    470.903    523.900    470.903
116.870   6922.000   6839.378     82.622    471.037   6793.156    471.037    517.255    471.037
116.970   6874.000   6672.908    201.092    471.176   6632.568    471.176    511.618    471.176
117.070   6377.000   6442.214    -65.214    471.320   6406.864    471.320    506.867    471.320
117.170   6159.000   6156.481      2.519    471.469   6125.344    471.469    502.886    471.469
117.270   5678.685   5826.241   -147.556    471.624   5798.644    471.624    499.568    471.624
117.370   5295.000   5462.621   -167.621    471.784   5437.990    471.784    496.812    471.784
117.470   5007.000   5076.724    -69.724    471.950   5054.575    471.950    494.529    471.950
117.570   4592.135   4679.146    -87.011    472.122   4659.073    472.122    492.642    472.122
117.670   4196.000   4279.608    -83.608    472.298   4261.274    472.298    491.083    472.298
117.770   3998.000   3886.695    111.305    472.481   3869.824    472.481    489.795    472.481
117.870   3612.252   3507.675    104.577    472.669   3492.040    472.669    488.728    472.669
117.970   3283.000   3148.400    134.600    472.863   3133.816    472.863    487.843    472.863
118.070   2928.000   2813.286    114.714    473.063   2799.603    473.063    487.108    473.063
118.170   2590.000   2505.354     84.646    473.268   2492.452    473.268    486.495    473.268
118.270   2311.000   2226.340     84.660    473.480   2214.121    473.480    485.983    473.480
118.370   2007.000   1976.838     30.162    473.697   1965.224    473.697    485.556    473.697
118.470   1727.976   1756.472    -28.497    473.920   1745.400    473.920    485.199    473.920
118.570   1637.971   1564.088     73.883    474.149   1553.505    474.149    484.903    474.149
118.670   1393.000   1397.936     -4.936    474.385   1387.800    474.385    484.660    474.385
118.770   1261.000   1255.859      5.141    474.626   1246.134    474.626    484.461    474.626
118.870   1136.895   1135.455      1.439    474.874   1126.111    474.874    484.304    474.874
118.970   1001.000   1034.227    -33.227    475.128   1025.237    475.128    484.182    475.128
119.070    869.000    949.700    -80.700    475.388    941.041    475.388    484.094    475.388
119.170    867.000    879.515    -12.515    475.655    871.166    475.655    484.037    475.655
119.270    766.000    821.495    -55.495    475.928    813.438    475.928    484.009    475.928
119.370    776.000    773.685      2.315    476.208    765.900    476.208    484.008    476.208
119.470    741.572    734.365      7.207    476.494    726.835    476.494    484.034    476.494
119.570    697.000    702.059     -5.059    476.786    694.767    476.786    484.084    476.786
119.670    700.352    675.519     24.832    477.085    668.449    477.085    484.160    477.085
119.770    643.000    653.707    -10.707    477.391    646.841    477.391    484.260    477.391
119.870    643.000    635.770      7.230    477.704    629.092    477.704    484.383    477.704
119.970    649.150    621.019     28.131    478.023    614.512    478.023    484.532    478.023
120.070    606.832    608.899     -2.067    478.349    602.545    478.349    484.704    478.349
120.170    638.913    598.968     39.945    478.682    592.750    478.682    484.902    478.682
120.270    584.751    590.877     -6.126    479.023    584.777    479.023    485.124    479.023
120.370    561.108    584.353    -23.245    479.370    578.352    479.370    485.373    479.370
120.470    542.687    579.181    -36.494    479.724    573.259    479.724    485.649    479.724
120.570    570.000    575.194     -5.194    480.085    569.330    480.085    485.952    480.085
120.670    599.598    572.262     27.336    480.453    566.435    480.453    486.284    480.453
120.770    558.000    570.285    -12.285    480.829    564.472    480.829    486.646    480.829
120.870    561.000    569.183     -8.183    481.212    563.362    481.212    487.039    481.212
120.970    611.000    568.894     42.106    481.602    563.039    481.602    487.464    481.602
121.070    538.370    569.366    -30.995    482.000    563.453    482.000    487.920    482.000
121.170    566.274    570.552     -4.278    482.405    564.555    482.405    488.411    482.405
121.270    595.000    572.410     22.590    482.818    566.304    482.818    488.934    482.818
121.370    584.613    574.895      9.719    483.239    568.653    483.239    489.492    483.239
121.470    610.000    577.960     32.040    483.666    571.557    483.666    490.083    483.666
121.570    581.000    581.552     -0.552    484.102    574.964    484.102    490.706    484.102
121.670    572.000    585.610    -13.610    484.546    578.811    484.546    491.362    484.546
121.770    578.000    590.062    -12.062    484.997    583.032    484.997    492.047    484.997
121.870    639.000    594.830     44.170    485.456    587.549    485.456    492.760    485.456
121.970    614.000    599.824     14.176    485.923    592.274    485.923    493.499    485.923
122.070    560.000    604.945    -44.945    486.398    597.113    486.398    494.259    486.398
122.170    618.000    610.085      7.915    486.881    601.961    486.881    495.036    486.881
122.270    670.000    615.129     54.871    487.373    606.708    487.373    495.827    487.373
122.370    554.000    619.959    -65.959    487.872    611.243    487.872    496.625    487.872
122.470    605.000    624.455    -19.455    488.380    615.449    488.380    497.425    488.380
122.570    622.000    628.499     -6.499    488.896    619.217    488.896    498.220    488.896
122.670    645.000    631.985     13.015    489.420    622.447    489.420    499.002    489.420
122.770    613.724    634.818    -21.094    489.953    625.051    489.953    499.765    489.953
122.870    637.000    636.927      0.073    490.494    626.966    490.494    500.502    490.494
122.970    678.000    638.263     39.737    491.044    628.152    491.044    501.203    491.044
123.070    683.174    638.807     44.366    491.603    628.596    491.603    501.863    491.603
123.170    591.793    638.573    -46.780    492.170    628.314    492.170    502.477    492.170
123.270    670.000    637.596     32.404    492.746    627.346    492.746    503.043    492.746
123.370    673.128    635.933     37.195    493.330    625.751    493.330    503.558    493.330
123.470    639.801    633.658      6.143    493.924    623.603    493.924    504.023    493.924
123.570    618.411    630.856    -12.445    494.527    620.985    494.527    504.440    494.527
123.670    605.000    627.619    -22.619    495.138    617.983    495.138    504.814    495.138
123.770    632.987    624.038      8.949    495.759    614.684    495.759    505.150    495.759
123.870    632.000    620.205     11.795    496.388    611.171    496.388    505.457    496.388
123.970    617.000    616.203      0.797    497.027    607.522    497.027    505.740    497.027
124.070    604.024    612.112     -8.088    497.676    603.808    497.676    506.007    497.676
124.170    615.000    607.997      7.003    498.333    600.089    498.333    506.266    498.333
124.270    582.004    603.916    -21.911    499.000    596.414    499.000    506.524    499.000
124.370    600.000    599.912      0.088    499.676    592.821    499.676    506.786    499.676
124.470    601.000    596.018      4.982    500.362    589.338    500.362    507.058    500.362
124.570    558.000    592.255    -34.255    501.058    585.981    501.058    507.345    501.058
124.670    582.892    588.636     -5.744    501.763    582.758    501.763    507.652    501.763
124.770    546.073    585.160    -39.086    502.478    579.665    502.478    507.982    502.478
124.870    602.688    581.832     20.856    503.202    576.704    503.202    508.338    503.202
124.970    586.000    578.644      7.356    503.937    573.865    503.937    508.722    503.937
