neutron_powder_diffraction_0053
R_wp: 3.919
Temperature (K): 661.566
Counts: 83321.00
Wavelength (Ã…): 2.52098
COMMENTS
Test file for demonstrating the .xyy file format in Reel1.0
END OF HEADER
   tth       Y_obs     Y_calc      Y_res    Background    Phase_1_Nuc    Phase_1_Mag    Phase_2_Nuc    Phase_2_Mag
  9.970    704.000    662.559     41.441    661.169    662.215    661.513    661.169    661.169
 10.070    710.000    662.130     47.870    660.651    661.782    660.999    660.651    660.651
 10.170    691.000    661.711     29.289    660.133    661.359    660.484    660.133    660.133
 10.270    627.947    661.305    -33.358    659.613    660.949    659.968    659.613    659.613
 10.370    738.000    660.915     77.085    659.092    660.555    659.451    659.092    659.092
 10.470    681.945    660.545     21.399    658.571    660.182    658.934    658.571    658.571
 10.570    623.529    660.200    -36.671    658.049    659.832    658.416    658.049    658.049
 10.670    639.644    659.886    -20.242    657.526    659.514    657.897    657.526    657.526
 10.770    692.613    659.613     33.000    657.002    659.236    657.377    657.002    657.002
 10.870    721.000    659.388     61.612    656.477    659.007    656.857    656.477    656.477
 10.970    697.000    659.226     37.774    655.952    658.841    656.336    655.952    655.952
 11.070    689.659    659.150     30.509    655.427    658.760    655.815    655.427    655.427
 11.170    615.039    659.188    -44.149    654.900    658.794    655.293    654.900    654.900
 11.270    682.000    659.385     22.615    654.373    658.985    654.770    654.373    654.373
 11.370    633.000    659.813    -26.813    653.845    659.408    654.247    653.845    653.845
 11.470    657.000    660.615     -3.615    653.317    660.205    653.723    653.317    653.317
 11.570    681.092    662.115     18.977    652.789    661.699    653.199    652.789    652.789
 11.670    687.000    665.044     21.956    652.259    664.622    652.675    652.259    652.259
 11.770    703.527    670.874     32.653    651.730    670.443    652.150    651.730    651.730
 11.870    763.000    681.913     81.087    651.200    681.471    651.625    651.200    651.200
 11.970    717.825    700.562     17.263    650.669    700.104    651.100    650.669    650.669
 12.070    694.930    727.205    -32.275    650.138    726.727    650.574    650.138    650.138
 12.170    796.000    756.771     39.229    649.607    756.271    650.048    649.607    649.607
 12.270    818.000    776.262     41.738    649.075    775.746    649.522    649.075    649.075
 12.370    778.000    772.695      5.305    648.543    772.175    648.995    648.543    648.543
 12.470    772.000    748.493     23.507    648.011    747.981    648.468    648.011    648.011
 12.570    681.000    717.856    -36.856    647.479    717.354    647.942    647.479    647.479
 12.670    735.484    691.877     43.607    646.946    691.384    647.415    646.946    646.946
 12.770    665.000    674.074     -9.074    646.413    673.585    646.888    646.413    646.413
 12.870    627.000    663.400    -36.400    645.880    662.910    646.361    645.880    645.880
 12.970    629.000    657.341    -28.341    645.347    656.848    645.834    645.347    645.347
 13.070    655.000    653.879      1.121    644.814    653.381    645.307    644.814    644.814
 13.170    680.442    651.558     28.884    644.280    651.055    644.779    644.280    644.280
 13.270    629.000    649.810    -20.810    643.746    649.302    644.252    643.746    643.746
 13.370    617.000    648.395    -31.395    643.213    647.881    643.725    643.213    643.213
 13.470    629.498    647.193    -17.694    642.679    646.672    643.198    642.679    642.679
 13.570    644.000    646.138     -2.138    642.146    645.611    642.671    642.146    642.146
 13.670    640.000    645.191     -5.191    641.612    644.657    642.145    641.612    641.612
 13.770    598.414    644.325    -45.911    641.078    643.784    641.618    641.078    641.078
 13.870    594.000    643.520    -49.520    640.545    642.972    641.092    640.545    640.545
 13.970    642.000    642.765     -0.765    640.011    642.209    640.566    640.011    640.011
 14.070    615.000    642.046    -27.046    639.478    641.483    640.040    639.478    639.478
 14.170    616.000    641.358    -25.358    638.945    640.787    639.514    638.945    638.945
 14.270    680.353    640.694     39.659    638.412    640.116    638.989    638.412    638.412
 14.370    617.819    640.050    -22.231    637.879    639.464    638.464    637.879    637.879
 14.470    653.000    639.423     13.577    637.346    638.829    637.940    637.346    637.346
 14.570    635.920    638.811     -2.891    636.814    638.208    637.415    636.814    636.814
 14.670    634.000    638.215     -4.215    636.281    637.604    636.892    636.281    636.281
 14.770    616.000    637.624    -21.624    635.749    637.005    636.368    635.749    635.749
 14.870    619.000    637.042    -18.042    635.218    636.413    635.846    635.218    635.218
 14.970    605.000    636.466    -31.466    634.686    635.829    635.323    634.686    634.686
 15.070    613.471    635.897    -22.427    634.155    635.250    634.802    634.155    634.155
 15.170    654.000    635.334     18.666    633.624    634.678    634.280    633.624    633.624
 15.270    596.197    634.776    -38.579    633.094    634.110    633.760    633.094    633.094
 15.370    610.000    634.223    -24.223    632.564    633.547    633.240    632.564    632.564
 15.470    590.000    633.675    -43.675    632.035    632.990    632.720    632.035    632.035
 15.570    606.000    633.152    -27.152    631.506    632.456    632.202    631.506    631.506
 15.670    614.812    632.618    -17.806    630.977    631.911    631.684    630.977    630.977
 15.770    611.000    632.080    -21.080    630.449    631.362    631.166    630.449    630.449
 15.870    636.000    631.544      4.456    629.921    630.816    630.650    629.921    629.921
 15.970    622.000    631.016     -9.016    629.394    630.276    630.134    629.394    629.394
 16.070    577.000    630.488    -53.488    628.868    629.736    629.619    628.868    628.868
 16.170    600.289    629.960    -29.671    628.342    629.196    629.105    628.342    628.342
 16.270    623.000    629.434     -6.434    627.816    628.658    628.592    627.816    627.816
 16.370    620.000    628.910     -8.910    627.291    628.122    628.079    627.291    627.291
 16.470    636.208    628.389      7.820    626.767    627.588    627.568    626.767    626.767
 16.570    634.000    627.869      6.131    626.243    627.055    627.057    626.243    626.243
 16.670    588.313    627.352    -39.038    625.720    626.524    626.548    625.720    625.720
 16.770    623.172    626.836     -3.664    625.198    625.995    626.039    625.198    625.198
 16.870    628.000    626.323      1.677    624.677    625.467    625.532    624.677    624.677
 16.970    656.760    625.811     30.949    624.156    624.941    625.026    624.156    624.156
 17.070    581.000    625.302    -44.302    623.636    624.417    624.521    623.636    623.636
 17.170    617.000    624.798     -7.798    623.116    623.897    624.017    623.116    623.116
 17.270    596.000    624.330    -28.330    622.598    623.414    623.514    622.598    622.598
 17.370    627.661    623.872      3.788    622.080    622.939    623.013    622.080    622.080
 17.470    642.449    623.382     19.068    621.563    622.432    622.512    621.563    621.563
 17.570    577.000    622.882    -45.882    621.047    621.916    622.013    621.047    621.047
 17.670    600.937    622.384    -21.447    620.531    621.401    621.515    620.531    620.531
 17.770    587.000    621.888    -34.888    620.017    620.886    621.018    620.017    620.017
 17.870    601.000    621.394    -20.394    619.503    620.373    620.523    619.503    619.503
 17.970    609.000    620.901    -11.901    618.991    619.862    620.029    618.991    618.991
 18.070    626.517    620.410      6.106    618.479    619.352    619.537    618.479    618.479
 18.170    630.000    619.921     10.079    617.968    618.843    619.046    617.968    617.968
 18.270    627.863    619.435      8.428    617.458    618.336    618.557    617.458    617.458
 18.370    607.610    618.950    -11.340    616.949    617.830    618.069    616.949    616.949
 18.470    652.000    618.467     33.533    616.441    617.326    617.583    616.441    616.441
 18.570    595.000    617.988    -22.988    615.934    616.823    617.098    615.934    615.934
 18.670    586.000    617.520    -31.520    615.428    616.332    616.615    615.428    615.428
 18.770    622.000    617.051      4.949    614.923    615.839    616.134    614.923    614.923
 18.870    609.796    616.583     -6.786    614.419    615.346    615.656    614.419    614.419
 18.970    632.000    616.164     15.836    613.916    614.893    615.188    613.916    613.916
 19.070    594.000    615.712    -21.712    613.414    614.411    614.715    613.414    613.414
 19.170    599.000    615.246    -16.246    612.914    613.918    614.241    612.914    612.914
 19.270    603.000    614.782    -11.782    612.414    613.426    613.770    612.414    612.414
 19.370    605.000    614.321     -9.321    611.915    612.936    613.300    611.915    611.915
 19.470    598.300    613.862    -15.562    611.418    612.447    612.832    611.418    611.418
 19.570    647.000    613.405     33.595    610.922    611.960    612.367    610.922    610.922
 19.670    650.860    612.952     37.908    610.427    611.475    611.903    610.427    610.427
 19.770    596.046    612.501    -16.455    609.933    610.992    611.442    609.933    609.933
 19.870    589.000    612.055    -23.055    609.440    610.512    610.984    609.440    609.440
 19.970    624.998    611.624     13.375    608.949    610.045    610.527    608.949    608.949
 20.070    569.363    611.196    -41.833    608.459    609.581    610.074    608.459    608.459
 20.170    593.000    610.768    -17.768    607.970    609.114    609.623    607.970    607.970
 20.270    567.000    610.367    -43.367    607.482    608.668    609.181    607.482    607.482
 20.370    601.649    609.947     -8.298    606.995    608.205    608.737    606.995    606.995
 20.470    608.000    609.564     -1.564    606.510    607.780    608.294    606.510    606.510
 20.570    600.000    609.192     -9.192    606.026    607.364    607.854    606.026    606.026
 20.670    617.000    608.777      8.223    605.544    606.904    607.416    605.544    605.544
 20.770    597.309    608.365    -11.055    605.062    606.445    606.982    605.062    605.062
 20.870    594.000    607.995    -13.995    604.582    606.026    606.551    604.582    604.582
 20.970    585.412    607.617    -22.205    604.104    605.598    606.123    604.104    604.104
 21.070    654.300    607.225     47.076    603.626    605.151    605.700    603.626    603.626
 21.170    574.000    606.833    -32.833    603.150    604.704    605.279    603.150    603.150
 21.270    597.000    606.449     -9.449    602.676    604.263    604.862    602.676    602.676
 21.370    581.000    606.062    -25.062    602.203    603.818    604.447    602.203    602.203
 21.470    632.832    605.680     27.152    601.731    603.374    604.037    601.731    601.731
 21.570    566.000    605.304    -39.304    601.261    602.934    603.631    601.261    601.261
 21.670    613.810    604.935      8.875    600.792    602.498    603.229    600.792    600.792
 21.770    604.242    604.575     -0.334    600.325    602.069    602.831    600.325    600.325
 21.870    582.000    604.220    -22.220    599.859    601.641    602.438    599.859    599.859
 21.970    606.020    603.871      2.148    599.394    601.216    602.049    599.394    599.394
 22.070    608.000    603.531      4.469    598.931    600.797    601.666    598.931    598.931
 22.170    595.000    603.200     -8.200    598.470    600.382    601.288    598.470    598.470
 22.270    564.436    602.878    -38.443    598.010    599.973    600.915    598.010    598.010
 22.370    612.000    602.569      9.431    597.551    599.573    600.548    597.551    597.551
 22.470    634.000    602.275     31.725    597.094    599.181    600.188    597.094    597.094
 22.570    620.639    601.990     18.649    596.639    598.795    599.833    596.639    596.639
 22.670    583.000    601.717    -18.717    596.185    598.416    599.485    596.185    596.185
 22.770    606.000    601.458      4.542    595.732    598.047    599.144    595.732    595.732
 22.870    632.956    601.218     31.738    595.282    597.690    598.810    595.282    595.282
 22.970    605.000    600.997      4.003    594.832    597.346    598.483    594.832    594.832
 23.070    594.000    600.797     -6.797    594.385    597.017    598.165    594.385    594.385
 23.170    632.000    600.623     31.377    593.939    596.706    597.856    593.939    593.939
 23.270    594.000    600.478     -6.478    593.494    596.417    597.556    593.494    593.494
 23.370    548.580    600.369    -51.789    593.052    596.155    597.266    593.052    593.052
 23.470    648.589    600.302     48.287    592.610    595.927    596.986    592.610    592.610
 23.570    605.000    600.286      4.714    592.171    595.741    596.718    592.171    592.171
 23.670    621.717    600.335     21.382    591.733    595.608    596.462    591.733    591.733
 23.770    595.000    600.465     -5.465    591.297    595.544    596.219    591.297    591.297
 23.870    623.000    600.700     22.300    590.862    595.575    595.989    590.862    590.862
 23.970    644.697    601.079     43.618    590.430    595.735    595.775    590.430    590.430
 24.070    650.000    601.670     48.330    589.998    596.094    595.577    589.998    589.998
 24.170    634.330    602.617     31.713    589.569    596.794    595.396    589.569    589.569
 24.270    619.000    604.237     14.763    589.141    598.149    595.234    589.141    589.141
 24.370    587.212    607.183    -19.971    588.715    600.813    595.092    588.715    588.715
 24.470    663.191    612.574     50.617    588.291    605.902    594.974    588.291    588.291
 24.570    681.000    621.844     59.156    587.868    614.850    594.880    587.868    587.868
 24.670    581.727    636.026    -54.299    587.447    628.688    594.812    587.447    587.447
 24.770    657.591    654.364      3.228    587.028    646.658    594.775    587.028    587.028
 24.870    721.000    672.398     48.602    586.611    664.293    594.770    586.611    586.611
 24.970    705.000    681.396     23.604    586.195    672.851    594.801    586.195    586.195
 25.070    685.000    675.224      9.776    585.781    666.189    594.872    585.781    585.781
 25.170    617.642    658.520    -40.878    585.369    648.945    594.987    585.369    585.369
 25.270    641.000    640.124      0.876    584.959    629.960    595.153    584.959    584.959
 25.370    640.625    625.331     15.294    584.550    614.526    595.375    584.550    584.550
 25.470    620.230    615.492      4.738    584.144    603.988    595.659    584.144    584.144
 25.570    616.000    609.831      6.169    583.739    597.562    596.015    583.739    583.739
 25.670    643.000    606.944     36.056    583.336    593.832    596.452    583.336    583.336
 25.770    562.337    605.648    -43.311    582.934    591.603    596.982    582.934    582.934
 25.870    610.000    605.225      4.775    582.535    590.144    597.618    582.535    582.535
 25.970    643.000    605.323     37.677    582.137    589.086    598.376    582.137    582.137
 26.070    574.702    605.798    -31.096    581.742    588.263    599.277    581.742    581.742
 26.170    559.085    606.598    -47.513    581.348    587.600    600.346    581.348    581.348
 26.270    634.000    607.713     26.287    580.956    587.059    601.610    580.956    580.956
 26.370    616.000    609.160      6.840    580.566    586.619    603.106    580.566    580.566
 26.470    671.000    610.968     60.032    580.177    586.265    604.880    580.177    580.177
 26.570    630.000    613.186     16.814    579.791    585.988    606.987    579.791    579.791
 26.670    673.000    615.889     57.111    579.406    585.792    609.502    579.406    579.406
 26.770    665.612    619.176     46.436    579.024    585.679    612.519    579.024    579.024
 26.870    622.054    623.179     -1.125    578.643    585.657    616.161    578.643    578.643
 26.970    653.000    628.074     24.926    578.264    585.742    620.593    578.264    578.264
 27.070    597.290    634.107    -36.817    577.887    585.954    626.036    577.887    577.887
 27.170    660.000    641.616     18.384    577.512    586.325    632.798    577.512    577.512
 27.270    655.000    651.081      3.919    577.139    586.898    641.315    577.139    577.139
 27.370    724.000    663.210     60.790    576.767    587.743    652.227    576.767    576.767
 27.470    703.000    679.108     23.892    576.398    588.963    666.534    576.398    576.398
 27.570    669.703    700.907    -31.204    576.031    590.761    686.164    576.031    576.031
 27.670    689.573    733.979    -44.407    575.665    593.646    715.980    575.665    575.665
 27.770    828.983    793.952     35.031    575.302    599.094    770.129    575.302    575.302
 27.870    863.000    922.185    -59.185    574.940    611.002    886.063    574.940    574.940
 27.970   1162.000   1203.100    -41.100    574.581    637.321   1140.232    574.581    574.581
 28.070   1677.000   1749.889    -72.889    574.223    688.717   1635.152    574.223    574.223
 28.170   2544.000   2614.019    -70.019    573.867    770.061   2417.441    573.867    573.867
 28.270   3631.200   3632.647     -1.447    573.513    866.100   3339.584    573.513    573.513
 28.370   4484.391   4350.183    134.208    573.162    934.129   3988.806    573.162    573.162
 28.470   4383.000   4311.511     71.489    572.812    931.703   3952.423    572.812    572.812
 28.570   3694.000   3603.654     90.346    572.464    867.821   3308.283    572.464    572.464
 28.670   2648.000   2765.369   -117.369    572.118    794.575   2542.956    572.118    572.118
 28.770   2116.000   2248.473   -132.473    571.774    756.059   2064.208    571.774    571.774
 28.870   2234.094   2179.196     54.898    571.432    764.524   1986.083    571.432    571.432
 28.970   2418.657   2407.895     10.762    571.092    803.001   2175.961    571.092    571.092
 29.070   2616.000   2624.920     -8.920    570.754    835.086   2360.622    570.754    570.754
 29.170   2572.911   2551.256     21.655    570.419    827.104   2294.692    570.419    570.419
 29.270   2232.000   2169.135     62.865    570.085    778.020   1961.364    570.085    570.085
 29.370   1685.000   1678.709      6.291    569.753    714.450   1534.157    569.753    569.753
 29.470   1222.000   1261.428    -39.428    569.423    660.261   1170.690    569.423    569.423
 29.570   1029.000    982.173     46.827    569.095    623.999    927.326    569.095    569.095
 29.670    824.000    823.819      0.181    568.769    603.469    789.148    568.769    568.769
 29.770    782.000    741.898     40.102    568.445    592.892    717.466    568.445    568.445
 29.870    775.000    699.002     75.998    568.123    587.403    679.729    568.123    568.123
 29.970    769.000    673.887     95.113    567.803    584.250    657.443    567.803    567.803
 30.070    762.000    657.090    104.910    567.485    582.220    642.357    567.485    567.485
 30.170    698.000    644.887     53.113    567.170    580.861    631.196    567.170    567.170
 30.270    698.000    635.796     62.204    566.856    580.039    622.612    566.856    566.856
 30.370    583.556    629.264    -45.708    566.544    579.817    615.988    566.544    566.544
 30.470    682.000    625.401     56.599    566.234    580.514    611.117    566.234    566.234
 30.570    688.000    625.091     62.909    565.927    582.845    608.164    565.927    565.927
 30.670    652.050    630.025     22.025    565.621    587.975    607.656    565.621    565.621
 30.770    710.000    642.082     67.918    565.317    597.150    610.225    565.317    565.317
 30.870    668.432    661.693      6.739    565.016    610.703    615.968    565.016    565.016
 30.970    693.000    685.367      7.633    564.716    626.539    623.492    564.716    564.716
 31.070    736.000    703.846     32.154    564.418    639.005    629.199    564.418    564.418
 31.170    718.000    705.580     12.420    564.123    641.027    628.619    564.123    564.123
 31.270    713.000    687.687     25.313    563.830    630.855    620.616    563.830    563.830
 31.370    688.000    659.882     28.118    563.538    614.485    608.903    563.538    563.538
 31.470    682.000    633.347     48.653    563.249    598.812    597.764    563.249    563.249
 31.570    625.982    613.457     12.525    562.961    587.156    589.250    562.961    562.961
 31.670    634.000    600.698     33.302    562.676    579.829    583.537    562.676    562.676
 31.770    583.000    593.250    -10.250    562.393    575.722    579.915    562.393    562.393
 31.870    614.000    588.975     25.025    562.112    573.528    577.555    562.112    562.112
 31.970    570.000    586.356    -16.356    561.833    572.322    575.864    561.833    561.833
 32.070    606.000    584.584     21.416    561.556    571.612    574.525    561.556    561.556
 32.170    617.491    583.297     34.194    561.280    571.184    573.391    561.280    561.280
 32.270    600.000    582.346     17.654    561.007    570.953    572.399    561.007    561.007
 32.370    589.130    581.669      7.461    560.737    570.887    571.516    560.737    560.737
 32.470    595.000    581.240     13.760    560.468    570.979    570.727    560.468    560.468
 32.570    566.000    581.052    -15.052    560.201    571.233    570.018    560.201    560.201
 32.670    592.892    581.115     11.777    559.936    571.666    569.384    559.936    559.936
 32.770    585.000    581.455      3.545    559.673    572.305    568.822    559.673    559.673
 32.870    604.496    582.113     22.383    559.413    573.193    568.330    559.413    559.413
 32.970    576.000    583.154     -7.154    559.154    574.392    567.914    559.154    559.154
 33.070    627.000    584.677     42.323    558.897    575.991    567.581    558.897    558.897
 33.170    608.000    586.835     21.165    558.643    578.129    567.346    558.643    558.643
 33.270    607.000    589.895     17.105    558.390    581.045    567.238    558.390    558.390
 33.370    571.212    594.404    -23.191    558.140    585.221    567.319    558.140    558.140
 33.470    616.000    601.576     14.424    557.891    591.735    567.728    557.891    557.891
 33.570    575.109    614.064    -38.954    557.645    602.928    568.774    557.645    557.645
 33.670    657.600    636.944     20.657    557.401    623.287    571.047    557.401    557.401
 33.770    670.000    678.051     -8.051    557.158    659.733    575.460    557.158    557.158
 33.870    711.000    746.014    -35.014    556.918    719.887    583.017    556.918    556.918
 33.970    828.789    844.779    -15.990    556.680    807.238    594.179    556.680    556.680
 34.070    985.881    965.176     20.705    556.444    913.689    607.876    556.444    556.444
 34.170   1113.000   1075.577     37.423    556.209   1011.307    620.418    556.209    556.209
 34.270   1109.000   1123.375    -14.375    555.977   1053.628    625.672    555.977    555.977
 34.370   1088.000   1076.958     11.042    555.747   1012.726    619.949    555.747    555.747
 34.470    946.000    966.796    -20.796    555.519    915.505    606.800    555.519    555.519
 34.570    831.000    845.486    -14.486    555.293    808.422    592.360    555.293    555.293
 34.670    728.000    745.245    -17.245    555.069    719.936    580.384    555.069    555.069
 34.770    612.000    675.726    -63.726    554.847    658.578    572.000    554.847    554.847
 34.870    631.000    633.223     -2.223    554.627    621.079    566.774    554.627    554.627
 34.970    608.764    609.161     -0.396    554.409    599.863    563.708    554.409    554.409
 35.070    583.000    595.653    -12.653    554.194    587.966    561.881    554.194    554.194
 35.170    617.000    587.551     29.449    553.980    580.838    560.692    553.980    553.980
 35.270    617.949    582.148     35.801    553.768    576.089    559.826    553.768    553.768
 35.370    591.000    578.196     12.804    553.558    572.615    559.138    553.558    553.558
 35.470    518.000    575.132    -57.132    553.350    569.920    558.562    553.350    553.350
 35.570    591.832    572.679     19.153    553.144    567.757    558.066    553.144    553.144
 35.670    572.715    570.676      2.039    552.941    565.985    557.631    552.941    552.941
 35.770    567.000    569.017     -2.017    552.739    564.509    557.247    552.739    552.739
 35.870    524.000    567.628    -43.628    552.539    563.262    556.904    552.539    552.539
 35.970    578.000    566.454     11.546    552.341    562.197    556.597    552.341    552.341
 36.070    606.000    565.457     40.543    552.145    561.278    556.324    552.145    552.145
 36.170    536.000    564.608    -28.608    551.952    560.478    556.081    551.952    551.952
 36.270    537.234    563.885    -26.652    551.760    559.776    555.869    551.760    551.760
 36.370    544.000    563.276    -19.276    551.570    559.157    555.688    551.570    551.570
 36.470    531.000    562.769    -31.769    551.382    558.611    555.539    551.382    551.382
 36.570    538.000    562.360    -24.360    551.196    558.128    555.427    551.196    551.196
 36.670    505.000    562.047    -57.047    551.012    557.704    555.356    551.012    551.012
 36.770    587.000    561.836     25.164    550.830    557.335    555.332    550.830    550.830
 36.870    566.605    561.738      4.867    550.650    557.022    555.366    550.650    550.650
 36.970    564.000    561.775      2.225    550.472    556.776    555.471    550.472    550.472
 37.070    539.000    561.990    -22.990    550.296    556.617    555.669    550.296    550.296
 37.170    606.424    562.466     43.958    550.122    556.594    555.994    550.122    550.122
 37.270    534.000    563.356    -29.356    549.950    556.798    556.508    549.950    549.950
 37.370    524.000    564.932    -40.932    549.780    557.367    557.344    549.780    549.780
 37.470    539.000    567.641    -28.641    549.612    558.475    558.777    549.612    549.612
 37.570    573.325    572.160      1.165    549.445    560.263    561.342    549.445    549.445
 37.670    561.000    579.385    -18.385    549.281    562.737    565.929    549.281    549.281
 37.770    551.000    590.229    -39.229    549.119    565.621    573.726    549.119    549.119
 37.870    642.000    605.082     36.918    548.958    568.212    585.828    548.958    548.958
 37.970    621.000    623.120     -2.120    548.800    569.460    602.459    548.800    548.800
 38.070    667.000    641.989     25.011    548.643    568.725    621.906    548.643    548.643
 38.170    627.600    657.358    -29.758    548.488    566.436    639.410    548.488    548.488
 38.270    649.365    662.730    -13.365    548.335    563.480    647.587    548.335    548.335
 38.370    642.841    654.094    -11.253    548.184    560.512    641.771    548.184    548.184
 38.470    617.164    635.195    -18.030    548.035    557.932    625.303    548.035    548.035
 38.570    636.000    613.514     22.486    547.888    555.932    605.475    547.888    547.888
 38.670    614.000    594.439     19.561    547.743    554.505    587.682    547.743    547.743
 38.770    616.065    580.144     35.921    547.600    553.533    574.214    547.600    547.600
 38.870    595.464    570.599     24.866    547.458    552.875    565.184    547.458    547.458
 38.970    582.000    564.713     17.287    547.319    552.417    559.616    547.319    547.319
 39.070    570.000    561.200      8.800    547.181    552.073    556.308    547.181    547.181
 39.170    626.000    559.052     66.948    547.045    551.802    554.296    547.045    547.045
 39.270    521.000    557.639    -36.639    546.911    551.577    552.973    546.911    546.911
 39.370    527.000    556.620    -29.620    546.779    551.382    552.017    546.779    546.779
 39.470    571.000    555.833     15.167    546.649    551.211    551.272    546.649    546.649
 39.570    573.000    555.197     17.803    546.521    551.057    550.661    546.521    546.521
 39.670    531.000    554.670    -23.670    546.394    550.919    550.145    546.394    546.394
 39.770    518.000    554.226    -36.226    546.269    550.796    549.700    546.269    546.269
 39.870    543.411    553.850    -10.439    546.146    550.686    549.310    546.146    546.146
 39.970    543.000    553.528    -10.528    546.025    550.588    548.965    546.025    546.025
 40.070    593.240    553.251     39.988    545.906    550.503    548.655    545.906    545.906
 40.170    538.000    553.014    -15.014    545.789    550.430    548.373    545.789    545.789
 40.270    569.224    552.812     16.412    545.673    550.369    548.116    545.673    545.673
 40.370    550.000    552.641     -2.641    545.559    550.321    547.880    545.559    545.559
 40.470    526.696    552.499    -25.803    545.447    550.287    547.660    545.447    545.447
 40.570    555.000    552.385      2.615    545.337    550.267    547.455    545.337    545.337
 40.670    557.000    552.298      4.702    545.228    550.264    547.263    545.228    545.228
 40.770    522.000    552.239    -30.239    545.122    550.278    547.083    545.122    545.122
 40.870    542.827    552.209     -9.382    545.017    550.313    546.913    545.017    545.017
 40.970    551.000    552.209     -1.209    544.914    550.372    546.752    544.914    544.914
 41.070    574.811    552.244     22.567    544.812    550.457    546.600    544.812    544.812
 41.170    553.233    552.316      0.916    544.713    550.575    546.455    544.713    544.713
 41.270    590.225    552.433     37.792    544.615    550.730    546.319    544.615    544.615
 41.370    504.627    552.602    -47.975    544.519    550.932    546.190    544.519    544.519
 41.470    562.000    552.834      9.166    544.424    551.191    546.068    544.424    544.424
 41.570    556.000    553.143      2.857    544.331    551.523    545.953    544.331    544.331
 41.670    517.000    553.552    -36.552    544.240    551.947    545.847    544.240    544.240
 41.770    561.851    554.095      7.755    544.151    552.499    545.749    544.151    544.151
 41.870    526.738    554.836    -28.098    544.064    553.240    545.663    544.064    544.064
 41.970    587.329    555.899     31.431    543.978    554.288    545.591    543.978    543.978
 42.070    587.000    557.531     29.469    543.894    555.885    545.543    543.894    543.894
 42.170    541.000    560.199    -19.199    543.811    558.479    545.536    543.811    543.811
 42.270    536.000    564.680    -28.680    543.730    562.821    545.595    543.730    543.730
 42.370    574.000    572.061      1.939    543.651    569.960    545.761    543.651    543.651
 42.470    540.000    583.516    -43.516    543.574    581.030    546.074    543.574    543.574
 42.570    552.000    599.789    -47.789    543.498    596.748    546.561    543.498    543.498
 42.670    624.000    620.410      3.590    543.424    616.661    547.204    543.424    543.424
 42.770    633.000    642.783     -9.783    543.351    638.265    547.913    543.351    543.351
 42.870    621.000    661.388    -40.388    543.280    656.232    548.491    543.280    543.280
 42.970    686.722    668.825     17.897    543.211    663.422    548.675    543.211    543.211
 43.070    607.000    661.226    -54.226    543.143    656.100    548.329    543.143    543.143
 43.170    648.000    642.511      5.489    543.077    638.047    547.592    543.077    543.077
 43.270    590.209    620.085    -29.876    543.013    616.412    546.725    543.013    543.013
 43.370    617.000    599.448     17.552    542.950    596.502    545.924    542.950    542.950
 43.470    551.960    583.174    -31.214    542.889    580.802    545.280    542.889    542.889
 43.570    595.000    571.716     23.284    542.829    569.748    544.809    542.829    542.829
 43.670    558.000    564.325     -6.325    542.771    562.619    544.485    542.771    542.771
 43.770    588.176    559.824     28.352    542.715    558.278    544.265    542.715    542.715
 43.870    581.470    557.127     24.343    542.660    555.679    544.112    542.660    542.660
 43.970    517.000    555.462    -38.462    542.606    554.074    543.998    542.606    542.606
 44.070    597.644    554.365     43.279    542.554    553.015    543.906    542.554    542.554
 44.170    556.818    553.588      3.230    542.504    552.266    543.828    542.504    542.504
 44.270    516.594    553.009    -36.415    542.455    551.706    543.759    542.455    542.455
 44.370    534.000    552.565    -18.565    542.408    551.277    543.697    542.408    542.408
 44.470    507.608    552.221    -44.613    542.362    550.943    543.641    542.362    542.362
 44.570    525.000    551.956    -26.956    542.318    550.684    543.591    542.318    542.318
 44.670    568.000    551.755     16.245    542.275    550.486    543.544    542.275    542.275
 44.770    548.000    551.606     -3.606    542.234    550.338    543.502    542.234    542.234
 44.870    531.000    551.503    -20.503    542.194    550.233    543.465    542.194    542.194
 44.970    531.000    551.439    -20.439    542.156    550.165    543.430    542.156    542.156
 45.070    542.055    551.410     -9.356    542.119    550.129    543.400    542.119    542.119
 45.170    564.000    551.412     12.588    542.083    550.122    543.373    542.083    542.083
 45.270    588.000    551.444     36.556    542.049    550.143    543.350    542.049    542.049
 45.370    542.000    551.502     -9.502    542.017    550.188    543.331    542.017    542.017
 45.470    569.000    551.587     17.413    541.986    550.258    543.315    541.986    541.986
 45.570    605.000    551.699     53.301    541.956    550.351    543.303    541.956    541.956
 45.670    525.000    551.836    -26.836    541.928    550.468    543.295    541.928    541.928
 45.770    544.000    552.000     -8.000    541.901    550.609    543.291    541.901    541.901
 45.870    561.579    552.191      9.387    541.875    550.775    543.291    541.875    541.875
 45.970    529.000    552.412    -23.412    541.851    550.967    543.296    541.851    541.851
 46.070    551.844    552.665     -0.821    541.828    551.188    543.305    541.828    541.828
 46.170    571.000    552.952     18.048    541.807    551.438    543.319    541.807    541.807
 46.270    506.390    553.276    -46.886    541.787    551.723    543.339    541.787    541.787
 46.370    530.946    553.643    -22.697    541.768    552.045    543.365    541.768    541.768
 46.470    527.000    554.058    -27.058    541.751    552.411    543.397    541.751    541.751
 46.570    559.275    554.529      4.746    541.735    552.826    543.437    541.735    541.735
 46.670    546.000    555.065     -9.065    541.720    553.299    543.485    541.720    541.720
 46.770    581.000    555.681     25.319    541.707    553.844    543.542    541.707    541.707
 46.870    521.000    556.396    -35.396    541.695    554.477    543.611    541.695    541.695
 46.970    545.000    557.245    -12.245    541.684    555.231    543.695    541.684    541.684
 47.070    575.957    558.289     17.667    541.674    556.162    543.798    541.674    541.674
 47.170    553.000    559.645     -6.645    541.666    557.376    543.931    541.666    541.666
 47.270    536.000    561.517    -25.517    541.659    559.061    544.111    541.659    541.659
 47.370    570.000    564.247      5.753    541.654    561.529    544.366    541.654    541.654
 47.470    542.674    568.328    -25.654    541.649    565.232    544.736    541.649    541.649
 47.570    583.068    574.363      8.705    541.646    570.723    545.272    541.646    541.646
 47.670    648.000    582.910     65.090    541.644    578.515    546.020    541.644    541.644
 47.770    561.000    594.221    -33.221    541.643    588.836    547.001    541.643    541.643
 47.870    551.000    607.892    -56.892    541.644    601.317    548.183    541.644    541.644
 47.970    644.000    622.483     21.517    541.645    614.633    549.450    541.645    541.645
 48.070    656.186    635.226     20.960    541.648    626.243    550.578    541.648    541.648
 48.170    663.564    642.505     21.059    541.652    632.828    551.274    541.652    541.652
 48.270    663.000    641.937     21.063    541.657    632.197    551.344    541.657    541.657
 48.370    699.000    634.412     64.588    541.664    625.164    550.866    541.664    541.664
 48.470    657.143    623.252     33.891    541.671    614.774    550.112    541.671    541.671
 48.570    579.652    611.839    -32.186    541.680    604.127    549.363    541.680    541.680
 48.670    605.000    602.368      2.632    541.690    595.234    548.804    541.690    541.690
 48.770    641.733    595.839     45.894    541.700    589.004    548.521    541.700    541.700
 48.870    582.000    592.410    -10.410    541.713    585.575    548.537    541.713    541.713
 48.970    559.000    591.781    -32.781    541.726    584.659    548.840    541.726    541.726
 49.070    631.000    593.520     37.480    541.740    585.844    549.409    541.740    541.740
 49.170    551.859    597.324    -45.465    541.755    588.828    550.245    541.755    541.755
 49.270    592.773    603.222    -10.449    541.772    593.594    551.394    541.772    541.772
 49.370    586.348    611.865    -25.517    541.789    600.649    552.999    541.789    541.789
 49.470    620.000    625.164     -5.164    541.807    611.544    555.420    541.807    541.807
 49.570    630.001    647.588    -17.586    541.827    629.934    559.469    541.827    541.827
 49.670    671.433    688.225    -16.792    541.848    663.265    566.788    541.848    541.848
 49.770    791.775    762.953     28.822    541.869    724.547    580.239    541.869    541.869
 49.870    869.714    894.630    -24.915    541.892    832.517    603.941    541.892    541.892
 49.970   1141.000   1108.192     32.808    541.915   1007.618    642.389    541.915    541.915
 50.070   1449.621   1418.668     30.952    541.940   1262.174    698.290    541.940    541.940
 50.170   1739.000   1814.359    -75.359    541.966   1586.608    769.535    541.966    541.966
 50.270   2268.051   2241.969     26.082    541.992   1937.249    846.518    541.992    541.992
 50.370   2492.000   2602.580   -110.580    542.020   2233.033    911.408    542.020    542.020
 50.470   2700.891   2775.639    -74.748    542.048   2375.153    942.463    542.048    542.048
 50.570   2721.493   2690.034     31.460    542.078   2305.326    926.831    542.078    542.078
 50.670   2354.000   2384.698    -30.698    542.108   2055.515    871.430    542.108    542.108
 50.770   1974.000   1972.340      1.660    542.139   1718.081    796.579    542.139    542.139
 50.870   1504.000   1563.336    -59.336    542.172   1383.544    722.140    542.172    542.172
 50.970   1185.276   1227.151    -41.875    542.205   1108.942    660.560    542.205    542.205
 51.070   1052.096    988.613     63.483    542.239    914.646    616.315    542.239    542.239
 51.170    786.089    839.801    -53.712    542.274    794.092    588.060    542.274    542.274
 51.270    707.149    756.885    -49.737    542.309    727.563    571.687    542.309    542.309
 51.370    695.176    714.110    -18.934    542.346    693.626    562.873    542.346    542.346
 51.470    667.306    691.305    -24.000    542.383    675.344    558.381    542.383    542.383
 51.570    676.000    676.076     -0.076    542.422    662.248    556.282    542.422    542.422
 51.670    618.000    662.946    -44.946    542.461    649.818    555.615    542.461    542.461
 51.770    648.000    650.815     -2.815    542.501    637.394    555.942    542.501    542.501
 51.870    605.000    640.228    -35.228    542.542    625.787    556.997    542.542    542.542
 51.970    657.716    631.745     25.971    542.583    615.869    558.468    542.583    542.583
 52.070    606.000    625.393    -19.393    542.626    608.129    559.895    542.626    542.626
 52.170    604.000    620.697    -16.697    542.669    602.677    560.691    542.669    542.669
 52.270    626.000    617.024      8.976    542.713    599.359    560.378    542.713    542.713
 52.370    656.000    614.064     41.936    542.757    597.919    558.903    542.757    542.757
 52.470    632.763    612.001     20.761    542.803    598.135    556.669    542.803    542.803
 52.570    676.000    611.339     64.661    542.849    599.958    554.230    542.849    542.849
 52.670    630.000    612.754     17.246    542.896    603.629    552.021    542.896    542.896
 52.770    631.000    617.189     13.811    542.943    609.847    550.286    542.943    542.943
 52.870    649.000    626.081     22.919    542.992    619.967    549.105    542.992    542.992
 52.970    623.000    641.625    -18.625    543.040    636.201    548.464    543.040    543.040
 53.070    618.525    666.898    -48.373    543.090    661.675    548.311    543.090    543.090
 53.170    713.837    705.622      8.214    543.140    700.158    548.602    543.140    543.140
 53.270    796.000    761.382     34.618    543.191    755.254    549.315    543.191    543.191
 53.370    873.000    836.241     36.759    543.243    829.046    550.432    543.243    543.243
 53.470    984.000    928.982     55.018    543.295    920.371    551.899    543.295    543.295
 53.570   1031.000   1033.182     -2.182    543.348   1022.932    553.591    543.348    543.348
 53.670   1132.000   1135.365     -3.365    543.402   1123.494    555.268    543.402    543.402
 53.770   1229.000   1214.469     14.531    543.456   1201.363    556.563    543.456    543.456
 53.870   1195.000   1247.179    -52.179    543.511   1233.655    557.043    543.511    543.511
 53.970   1169.000   1221.882    -52.882    543.566   1208.916    556.550    543.566    543.566
 54.070   1112.000   1148.126    -36.126    543.622   1136.504    555.267    543.622    543.622
 54.170   1039.488   1048.497     -9.009    543.678   1038.649    553.552    543.678    543.678
 54.270    922.000    944.642    -22.642    543.735    936.630    551.772    543.735    543.735
 54.370    889.570    850.957     38.613    543.793    844.601    550.170    543.793    543.793
 54.470    780.821    774.636      6.185    543.851    769.634    548.869    543.851    543.851
 54.570    698.095    717.420    -19.326    543.910    713.444    547.898    543.910    543.910
 54.670    656.000    677.512    -21.512    543.969    674.264    547.225    543.969    543.969
 54.770    625.000    651.365    -26.365    544.028    648.609    546.790    544.028    544.028
 54.870    647.000    635.123     11.877    544.088    632.689    546.526    544.088    544.088
 54.970    583.857    625.503    -41.646    544.149    623.278    546.376    544.149    544.149
 55.070    593.000    620.123    -27.123    544.210    618.036    546.299    544.210    544.210
 55.170    619.631    617.462      2.169    544.271    615.467    546.268    544.271    544.271
 55.270    644.000    616.648     27.352    544.333    614.715    546.267    544.333    544.333
 55.370    636.291    617.238     19.053    544.396    615.345    546.289    544.396    544.396
 55.470    644.163    619.050     25.113    544.459    617.181    546.328    544.459    544.459
 55.570    598.000    622.065    -24.065    544.522    620.204    546.382    544.522    544.522
 55.670    581.053    626.399    -45.345    544.585    624.532    546.452    544.585    544.585
 55.770    643.000    632.335     10.665    544.649    630.446    546.537    544.649    544.649
 55.870    624.798    640.448    -15.650    544.714    638.518    546.642    544.714    544.714
 55.970    700.000    651.857     48.143    544.779    649.860    546.773    544.779    544.779
 56.070    694.034    668.681     25.352    544.844    666.577    546.943    544.844    544.844
 56.170    701.000    694.693      6.307    544.909    692.419    547.176    544.909    544.909
 56.270    684.000    736.071    -52.071    544.975    733.523    547.510    544.975    544.975
 56.370    749.396    801.888    -52.492    545.041    798.906    548.001    545.041    545.041
 56.470    839.000    903.726    -64.726    545.107    900.075    548.724    545.107    545.107
 56.570   1047.000   1053.731     -6.731    545.174   1049.103    549.753    545.174    545.174
 56.670   1326.536   1260.776     65.761    545.241   1254.810    551.144    545.241    545.241
 56.770   1485.000   1525.127    -40.127    545.308   1517.461    552.901    545.308    545.308
 56.870   1893.000   1832.708     60.292    545.376   1823.077    554.936    545.376    545.376
 56.970   2136.506   2150.213    -13.707    545.444   2138.563    557.042    545.444    545.444
 57.070   2397.000   2423.404    -26.404    545.512   2410.026    558.882    545.512    545.512
 57.170   2654.780   2586.188     68.592    545.580   2571.782    560.045    545.580    545.580
 57.270   2694.000   2589.009    104.991    545.649   2574.565    560.222    545.649    545.649
 57.370   2418.000   2431.260    -13.260    545.718   2417.742    559.415    545.718    545.718
 57.470   2122.000   2161.790    -39.790    545.787   2149.843    557.931    545.787    545.787
 57.570   1794.000   1846.812    -52.812    545.856   1836.663    556.192    545.856    545.856
 57.670   1482.000   1541.067    -59.067    545.925   1532.599    554.554    545.925    545.925
 57.770   1343.028   1278.447     64.581    545.995   1271.313    553.254    545.995    545.995
 57.870   1022.000   1073.648    -51.648    546.064   1067.363    552.440    546.064    546.064
 57.970    881.103    927.143    -46.040    546.134    921.118    552.220    546.134    546.134
 58.070    853.000    831.073     21.927    546.204    824.576    552.738    546.204    546.204
 58.170    793.023    774.784     18.238    546.274    766.840    554.237    546.274    546.274
 58.270    743.000    748.839     -5.839    546.344    738.090    557.096    546.344    546.344
 58.370    801.242    746.938     54.304    546.415    731.549    561.794    546.415    546.415
 58.470    809.000    765.924     43.076    546.485    743.625    568.763    546.485    546.485
 58.570    791.971    804.536    -12.565    546.556    772.903    578.156    546.556    546.556
 58.670    830.000    861.588    -31.588    546.626    818.598    589.573    546.626    546.626
 58.770    925.000    934.173     -9.173    546.697    878.968    601.852    546.697    546.697
 58.870   1051.000   1016.298     34.702    546.768    949.997    613.018    546.768    546.768
 58.970   1061.472   1098.669    -37.197    546.838   1024.891    620.573    546.838    546.838
 59.070   1222.000   1170.832     51.168    546.909   1095.339    622.372    546.909    546.909
 59.170   1260.000   1225.095     34.905    546.980   1154.202    617.861    546.980    546.980
 59.270   1237.823   1257.951    -20.128    547.051   1196.507    608.501    547.051    547.051
 59.370   1266.000   1267.630     -1.630    547.122   1217.984    596.790    547.122    547.122
 59.470   1258.417   1253.796      4.621    547.192   1215.964    585.055    547.192    547.192
 59.570   1288.000   1221.434     66.566    547.263   1193.847    574.879    547.263    547.263
 59.670   1205.000   1182.257     22.743    547.334   1162.594    567.010    547.334    547.334
 59.770   1241.000   1150.131     90.869    547.404   1136.020    561.501    547.404    547.404
 59.870   1098.706   1135.996    -37.291    547.475   1125.452    557.967    547.475    547.475
 59.970   1118.000   1146.482    -28.482    547.546   1138.081    555.850    547.546    547.546
 60.070   1261.000   1184.846     76.154    547.616   1177.684    554.634    547.616    547.616
 60.170   1316.000   1250.939     65.061    547.687   1244.487    553.945    547.687    547.687
 60.270   1268.395   1338.843    -70.447    547.757   1332.805    553.557    547.757    547.757
 60.370   1474.000   1434.339     39.661    547.827   1428.553    553.343    547.827    547.827
 60.470   1438.017   1514.865    -76.848    547.897   1509.249    553.231    547.897    547.897
 60.570   1576.000   1554.247     21.753    547.967   1548.771    553.176    547.967    547.967
 60.670   1612.465   1533.709     78.756    548.037   1528.365    553.152    548.037    548.037
 60.770   1551.000   1452.952     98.048    548.107   1447.727    553.154    548.107    548.107
 60.870   1396.000   1329.834     66.166    548.176   1324.684    553.196    548.176    548.176
 60.970   1243.000   1189.273     53.727    548.245   1184.125    553.305    548.245    548.245
 61.070   1074.000   1053.024     20.976    548.315   1047.768    553.512    548.315    548.315
 61.170    958.000    935.677     22.323    548.384    930.162    553.860    548.384    548.384
 61.270    882.000    844.662     37.338    548.452    838.667    554.418    548.452    548.452
 61.370    800.964    781.868     19.096    548.521    775.059    555.303    548.521    548.521
 61.470    786.884    745.990     40.894    548.589    737.846    556.704    548.589    548.589
 61.570    788.000    734.922     53.078    548.657    724.635    558.907    548.657    548.657
 61.670    741.000    747.520     -6.520    548.725    733.890    562.305    548.725    548.725
 61.770    834.121    784.240     49.881    548.793    765.605    567.359    548.793    548.793
 61.870    882.000    846.543     35.457    548.860    820.798    574.511    548.860    548.860
 61.970    897.677    935.279    -37.602    548.927    900.048    584.037    548.927    548.927
 62.070   1104.093   1048.536     55.557    548.994   1001.521    595.856    548.994    548.994
 62.170   1144.000   1179.531    -35.531    549.060   1119.057    609.354    549.060    549.060
 62.270   1284.000   1315.068    -31.068    549.126   1240.746    623.249    549.126    549.126
 62.370   1420.346   1435.138    -14.791    549.192   1348.562    635.565    549.192    549.192
 62.470   1560.621   1515.348     45.273    549.258   1420.536    643.882    549.258    549.258
 62.570   1484.000   1534.806    -50.806    549.323   1437.850    646.122    549.323    549.323
 62.670   1437.000   1487.407    -50.407    549.388   1394.992    641.684    549.388    549.388
 62.770   1316.000   1386.071    -70.071    549.452   1303.583    631.858    549.452    549.452
 62.870   1199.000   1254.521    -55.521    549.516   1184.969    619.015    549.516    549.516
 62.970   1116.000   1116.047     -0.047    549.580   1060.115    605.480    549.580    549.580
 63.070   1006.275    987.824     18.451    549.643    944.479    592.970    549.643    549.643
 63.170    874.741    879.928     -5.188    549.706    847.131    582.493    549.706    549.706
 63.270    796.000    796.195     -0.195    549.769    771.519    574.437    549.769    549.769
 63.370    726.000    735.805     -9.805    549.831    716.903    568.725    549.831    549.831
 63.470    649.000    695.182    -46.182    549.892    680.060    565.006    549.892    549.892
 63.570    657.000    669.784    -12.784    549.954    656.893    562.835    549.954    549.954
 63.670    655.000    655.508     -0.508    550.014    643.695    561.816    550.014    550.014
 63.770    637.000    649.328    -12.328    550.075    637.715    561.674    550.075    550.075
 63.870    660.000    649.625     10.375    550.135    637.446    562.298    550.135    550.135
 63.970    704.614    656.142     48.472    550.194    642.554    563.761    550.194    550.194
 64.070    674.888    669.774      5.113    550.253    653.667    566.333    550.253    550.253
 64.170    733.187    692.275     40.912    550.311    672.071    570.478    550.311    550.311
 64.270    679.177    725.826    -46.649    550.369    699.304    576.841    550.369    550.369
 64.370    841.000    772.450     68.550    550.427    736.643    586.166    550.427    550.427
 64.470    881.000    833.244     47.756    550.483    784.482    599.158    550.483    550.483
 64.570    917.000    907.503      9.497    550.540    841.680    616.252    550.540    550.540
 64.670   1011.000    991.819     19.181    550.595    904.936    637.345    550.595    550.595
 64.770   1021.438   1079.358    -57.920    550.651    968.329    661.527    550.651    550.651
 64.870   1217.000   1159.768     57.232    550.705   1023.437    686.871    550.705    550.705
 64.970   1307.000   1220.712     86.288    550.759   1060.938    710.367    550.759    550.759
 65.070   1250.359   1251.425     -1.066    550.813   1073.919    728.166    550.813    550.813
 65.170   1205.352   1246.602    -41.250    550.866   1060.850    736.489    550.866    550.866
 65.270   1208.171   1208.251     -0.080    550.918   1025.834    733.238    550.918    550.918
 65.370   1134.840   1144.833     -9.992    550.969    976.522    719.215    550.969    550.969
 65.470   1129.839   1068.033     61.806    551.020    921.364    697.653    551.020    551.020
 65.570    970.000    988.886    -18.886    551.071    867.364    672.579    551.071    551.071
 65.670    935.000    915.312     19.688    551.121    818.963    647.474    551.121    551.121
 65.770    837.000    851.574    -14.574    551.170    778.001    624.758    551.170    551.170
 65.870    749.000    798.946    -49.946    551.218    744.417    605.768    551.218    551.218
 65.970    747.000    756.896     -9.896    551.266    717.258    590.927    551.266    551.266
 66.070    714.870    724.131     -9.262    551.313    695.473    579.992    551.313    551.313
 66.170    671.923    699.164    -27.241    551.359    678.209    572.331    551.359    551.359
 66.270    712.000    680.534     31.466    551.405    664.778    567.174    551.405    551.405
 66.370    689.000    666.942     22.058    551.450    654.613    563.788    551.450    551.450
 66.470    638.000    657.358    -19.358    551.494    647.276    561.581    551.494    551.494
 66.570    658.000    651.045      6.955    551.538    642.464    560.121    551.538    551.538
 66.670    625.000    647.533    -22.533    551.581    639.991    559.124    551.581    551.581
 66.770    655.408    646.575      8.833    551.623    639.783    558.415    551.623    551.623
 66.870    625.000    648.141    -23.141    551.664    641.911    557.893    551.664    551.664
 66.970    631.000    652.493    -21.493    551.704    646.690    557.507    551.704    551.704
 67.070    622.000    660.332    -38.332    551.744    654.841    557.234    551.744    551.744
 67.170    712.000    673.021     38.979    551.783    667.732    557.070    551.783    551.783
 67.270    738.842    692.867     45.975    551.821    687.653    557.031    551.821    551.821
 67.370    709.000    723.382    -14.382    551.859    718.086    557.149    551.859    551.859
 67.470    735.000    769.433    -34.433    551.895    763.847    557.472    551.895    551.895
 67.570    862.000    837.080     24.920    551.931    830.932    558.064    551.931    551.931
 67.670    902.000    932.949    -30.949    551.966    925.899    558.997    551.966    551.966
 67.770    987.000   1063.000    -76.000    552.000   1054.644    560.333    552.000    552.000
 67.870   1244.399   1230.757     13.642    552.034   1220.657    562.110    552.034    552.034
 67.970   1420.000   1435.220    -15.220    552.066   1422.952    564.315    552.066    552.066
 68.070   1673.000   1668.838      4.162    552.098   1654.071    566.860    552.098    552.098
 68.170   1919.000   1915.881      3.119    552.128   1898.464    569.568    552.128    552.128
 68.270   2057.000   2151.572    -94.572    552.158   2131.635    572.157    552.158    552.158
 68.370   2334.092   2343.209     -9.117    552.187   2321.251    574.258    552.187    552.187
 68.470   2484.000   2456.041     27.959    552.215   2432.949    575.480    552.215    552.215
 68.570   2430.000   2465.406    -35.406    552.242   2442.333    575.543    552.242    552.242
 68.670   2418.000   2369.031     48.969    552.269   2347.143    574.422    552.269    552.269
 68.770   2146.000   2188.396    -42.396    552.294   2168.612    572.357    552.294    552.294
 68.870   2072.000   1957.625    114.375    552.319   1940.480    569.731    552.319    552.319
 68.970   1646.051   1710.450    -64.400    552.342   1696.108    566.925    552.342    552.342
 69.070   1543.877   1473.184     70.694    552.365   1461.519    564.234    552.365    552.365
 69.170   1235.000   1263.052    -28.052    552.386   1253.752    561.852    552.386    552.386
 69.270   1050.000   1088.876    -38.876    552.407   1081.534    559.877    552.407    552.407
 69.370    950.000    952.617     -2.617    552.427    946.806    558.332    552.427    552.427
 69.470    918.000    851.348     66.652    552.445    846.677    557.183    552.445    552.445
 69.570    772.000    779.354     -7.354    552.463    775.498    556.366    552.463    552.463
 69.670    694.741    729.984    -35.243    552.480    726.690    555.806    552.480    552.480
 69.770    727.000    696.972     30.028    552.496    694.057    555.432    552.496    552.496
 69.870    677.000    675.160      1.840    552.510    672.499    555.186    552.510    552.510
 69.970    691.000    660.713     30.287    552.524    658.226    555.022    552.524    552.524
 70.070    688.045    651.021     37.024    552.537    648.649    554.915    552.537    552.537
 70.170    663.000    644.412     18.588    552.549    642.119    554.846    552.549    552.549
 70.270    598.757    639.889    -41.132    552.559    637.648    554.803    552.559    552.559
 70.370    656.000    636.887     19.113    552.569    634.678    554.779    552.569    552.569
 70.470    666.695    635.115     31.580    552.578    632.922    554.771    552.578    552.578
 70.570    632.000    634.458     -2.458    552.585    632.263    554.778    552.585    552.585
 70.670    688.524    634.937     53.587    552.592    632.724    554.802    552.592    552.592
 70.770    658.000    636.719     21.281    552.597    634.466    554.845    552.597    552.597
 70.870    686.520    640.160     46.360    552.601    637.842    554.913    552.601    552.601
 70.970    635.000    645.904    -10.904    552.605    643.483    555.016    552.605    552.605
 71.070    675.000    654.997     20.003    552.607    652.418    555.172    552.607    552.607
 71.170    682.499    669.035     13.464    552.608    666.219    555.405    552.608    552.608
 71.270    673.599    690.292    -16.693    552.608    687.122    555.751    552.608    552.608
 71.370    757.000    721.767     35.233    552.607    718.078    556.259    552.607    552.607
 71.470    782.633    767.074     15.559    552.604    762.642    556.984    552.604    552.604
 71.570    807.000    830.093    -23.093    552.601    824.634    557.989    552.601    552.601
 71.670    882.000    914.339    -32.339    552.597    907.511    559.329    552.597    552.597
 71.770    964.006   1022.062    -58.056    552.591   1013.489    561.040    552.591    552.591
 71.870   1161.000   1153.207      7.793    552.584   1142.512    563.122    552.584    552.584
 71.970   1308.000   1304.374      3.626    552.576   1291.237    565.522    552.576    552.576
 72.070   1492.000   1467.948     24.052    552.567   1452.171    568.122    552.567    552.567
 72.170   1677.000   1631.500     45.500    552.557   1613.081    570.729    552.557    552.557
 72.270   1838.121   1777.764     60.357    552.546   1756.979    573.071    552.546    552.546
 72.370   1806.093   1886.213    -80.120    552.533   1863.662    574.827    552.533    552.533
 72.470   1950.000   1937.737     12.263    552.519   1914.322    575.699    552.519    552.519
 72.570   1947.000   1921.904     25.096    552.504   1898.686    575.522    552.504    552.504
 72.670   1812.000   1842.036    -30.036    552.488   1820.018    574.349    552.488    552.488
 72.770   1735.298   1713.415     21.883    552.471   1693.352    572.419    552.471    552.471
 72.870   1606.000   1556.475     49.525    552.452   1538.797    570.050    552.452    552.452
 72.970   1471.000   1390.525     80.475    552.432   1375.364    567.543    552.432    552.432
 73.070   1171.000   1230.665    -59.665    552.411   1217.919    565.127    552.411    552.411
 73.170   1049.924   1087.076    -37.152    552.389   1076.493    562.955    552.389    552.389
 73.270    971.000    965.357      5.643    552.366    956.607    561.108    552.366    552.366
 73.370    856.000    867.270    -11.270    552.341    859.997    559.610    552.341    552.341
 73.470    807.000    791.705     15.295    552.315    785.572    558.446    552.315    552.315
 73.570    732.000    735.752     -3.752    552.288    730.458    557.580    552.288    552.288
 73.670    708.810    695.688     13.123    552.260    690.976    556.969    552.260    552.260
 73.770    695.000    667.752     27.248    552.230    663.406    556.573    552.230    552.230
 73.870    680.000    648.645     31.355    552.199    644.483    556.359    552.199    552.199
 73.970    649.000    635.761     13.239    552.167    631.620    556.307    552.167    552.167
 74.070    616.000    627.208    -11.208    552.133    622.933    556.409    552.133    552.133
 74.170    572.000    621.707    -49.707    552.099    617.143    556.665    552.099    552.099
 74.270    592.000    618.439    -26.439    552.063    613.429    557.078    552.063    552.063
 74.370    612.000    616.887     -4.887    552.025    611.272    557.649    552.025    552.025
 74.470    615.162    616.699     -1.537    551.987    610.328    558.372    551.987    551.987
 74.570    633.841    617.588     16.254    551.947    610.329    559.225    551.947    551.947
 74.670    617.000    619.258     -2.258    551.906    611.018    560.169    551.906    551.906
 74.770    648.000    621.359     26.641    551.863    612.105    561.146    551.863    551.863
 74.870    651.000    623.469     27.531    551.819    613.248    562.075    551.819    551.819
 74.970    688.000    625.106     62.894    551.774    614.061    562.858    551.774    551.774
 75.070    697.000    625.804     71.196    551.728    614.172    563.401    551.728    551.728
 75.170    699.000    625.255     73.745    551.680    613.331    563.646    551.680    551.680
 75.270    700.000    623.449     76.551    551.631    611.521    563.599    551.631    551.631
 75.370    672.610    620.703     51.907    551.580    608.976    563.345    551.580    551.580
 75.470    682.000    617.569     64.431    551.528    606.110    563.020    551.528    551.528
 75.570    596.516    614.701    -18.184    551.475    603.408    562.794    551.475    551.475
 75.670    693.000    612.774     80.226    551.421    601.368    562.846    551.421    551.421
 75.770    621.000    612.465      8.535    551.365    600.477    563.366    551.365    551.365
 75.870    652.000    614.454     37.546    551.308    601.211    564.556    551.308    551.308
 75.970    591.553    619.411    -27.858    551.249    604.036    566.621    551.249    551.249
 76.070    663.000    627.965     35.035    551.189    609.380    569.763    551.189    551.189
 76.170    606.438    640.636    -34.198    551.128    617.592    574.152    551.128    551.128
 76.270    645.681    657.736    -12.054    551.066    628.876    579.896    551.066    551.066
 76.370    692.000    679.249     12.751    551.002    643.212    587.000    551.002    551.002
 76.470    692.000    704.710    -12.710    550.936    660.273    595.323    550.936    550.936
 76.570    733.000    733.088     -0.088    550.869    679.350    604.547    550.869    550.869
 76.670    818.000    762.705     55.295    550.801    699.294    614.142    550.801    550.801
 76.770    834.829    791.188     43.642    550.732    718.484    623.357    550.732    550.732
 76.870    760.934    815.534    -54.600    550.661    734.875    631.235    550.661    550.661
 76.970    855.000    832.451     22.549    550.589    746.224    636.731    550.589    550.589
 77.070    855.000    839.142     15.858    550.515    750.623    638.951    550.515    550.515
 77.170    823.000    834.323    -11.323    550.440    747.199    637.488    550.440    550.440
 77.270    789.000    818.803    -29.803    550.363    736.499    632.601    550.363    550.363
 77.370    773.494    795.086    -21.592    550.285    720.224    625.091    550.285    550.285
 77.470    744.000    766.405    -22.405    550.206    700.576    615.990    550.206    550.206
 77.570    709.000    735.828    -26.828    550.125    679.641    606.277    550.125    550.125
 77.670    711.000    705.839      5.161    550.043    659.107    596.748    550.043    550.043
 77.770    628.000    678.218    -50.218    549.960    640.186    587.971    549.960    549.960
 77.870    650.190    654.067     -3.877    549.875    623.627    580.300    549.875    549.875
 77.970    636.176    633.891      2.285    549.788    609.773    573.895    549.788    549.788
 78.070    626.000    617.714      8.286    549.700    598.641    568.766    549.700    549.700
 78.170    515.000    605.215    -90.215    549.611    590.010    564.810    549.611    549.611
 78.270    565.000    595.870    -30.870    549.520    583.525    561.861    549.520    549.520
 78.370    568.398    589.074    -20.676    549.428    578.772    559.726    549.428    549.428
 78.470    590.924    584.238      6.685    549.335    575.351    558.218    549.335    549.335
 78.570    561.811    580.850    -19.039    549.240    572.913    557.174    549.240    549.240
 78.670    586.000    578.499      7.501    549.143    571.176    556.463    549.143    549.143
 78.770    543.861    576.877    -33.016    549.046    569.931    555.988    549.046    549.046
 78.870    517.000    575.771    -58.771    548.946    569.033    555.682    548.946    548.946
 78.970    564.000    575.042    -11.042    548.846    568.385    555.500    548.846    548.846
 79.070    599.000    574.607     24.393    548.743    567.929    555.418    548.743    548.743
 79.170    626.000    574.423     51.577    548.640    567.637    555.424    548.640    548.640
 79.270    602.705    574.478     28.226    548.535    567.496    555.514    548.535    548.535
 79.370    528.364    574.783    -46.419    548.428    567.511    555.698    548.428    548.428
 79.470    554.000    575.368    -21.368    548.320    567.693    555.993    548.320    548.320
 79.570    561.121    576.286    -15.164    548.211    568.065    556.429    548.211    548.211
 79.670    572.000    577.616     -5.616    548.100    568.656    557.057    548.100    548.100
 79.770    594.000    579.478     14.522    547.988    569.505    557.956    547.988    547.988
 79.870    550.000    582.045    -32.045    547.874    570.665    559.249    547.874    547.874
 79.970    549.876    585.568    -35.692    547.759    572.206    561.115    547.759    547.759
 80.070    581.000    590.397     -9.397    547.642    574.222    563.811    547.642    547.642
 80.170    558.000    597.005    -39.005    547.524    576.839    567.681    547.524    547.524
 80.270    639.784    605.990     33.793    547.405    580.221    573.163    547.405    547.405
 80.370    616.000    618.070     -2.070    547.284    584.570    580.770    547.284    547.284
 80.470    599.000    634.029    -35.029    547.161    590.118    591.056    547.161    547.161
 80.570    639.000    654.649    -15.649    547.038    597.124    604.544    547.038    547.038
 80.670    724.000    680.597     43.403    546.912    605.856    621.631    546.912    546.912
 80.770    710.000    712.286     -2.286    546.785    616.566    642.481    546.785    546.785
 80.870    761.000    749.709     11.291    546.657    629.442    666.897    546.657    546.657
 80.970    782.000    792.262    -10.262    546.528    644.541    694.221    546.528    546.528
 81.070    852.270    838.589     13.681    546.396    661.705    723.253    546.396    546.396
 81.170    857.000    886.503    -29.503    546.264    680.505    752.237    546.264    546.264
 81.270    964.207    933.034     31.174    546.130    700.217    778.928    546.130    546.130
 81.370    957.000    974.706    -17.706    545.994    719.860    800.829    545.994    545.994
 81.470   1053.901   1008.105     45.796    545.857    738.328    815.634    545.857    545.857
 81.570   1030.135   1030.592     -0.457    545.719    754.564    821.761    545.719    545.719
 81.670   1078.249   1040.793     37.456    545.579    767.699    818.700    545.579    545.579
 81.770   1093.000   1038.640     54.360    545.438    777.125    806.994    545.438    545.438
 81.870   1028.462   1025.169      3.293    545.295    782.511    788.006    545.295    545.295
 81.970   1017.000   1002.260     14.740    545.151    783.806    763.668    545.151    545.151
 82.070    950.000    972.259    -22.259    545.005    781.132    736.203    545.005    545.005
 82.170    975.000    937.706     37.294    544.858    774.814    707.826    544.858    544.858
 82.270    938.018    900.779     37.240    544.710    765.159    680.406    544.710    544.710
 82.370    822.000    863.326    -41.326    544.560    752.648    655.315    544.560    544.560
 82.470    793.000    826.890    -33.890    544.408    737.989    633.385    544.408    544.408
 82.570    821.455    792.642     28.814    544.256    722.008    614.961    544.256    544.256
 82.670    728.000    761.288    -33.288    544.101    705.463    599.995    544.101    544.101
 82.770    688.000    733.078    -45.078    543.946    688.916    588.170    543.946    543.946
 82.870    667.003    707.942    -40.939    543.788    672.765    579.023    543.788    543.788
 82.970    648.000    685.706    -37.706    543.630    657.339    572.047    543.630    543.630
 83.070    708.765    666.239     42.526    543.470    642.979    566.774    543.470    543.470
 83.170    676.623    649.497     27.125    543.309    630.033    562.809    543.309    543.309
 83.270    605.000    635.481    -30.481    543.146    618.811    559.845    543.146    543.146
 83.370    563.000    624.197    -61.197    542.982    609.545    557.654    542.982    542.982
 83.470    596.000    615.622    -19.622    542.816    602.371    556.078    542.816    542.816
 83.570    661.485    609.687     51.798    542.649    597.332    555.008    542.649    542.649
 83.670    600.389    606.263     -5.874    542.480    594.373    554.367    542.480    542.480
 83.770    652.006    605.145     46.861    542.310    593.350    554.094    542.310    542.310
 83.870    569.161    606.038    -36.876    542.139    594.026    554.131    542.139    542.139
 83.970    656.521    608.549     47.973    541.967    596.075    554.414    541.967    541.967
 84.070    567.000    612.191    -45.191    541.792    599.085    554.864    541.792    541.792
 84.170    600.000    616.387    -16.387    541.617    602.573    555.392    541.617    541.617
 84.270    657.193    620.490     36.703    541.440    605.995    555.891    541.440    541.440
 84.370    634.686    623.818     10.869    541.262    608.782    556.251    541.262    541.262
 84.470    614.000    625.734    -11.734    541.082    610.403    556.365    541.082    541.082
 84.570    588.000    625.768    -37.768    540.901    610.464    556.158    540.901    540.901
 84.670    591.000    623.734    -32.734    540.719    608.810    555.598    540.719    540.719
 84.770    610.000    619.779     -9.779    540.535    605.556    554.716    540.535    540.535
 84.870    661.635    614.310     47.326    540.350    601.036    553.586    540.350    540.350
 84.970    587.241    607.862    -20.620    540.163    595.686    552.306    540.163    540.163
 85.070    582.000    600.978    -18.978    539.975    589.947    550.979    539.975    539.975
 85.170    609.000    594.142     14.858    539.786    584.205    549.699    539.786    539.786
 85.270    565.000    587.743    -22.743    539.596    578.769    548.550    539.596    539.596
 85.370    595.099    582.071     13.027    539.404    573.857    547.602    539.404    539.404
 85.470    624.134    577.322     46.812    539.211    569.604    546.914    539.211    539.211
 85.570    610.494    573.601     36.892    539.016    566.068    546.537    539.016    539.016
 85.670    587.977    570.946     17.031    538.820    563.246    546.509    538.820    538.820
 85.770    603.650    569.348     34.301    538.623    561.096    546.864    538.623    538.623
 85.870    552.000    568.761    -16.761    538.424    559.550    547.623    538.424    538.424
 85.970    588.000    569.119     18.881    538.224    558.534    548.797    538.224    538.224
 86.070    584.222    570.350     13.872    538.023    557.984    550.375    538.023    538.023
 86.170    579.000    572.378      6.622    537.821    557.856    552.327    537.821    537.821
 86.270    567.000    575.125     -8.125    537.617    558.133    554.592    537.617    537.617
 86.370    612.000    578.512     33.488    537.412    558.830    557.073    537.412    537.412
 86.470    563.000    582.453    -19.453    537.205    559.995    559.639    537.205    537.205
 86.570    560.000    586.857    -26.857    536.998    561.706    562.122    536.998    536.998
 86.670    596.000    591.628      4.372    536.789    564.066    564.319    536.789    536.789
 86.770    636.091    596.669     39.423    536.578    567.197    566.015    536.578    536.578
 86.870    614.537    601.905     12.633    536.367    571.225    567.006    536.367    536.367
 86.970    621.000    607.310     13.690    536.154    576.268    567.150    536.154    536.154
 87.070    631.140    612.933     18.207    535.940    582.415    566.403    535.940    535.940
 87.170    589.837    618.882    -29.045    535.725    589.707    564.838    535.725    535.725
 87.270    598.000    625.283    -27.283    535.508    598.109    562.612    535.508    535.508
 87.370    657.000    632.205     24.795    535.291    607.489    559.926    535.291    535.291
 87.470    632.000    639.604     -7.604    535.072    617.603    556.981    535.072    535.072
 87.570    604.511    647.285    -42.774    534.852    628.078    553.956    534.852    534.852
 87.670    705.000    654.888     50.112    534.630    638.407    550.999    534.630    534.630
 87.770    708.496    661.893     46.603    534.408    647.959    548.222    534.408    534.408
 87.870    681.999    667.657     14.342    534.184    656.015    545.699    534.184    534.184
 87.970    710.000    671.507     38.493    533.959    661.861    543.476    533.959    533.959
 88.070    710.420    672.893     37.527    533.733    664.932    541.566    533.733    533.733
 88.170    687.423    671.549     15.874    533.505    664.974    539.958    533.505    533.505
 88.270    667.867    667.588      0.279    533.277    662.123    538.628    533.277    533.277
 88.370    621.000    661.462    -40.462    533.047    656.865    537.541    533.047    533.047
 88.470    682.000    653.839     28.161    532.817    649.905    536.661    532.817    532.817
 88.570    673.000    645.461     27.539    532.585    642.018    535.952    532.585    532.585
 88.670    639.000    637.050      1.950    532.352    633.958    535.383    532.352    532.352
 88.770    647.000    629.253     17.747    532.117    626.395    534.928    532.117    532.117
 88.870    639.000    622.607     16.393    531.882    619.889    534.567    531.882    531.882
 88.970    613.949    617.516     -3.568    531.646    614.858    534.282    531.646    531.646
 89.070    587.986    614.231    -26.245    531.408    611.566    534.062    531.408    531.408
 89.170    627.000    612.839     14.161    531.170    610.114    533.895    531.170    531.170
 89.270    589.000    613.268    -24.268    530.930    610.437    533.771    530.930    530.930
 89.370    613.890    615.291     -1.401    530.689    612.321    533.678    530.689    530.689
 89.470    586.000    618.543    -32.543    530.448    615.414    533.604    530.448    530.448
 89.570    615.515    622.540     -7.025    530.205    619.245    533.536    530.205    530.205
 89.670    669.000    626.704     42.296    529.961    623.252    533.456    529.961    529.961
 89.770    611.256    630.400    -19.143    529.716    626.818    533.348    529.716    529.716
 89.870    626.204    632.998     -6.794    529.470    629.330    533.194    529.470    529.470
 89.970    605.962    633.968    -28.006    529.223    630.269    532.981    529.223    529.223
 90.070    630.319    632.976     -2.657    528.975    629.313    532.699    528.975    528.975
 90.170    651.000    629.963     21.037    528.726    626.401    532.350    528.726    528.726
 90.270    617.482    625.137     -7.655    528.476    621.733    531.940    528.476    528.476
 90.370    577.000    618.895    -41.895    528.225    615.693    531.483    528.225    528.225
 90.470    603.116    611.718     -8.602    527.973    608.748    530.995    527.973    527.973
 90.570    576.572    604.089    -27.516    527.721    601.364    530.491    527.721    527.721
 90.670    609.000    596.434     12.566    527.467    593.954    529.986    527.467    527.467
 90.770    543.000    589.103    -46.103    527.212    586.858    529.490    527.212    527.212
 90.870    563.000    582.359    -19.359    526.957    580.330    529.012    526.957    526.957
 90.970    552.366    576.378    -24.012    526.700    574.542    528.558    526.700    526.700
 91.070    589.000    571.260     17.740    526.443    569.589    528.130    526.443    526.443
 91.170    574.000    567.035      6.965    526.184    565.502    527.730    526.184    526.184
 91.270    569.975    563.682      6.293    525.925    562.259    527.357    525.925    525.925
 91.370    548.000    561.146    -13.146    525.665    559.808    527.010    525.665    525.665
 91.470    546.000    559.351    -13.351    525.404    558.075    526.685    525.404    525.404
 91.570    540.000    558.226    -18.226    525.143    556.990    526.380    525.143    525.143
 91.670    577.000    557.707     19.293    524.880    556.492    526.094    524.880    524.880
 91.770    532.000    557.755    -25.755    524.617    556.544    525.825    524.617    524.617
 91.870    552.000    558.361     -6.361    524.353    557.137    525.573    524.353    524.353
 91.970    572.000    559.551     12.449    524.088    558.295    525.338    524.088    524.088
 92.070    558.000    561.386     -3.386    523.822    560.079    525.122    523.822    523.822
 92.170    551.000    563.965    -12.965    523.556    562.584    524.928    523.556    523.556
 92.270    551.417    567.416    -15.999    523.289    565.934    524.759    523.289    523.289
 92.370    569.210    571.890     -2.681    523.021    570.278    524.618    523.021    523.021
 92.470    563.000    577.555    -14.555    522.752    575.777    524.511    522.752    522.752
 92.570    628.121    584.575     43.546    522.483    582.595    524.440    522.483    522.483
 92.670    587.000    593.103     -6.103    522.213    590.880    524.408    522.213    522.213
 92.770    639.000    603.255     35.745    521.942    600.747    524.416    521.942    521.942
 92.870    594.000    615.098    -21.098    521.671    612.265    524.465    521.671    521.671
 92.970    605.000    628.632    -23.632    521.399    625.435    524.550    521.399    521.399
 93.070    634.000    643.774     -9.774    521.126    640.181    524.666    521.126    521.126
 93.170    640.000    660.347    -20.347    520.853    656.333    524.806    520.853    520.853
 93.270    662.000    678.071    -16.071    520.579    673.622    524.960    520.579    520.579
 93.370    682.000    696.562    -14.562    520.304    691.676    525.116    520.304    520.304
 93.470    697.000    715.345    -18.345    520.029    710.029    525.265    520.029    520.029
 93.570    737.000    733.893      3.107    519.753    728.165    525.397    519.753    519.753
 93.670    682.000    751.707    -69.707    519.477    745.587    525.508    519.477    519.477
 93.770    803.000    768.426     34.574    519.201    761.929    525.607    519.201    519.201
 93.870    762.000    783.928    -21.928    518.923    777.048    525.712    518.923    518.923
 93.970    822.000    798.358     23.642    518.645    791.053    525.858    518.645    518.645
 94.070    766.846    812.059    -45.213    518.367    804.245    526.090    518.367    518.367
 94.170    852.000    825.445     26.555    518.088    816.983    526.459    518.088    518.088
 94.270    863.000    838.861     24.139    517.809    829.565    527.015    517.809    517.809
 94.370    913.114    852.515     60.599    517.530    842.156    527.800    517.530    517.530
 94.470    877.000    866.468     10.532    517.250    854.788    528.841    517.250    517.250
 94.570    913.405    880.687     32.719    516.969    867.420    530.149    516.969    516.969
 94.670    957.000    895.096     61.904    516.688    879.988    531.711    516.688    516.688
 94.770    897.000    909.585    -12.585    516.407    892.421    533.489    516.407    516.407
 94.870    949.000    923.937     25.063    516.125    904.567    535.416    516.125    516.125
 94.970    917.000    937.714    -20.714    515.843    916.080    537.401    515.843    515.843
 95.070    977.000    950.261     26.739    515.561    926.419    539.330    515.561    515.561
 95.170    985.000    960.569     24.431    515.278    934.712    541.069    515.278    515.278
 95.270    960.991    967.430     -6.439    514.996    939.892    542.473    514.996    514.996
 95.370    985.000    969.602     15.398    514.712    940.856    543.407    514.712    514.712
 95.470    957.000    966.063     -9.063    514.429    936.690    543.760    514.429    514.429
 95.570   1013.000    956.288     56.712    514.145    926.931    543.470    514.145    514.145
 95.670    876.102    940.435    -64.333    513.861    911.735    542.538    513.861    513.861
 95.770    999.000    919.364     79.636    513.577    891.898    541.027    513.577    513.577
 95.870    885.645    894.490     -8.845    513.293    868.723    539.051    513.293    513.293
 95.970    851.119    867.528    -16.409    513.009    843.787    536.745    513.009    513.009
 96.070    793.563    840.299    -46.737    512.724    818.772    534.249    512.724    512.724
 96.170    852.000    814.587     37.413    512.439    795.326    531.699    512.439    512.439
 96.270    796.000    792.054      3.946    512.154    774.996    529.210    512.154    512.154
 96.370    810.000    774.198     35.802    511.869    759.184    526.878    511.869    511.869
 96.470    742.639    762.335    -19.696    511.584    749.134    524.775    511.584    511.584
 96.570    786.000    757.583     28.417    511.299    745.916    522.950    511.299    511.299
 96.670    746.000    760.858    -14.858    511.014    750.417    521.430    511.014    511.014
 96.770    776.000    772.862      3.138    510.729    763.335    520.223    510.729    510.729
 96.870    821.000    794.077     26.923    510.444    785.156    519.322    510.444    510.444
 96.970    875.000    824.740     50.260    510.159    816.134    518.710    510.159    510.159
 97.070    836.000    864.807    -28.807    509.873    856.252    518.362    509.873    509.873
 97.170    948.000    913.892     34.108    509.588    905.151    518.251    509.588    509.588
 97.270   1019.000    971.302     47.698    509.303    962.172    518.344    509.303    509.303
 97.370   1021.664   1035.928    -14.264    509.019   1026.240    518.606    509.019    509.019
 97.470   1102.323   1106.123     -3.800    508.734   1095.748    518.998    508.734    508.734
 97.570   1263.000   1179.762     83.238    508.449   1168.617    519.476    508.449    508.449
 97.670   1230.495   1254.201    -23.706    508.165   1242.251    519.993    508.165    508.165
 97.770   1302.000   1326.293    -24.293    507.880   1313.555    520.495    507.880    507.880
 97.870   1416.000   1392.481     23.519    507.596   1379.031    520.926    507.596    507.596
 97.970   1490.000   1448.960     41.040    507.313   1434.932    521.227    507.313    507.313
 98.070   1597.000   1492.061    104.939    507.029   1477.646    521.343    507.029    507.029
 98.170   1585.000   1518.754     66.246    506.746   1504.185    521.230    506.746    506.746
 98.270   1460.771   1527.193    -66.422    506.463   1512.729    520.860    506.463    506.463
 98.370   1460.000   1517.089    -57.089    506.180   1502.990    520.232    506.180    506.180
 98.470   1471.656   1489.750    -18.094    505.898   1476.253    519.367    505.898    505.898
 98.570   1410.000   1447.776    -37.776    505.616   1435.078    518.304    505.616    505.616
 98.670   1467.062   1394.572     72.491    505.334   1382.818    517.093    505.334    505.334
 98.770   1320.000   1333.876    -13.876    505.053   1323.159    515.787    505.053    505.053
 98.870   1268.000   1269.405     -1.405    504.772   1259.766    514.436    504.772    504.772
 98.970   1218.811   1204.627     14.184    504.491   1196.064    513.084    504.491    504.491
 99.070   1199.325   1142.641     56.684    504.211   1135.112    511.770    504.211    504.211
 99.170   1047.756   1086.120    -38.364    503.932   1079.557    510.523    503.932    503.932
 99.270   1101.805   1037.303     64.502    503.653   1031.615    509.365    503.653    503.653
 99.370   1031.317    998.010     33.308    503.375    993.091    508.311    503.375    503.375
 99.470   1020.307    969.668     50.640    503.097    965.406    507.370    503.097    503.097
 99.570   1012.000    953.342     58.658    502.820    949.623    506.542    502.820    502.820
 99.670    885.000    949.758    -64.758    502.543    946.471    505.826    502.543    502.543
 99.770    966.000    959.324      6.676    502.267    956.364    505.216    502.267    502.267
 99.870   1045.953    982.136     63.816    501.992    979.410    504.701    501.992    501.992
 99.970   1013.000   1017.993     -4.993    501.717   1015.416    504.271    501.717    501.717
100.070   1078.559   1066.383     12.176    501.443   1063.885    503.914    501.443    501.443
100.170   1060.632   1126.473    -65.841    501.170   1123.995    503.618    501.170    501.170
100.270   1208.000   1197.085     10.915    500.897   1194.582    503.371    500.897    500.897
100.370   1337.361   1276.664     60.697    500.626   1274.102    503.162    500.626    500.626
100.470   1399.385   1363.253     36.132    500.355   1360.610    502.978    500.355    500.355
100.570   1524.000   1454.471     69.529    500.085   1451.736    502.808    500.085    500.085
100.670   1560.000   1547.538     12.462    499.816   1544.709    502.644    499.816    499.816
100.770   1670.000   1639.348     30.652    499.547   1636.435    502.476    499.547    499.547
100.870   1775.000   1726.703     48.297    499.280   1723.721    502.295    499.280    499.280
100.970   1764.328   1806.547    -42.219    499.013   1803.517    502.096    499.013    499.013
101.070   1827.000   1876.241    -49.241    498.748   1873.186    501.877    498.748    498.748
101.170   2076.000   1933.806    142.194    498.483   1930.746    501.637    498.483    498.483
101.270   1985.000   1977.924      7.076    498.220   1974.877    501.381    498.220    498.220
101.370   1980.000   2007.788    -27.788    497.957   2004.764    501.114    497.957    497.957
101.470   2048.632   2022.886     25.746    497.696   2019.885    500.845    497.696    497.696
101.570   2035.000   2022.886     12.114    497.436   2019.904    500.579    497.436    497.436
101.670   2051.000   2007.718     43.282    497.177   2004.740    500.325    497.177    497.177
101.770   2011.000   1977.811     33.189    496.919   1974.819    500.089    496.919    496.919
101.870   1898.000   1934.370    -36.370    496.662   1931.341    499.873    496.662    496.662
101.970   1908.000   1879.502     28.498    496.406   1876.410    499.681    496.406    496.406
102.070   1778.103   1816.098    -37.995    496.152   1812.918    499.512    496.152    496.152
102.170   1665.000   1747.499    -82.499    495.898   1744.208    499.364    495.898    495.898
102.270   1631.000   1677.071    -46.071    495.647   1673.650    499.234    495.647    495.647
102.370   1544.000   1607.841    -63.841    495.396   1604.279    499.114    495.396    495.396
102.470   1468.000   1542.249    -74.249    495.147   1538.544    498.998    495.147    495.147
102.570   1495.132   1482.039     13.092    494.899   1478.196    498.877    494.899    494.899
102.670   1384.000   1428.232    -44.232    494.653   1424.264    498.744    494.653    494.653
102.770   1352.613   1381.154    -28.541    494.408   1377.083    498.592    494.408    494.408
102.870   1269.000   1340.496    -71.496    494.164   1336.349    498.417    494.164    494.164
102.970   1273.000   1305.388    -32.388    493.922   1301.195    498.213    493.922    493.922
103.070   1239.610   1274.500    -34.890    493.681   1270.296    497.978    493.681    493.681
103.170   1212.000   1246.190    -34.190    493.443   1242.013    497.708    493.443    493.443
103.270   1152.000   1218.698    -66.698    493.205   1214.588    497.402    493.205    493.205
103.370   1135.000   1190.384    -55.384    492.969   1186.381    497.057    492.969    492.969
103.470   1178.261   1159.965     18.296    492.735   1156.109    496.676    492.735    492.735
103.570   1072.000   1126.687    -54.687    492.503   1123.013    496.261    492.503    492.503
103.670   1082.000   1090.370     -8.370    492.272   1086.909    495.816    492.272    492.272
103.770   1038.116   1051.341    -13.225    492.043   1048.115    495.351    492.043    492.043
103.870    997.574   1010.278    -12.704    491.816   1007.301    494.871    491.816    491.816
103.970   1005.000    968.048     36.952    491.590    965.327    494.386    491.590    491.590
104.070    883.419    925.566    -42.147    491.367    923.099    493.903    491.367    491.367
104.170    896.000    883.709     12.291    491.145    881.491    493.429    491.145    491.145
104.270    902.995    843.264     59.731    490.925    841.281    492.968    490.925    490.925
104.370    768.634    804.896    -36.262    490.707    803.133    492.524    490.707    490.707
104.470    797.000    769.137     27.863    490.491    767.574    492.101    490.491    490.491
104.570    779.000    736.375     42.625    490.277    734.994    491.700    490.277    490.277
104.670    747.000    706.858     40.142    490.065    705.637    491.323    490.065    490.065
104.770    715.000    680.698     34.302    489.855    679.616    490.968    489.855    489.855
104.870    699.000    657.876     41.124    489.647    656.914    490.635    489.647    489.647
104.970    683.000    638.273     44.727    489.441    637.414    490.322    489.441    489.441
105.070    610.000    621.734    -11.734    489.237    620.958    490.031    489.237    489.237
105.170    579.883    607.996    -28.112    489.036    607.287    489.759    489.036    489.036
105.270    642.000    596.777     45.223    488.837    596.121    489.503    488.837    488.837
105.370    537.025    587.791    -50.766    488.640    587.175    489.263    488.640    488.640
105.470    591.000    580.772     10.228    488.445    580.187    489.036    488.445    488.445
105.570    588.000    575.468     12.532    488.253    574.902    488.821    488.253    488.253
105.670    606.997    571.660     35.337    488.063    571.105    488.619    488.063    488.063
105.770    609.778    569.173     40.605    487.875    568.619    488.427    487.875    487.875
105.870    534.113    567.871    -33.758    487.690    567.311    488.246    487.690    487.690
105.970    589.605    567.659     21.946    487.507    567.085    488.075    487.507    487.507
106.070    580.000    568.480     11.520    487.327    567.884    487.915    487.327    487.327
106.170    584.000    570.306     13.694    487.149    569.680    487.766    487.149    487.149
106.270    576.000    573.137      2.863    486.974    572.471    487.628    486.974    486.974
106.370    544.342    576.988    -32.646    486.801    576.273    487.502    486.801    486.801
106.470    643.000    581.885     61.115    486.631    581.110    487.389    486.631    486.631
106.570    583.067    587.855     -4.788    486.464    587.009    487.289    486.464    486.464
106.670    633.000    594.916     38.084    486.300    593.988    487.203    486.300    486.300
106.770    638.053    603.068     34.985    486.138    602.049    487.130    486.138    486.138
106.870    592.000    612.285    -20.285    485.979    611.163    487.070    485.979    485.979
106.970    632.000    622.502      9.498    485.823    621.268    487.022    485.823    485.823
107.070    680.799    633.614     47.185    485.669    632.259    486.985    485.669    485.669
107.170    653.000    645.466      7.534    485.519    643.984    486.958    485.519    485.519
107.270    686.910    657.853     29.057    485.371    656.241    486.937    485.371    485.371
107.370    716.000    670.522     45.478    485.226    668.780    486.920    485.226    485.226
107.470    703.220    683.172     20.047    485.085    681.303    486.903    485.085    485.085
107.570    645.629    695.461    -49.832    484.946    693.472    486.882    484.946    484.946
107.670    700.874    707.018     -6.144    484.811    704.922    486.852    484.811    484.811
107.770    711.909    717.463     -5.555    484.679    715.277    486.809    484.679    484.679
107.870    698.000    726.442    -28.442    484.549    724.187    486.749    484.549    484.549
107.970    761.082    733.666     27.416    484.423    731.367    486.668    484.423    484.423
108.070    692.000    738.958    -46.958    484.301    736.644    486.563    484.301    484.301
108.170    769.000    742.290     26.710    484.181    739.989    486.434    484.181    484.181
108.270    781.217    743.793     37.425    484.065    741.532    486.282    484.065    484.065
108.370    752.000    743.738      8.262    483.952    741.542    486.108    483.952    483.952
108.470    792.308    742.497     49.811    483.843    740.387    485.917    483.843    483.843
108.570    678.000    740.484    -62.484    483.737    738.476    485.714    483.737    483.737
108.670    704.000    738.111    -34.111    483.634    736.216    485.503    483.634    483.634
108.770    769.000    735.745     33.255    483.535    733.970    485.288    483.535    483.535
108.870    671.000    733.683    -62.683    483.439    732.031    485.073    483.439    483.439
108.970    788.162    732.138     56.023    483.347    730.609    484.863    483.347    483.347
109.070    704.000    731.229    -27.229    483.259    729.818    484.661    483.259    483.259
109.170    710.000    730.975    -20.975    483.175    729.677    484.467    483.175    483.175
109.270    735.000    731.302      3.698    483.094    730.108    484.285    483.094    483.094
109.370    689.000    732.038    -43.038    483.017    730.941    484.115    483.017    483.017
109.470    757.000    732.932     24.068    482.943    731.921    483.958    482.943    482.943
109.570    779.000    733.664     45.336    482.874    732.732    483.813    482.874    482.874
109.670    688.000    733.877    -45.877    482.808    733.014    483.681    482.808    482.808
109.770    722.000    733.209    -11.209    482.746    732.408    483.560    482.746    482.746
109.870    712.000    731.340    -19.340    482.689    730.594    483.449    482.689    482.689
109.970    759.085    728.032     31.053    482.635    727.334    483.348    482.635    482.635
110.070    745.217    723.162     22.055    482.585    722.508    483.256    482.585    482.585
110.170    701.000    716.729    -15.729    482.540    716.119    483.168    482.540    482.540
110.270    733.000    708.868     24.132    482.498    708.297    483.089    482.498    482.498
110.370    687.000    699.795    -12.795    482.461    699.256    483.019    482.461    482.461
110.470    699.000    689.778      9.222    482.428    689.269    482.956    482.428    482.428
110.570    677.253    679.115     -1.862    482.399    678.633    482.899    482.399    482.399
110.670    621.767    668.101    -46.334    482.375    667.644    482.849    482.375    482.375
110.770    670.000    657.017     12.983    482.355    656.582    482.805    482.355    482.355
110.870    629.000    646.112    -17.112    482.339    645.697    482.767    482.339    482.339
110.970    626.000    635.605     -9.605    482.328    635.209    482.736    482.328    482.328
111.070    651.245    625.678     25.567    482.321    625.298    482.711    482.321    482.321
111.170    576.203    616.478    -40.275    482.318    616.112    482.693    482.318    482.318
111.270    556.000    608.113    -52.113    482.321    607.760    482.681    482.321    482.321
111.370    621.000    600.651     20.349    482.328    600.308    482.676    482.328    482.328
111.470    557.000    594.148    -37.148    482.339    593.813    482.677    482.339    482.339
111.570    559.388    588.612    -29.224    482.356    588.284    482.685    482.356    482.356
111.670    588.000    584.027      3.973    482.377    583.704    482.700    482.377    482.377
111.770    624.220    580.357     43.863    482.403    580.037    482.721    482.403    482.403
111.870    578.000    577.550      0.450    482.434    577.232    482.748    482.434    482.434
111.970    589.000    575.541     13.459    482.469    575.224    482.781    482.469    482.469
112.070    540.000    574.258    -34.258    482.510    573.941    482.821    482.510    482.510
112.170    590.000    573.627     16.373    482.555    573.309    482.866    482.555    482.555
112.270    592.586    573.571     19.014    482.606    573.252    482.918    482.606    482.606
112.370    604.000    574.020     29.980    482.662    573.698    482.975    482.662    482.662
112.470    577.000    574.907      2.093    482.723    574.582    483.037    482.723    482.723
112.570    570.873    576.173     -5.300    482.789    575.845    483.106    482.789    482.789
112.670    551.000    577.770    -26.770    482.860    577.439    483.179    482.860    482.860
112.770    575.000    579.661     -4.661    482.937    579.327    483.258    482.937    482.937
112.870    577.013    581.822     -4.808    483.018    581.485    483.343    483.018    483.018
112.970    635.000    584.243     50.757    483.106    583.902    483.433    483.106    483.106
113.070    595.153    586.928      8.226    483.198    586.584    483.529    483.198    483.198
113.170    608.209    589.895     18.313    483.297    589.547    483.631    483.297    483.297
113.270    623.000    593.179     29.821    483.400    592.826    483.740    483.400    483.400
113.370    628.222    596.828     31.393    483.510    596.469    483.854    483.510    483.510
113.470    616.000    600.911     15.089    483.625    600.545    483.976    483.625    483.625
113.570    603.000    605.518     -2.518    483.745    605.143    484.105    483.745    483.745
113.670    644.832    610.766     34.066    483.872    610.379    484.242    483.872    483.872
113.770    649.000    616.805     32.195    484.004    616.404    484.387    484.004    484.004
113.870    663.392    623.828     39.564    484.142    623.411    484.541    484.142    484.142
113.970    597.000    632.085    -35.085    484.285    631.646    484.704    484.285    484.285
114.070    662.590    641.888     20.702    484.435    641.423    484.878    484.435    484.435
114.170    610.741    653.634    -42.893    484.591    653.138    485.062    484.591    484.591
114.270    690.000    667.819     22.181    484.753    667.284    485.258    484.753    484.753
114.370    674.000    685.053    -11.053    484.920    684.473    485.465    484.920    484.920
114.470    681.000    706.084    -25.084    485.094    705.452    485.686    485.094    485.094
114.570    786.537    731.816     54.721    485.274    731.122    485.920    485.274    485.274
114.670    804.112    763.322     40.790    485.461    762.556    486.169    485.461    485.461
114.770    824.934    801.860     23.075    485.654    801.012    486.432    485.654    485.654
114.870    797.000    848.881    -51.881    485.853    847.939    486.710    485.853    485.853
114.970    870.601    906.028    -35.426    486.058    904.980    487.005    486.058    486.058
115.070    960.000    975.124    -15.124    486.270    973.957    487.315    486.270    486.270
115.170   1081.000   1058.150     22.850    486.488   1056.851    487.642    486.488    486.488
115.270   1084.000   1157.202    -73.202    486.713   1155.758    487.984    486.713    486.713
115.370   1305.604   1274.441     31.163    486.945   1272.837    488.343    486.945    486.945
115.470   1462.000   1412.011     49.989    487.183   1410.236    488.717    487.183    487.183
115.570   1641.000   1571.953     69.047    487.428   1569.993    489.106    487.428    487.428
115.670   1751.000   1756.090     -5.090    487.680   1753.936    489.508    487.680    487.680
115.770   2026.332   1965.912     60.420    487.938   1963.554    489.924    487.938    487.938
115.870   2275.000   2202.443     72.557    488.204   2199.874    490.350    488.204    488.204
115.970   2516.336   2466.103     50.233    488.476   2463.318    490.787    488.476    488.476
116.070   2715.000   2756.581    -41.581    488.756   2753.578    491.231    488.756    488.756
116.170   3132.000   3072.716     59.284    489.042   3069.497    491.681    489.042    489.042
116.270   3479.000   3412.399     66.601    489.336   3408.970    492.136    489.336    489.336
116.370   3847.000   3772.498     74.502    489.636   3768.866    492.593    489.636    489.636
116.470   4158.000   4148.811      9.189    489.944   4144.989    493.051    489.944    489.944
116.570   4611.000   4536.039     74.961    490.260   4532.042    493.508    490.260    490.260
116.670   4948.336   4927.873     20.463    490.582   4923.717    493.966    490.582    490.582
116.770   5458.099   5317.042    141.057    490.912   5312.746    494.423    490.912    490.912
116.870   5825.638   5695.321    130.318    491.249   5690.905    494.881    491.249    491.249
116.970   6114.916   6053.787     61.129    491.594   6049.272    495.339    491.594    491.594
117.070   6401.000   6383.036     17.964    491.947   6378.445    495.799    491.947    491.947
117.170   6625.000   6673.507    -48.507    492.307   6668.860    496.261    492.307    492.307
117.270   6834.604   6915.939    -81.335    492.675   6911.258    496.724    492.675    492.675
117.370   7101.000   7101.947     -0.947    493.050   7097.254    497.189    493.050    493.050
117.470   7315.011   7224.688     90.324    493.434   7220.002    497.655    493.434    493.434
117.570   7286.000   7279.504      6.496    493.825   7274.844    498.120    493.825    493.825
117.670   7222.000   7264.423    -42.423    494.224   7259.803    498.584    494.224    494.224
117.770   7250.000   7180.380     69.620    494.631   7175.811    499.045    494.631    494.631
117.870   7142.571   7031.101    111.469    495.046   7026.593    499.501    495.046    495.046
117.970   6737.000   6822.684    -85.684    495.469   6818.243    499.951    495.469    495.469
118.070   6498.000   6562.982    -64.982    495.901   6558.614    500.393    495.901    495.901
118.170   6221.378   6260.934    -39.556    496.340   6256.645    500.824    496.340    496.340
118.270   6071.251   5925.952    145.299    496.788   5921.750    501.244    496.788    496.788
118.370   5707.712   5567.422    140.290    497.244   5563.313    501.651    497.244    497.244
118.470   5250.876   5194.329     56.547    497.709   5190.322    502.044    497.709    497.709
118.570   4678.000   4814.997   -136.997    498.182   4811.102    502.423    498.182    498.182
118.670   4543.000   4436.905    106.095    498.663   4433.131    502.791    498.663    498.663
118.770   4182.183   4066.566    115.617    499.153   4062.922    503.148    499.153    499.153
118.870   3705.925   3709.456     -3.531    499.652   3705.949    503.498    499.652    499.652
118.970   3370.000   3369.984      0.016    500.160   3366.620    503.844    500.160    500.160
119.070   3074.000   3051.502     22.498    500.676   3048.284    504.191    500.676    500.676
119.170   2831.000   2756.349     74.651    501.201   2753.278    504.541    501.201    501.201
119.270   2544.371   2485.930     58.441    501.735   2483.005    504.899    501.735    501.735
119.370   2275.059   2240.820     34.240    502.278   2238.037    505.268    502.278    502.278
119.470   2017.000   2020.877     -3.877    502.830   2018.232    505.651    502.830    502.830
119.570   1857.000   1825.375     31.625    503.391   1822.860    506.053    503.391    503.391
119.670   1614.495   1653.123    -38.628    503.961   1650.728    506.475    503.961    503.961
119.770   1533.845   1502.589     31.256    504.541   1500.304    506.919    504.541    504.541
119.870   1325.000   1372.011    -47.011    505.129   1369.823    507.389    505.129    505.129
119.970   1264.000   1259.497      4.503    505.727   1257.392    507.885    505.727    505.727
120.070   1132.199   1163.112    -30.913    506.335   1161.074    508.409    506.335    506.335
120.170   1020.929   1080.948    -60.019    506.952   1078.960    508.962    506.952    506.952
120.270   1073.138   1011.183     61.955    507.578   1009.228    509.545    507.578    507.578
120.370    996.400    952.122     44.278    508.214    950.181    510.158    508.214    508.214
120.470    927.861    902.224     25.637    508.860    900.278    510.803    508.860    508.860
120.570    849.000    860.115    -11.115    509.515    858.144    511.479    509.515    509.515
120.670    799.828    824.595    -24.767    510.181    822.579    512.188    510.181    510.181
120.770    797.684    794.632      3.052    510.856    792.548    512.928    510.856    510.856
120.870    751.000    769.349    -18.349    511.541    767.177    513.701    511.541    511.541
120.970    726.827    748.015    -21.188    512.236    745.732    514.508    512.236    512.236
121.070    769.138    730.022     39.115    512.941    727.605    515.348    512.941    512.941
121.170    687.000    714.874    -27.874    513.656    712.298    516.223    513.656    513.656
121.270    715.031    702.165     12.866    514.382    699.407    517.132    514.382    514.382
121.370    704.268    691.568     12.700    515.117    688.600    518.078    515.117    515.117
121.470    671.092    682.816    -11.723    515.863    679.613    519.061    515.863    515.863
121.570    636.632    675.693    -39.061    516.620    672.229    520.081    516.620    516.620
121.670    666.000    670.025     -4.025    517.387    666.269    521.141    517.387    517.387
121.770    698.399    665.667     32.733    518.164    661.590    522.241    518.164    518.164
121.870    609.378    662.496    -53.118    518.952    658.068    523.382    518.952    518.952
121.970    701.000    660.410     40.590    519.751    655.599    524.565    519.751    519.751
122.070    663.712    659.316      4.396    520.560    654.089    525.792    520.560    520.560
122.170    630.000    659.132    -29.132    521.381    653.456    527.063    521.381    521.381
122.270    650.157    659.780     -9.623    522.212    653.622    528.379    522.212    522.212
122.370    662.000    661.183      0.817    523.054    654.509    529.739    523.054    523.054
122.470    638.000    663.264    -25.264    523.907    656.043    531.141    523.907    523.907
122.570    638.000    665.946    -27.946    524.772    658.148    532.585    524.772    524.772
122.670    701.000    669.146     31.854    525.647    660.744    534.066    525.647    525.647
122.770    698.355    672.777     25.578    526.534    663.748    535.582    526.534    526.534
122.870    693.000    676.746     16.254    527.432    667.074    537.126    527.432    527.432
122.970    686.000    680.956      5.044    528.342    670.630    538.693    528.342    528.342
123.070    710.086    685.301     24.785    529.262    674.318    540.273    529.262    529.262
123.170    657.210    689.671    -32.462    530.195    678.037    541.859    530.195    530.195
123.270    702.848    693.952      8.896    531.139    681.683    543.441    531.139    531.139
123.370    702.158    698.025      4.134    532.095    685.148    545.007    532.095    532.095
123.470    694.000    701.770     -7.770    533.062    688.324    546.547    533.062    533.062
123.570    707.000    705.073      1.927    534.041    691.108    548.048    534.041    534.041
123.670    712.000    707.825      4.175    535.033    693.401    549.501    535.033    535.033
123.770    691.957    709.931    -17.974    536.036    695.118    550.894    536.036    536.036
123.870    671.000    711.313    -40.313    537.051    696.193    552.219    537.051    537.051
123.970    804.000    711.919     92.081    538.078    696.577    553.469    538.078    538.078
124.070    736.000    711.716     24.284    539.118    696.245    554.639    539.118    539.118
124.170    660.959    710.678    -49.719    540.170    695.172    555.726    540.170    540.170
124.270    679.615    708.878    -29.262    541.234    693.429    556.733    541.234    541.234
124.370    720.000    706.356     13.644    542.310    691.057    557.660    542.310    542.310
124.470    716.000    703.165     12.835    543.400    688.102    558.513    543.400    543.400
124.570    694.897    699.379     -4.483    544.501    684.634    559.295    544.501    544.501
124.670    711.000    695.082     15.918    545.615    680.730    560.014    545.615    545.615
124.770    735.648    690.361     45.288    546.742    676.471    560.677    546.742    546.742
124.870    712.000    685.306     26.694    547.882    671.939    561.293    547.882    547.882
124.970    743.000    680.006     62.994    549.035    667.213    561.869    549.035    549.035
