neutron_powder_diffraction_0162
R_wp: 4.029
Temperature (K): 1074.000
Counts: 83676.00
Wavelength (Ã…): 2.52098
COMMENTS
Test file for demonstrating the .xyy file format in Reel1.0
END OF HEADER
   tth       Y_obs     Y_calc      Y_res    Background    Phase_1_Nuc    Phase_1_Mag    Phase_2_Nuc    Phase_2_Mag
  9.970    615.715    577.344     38.371    576.626    577.285    576.626    576.685    576.626
 10.070    634.000    577.409     56.591    576.633    577.349    576.633    576.693    576.633
 10.170    600.336    577.476     22.860    576.636    577.416    576.636    576.695    576.636
 10.270    530.752    577.548    -46.796    576.633    577.488    576.633    576.693    576.633
 10.370    610.000    577.628     32.372    576.625    577.567    576.625    576.685    576.625
 10.470    606.000    577.717     28.283    576.612    577.656    576.612    576.673    576.612
 10.570    597.000    577.820     19.180    576.594    577.759    576.594    576.655    576.594
 10.670    546.360    577.941    -31.582    576.572    577.880    576.572    576.633    576.572
 10.770    584.000    578.088      5.912    576.544    578.026    576.544    576.605    576.544
 10.870    549.000    578.268    -29.268    576.512    578.205    576.512    576.573    576.512
 10.970    572.000    578.494     -6.494    576.474    578.431    576.474    576.536    576.474
 11.070    603.374    578.784     24.590    576.432    578.721    576.432    576.494    576.432
 11.170    594.000    579.163     14.837    576.386    579.099    576.386    576.448    576.386
 11.270    548.000    579.672    -31.672    576.334    579.607    576.334    576.397    576.334
 11.370    594.000    580.379     13.621    576.278    580.313    576.278    576.341    576.278
 11.470    605.368    581.431     23.937    576.218    581.365    576.218    576.281    576.218
 11.570    593.000    583.244      9.756    576.153    583.177    576.153    576.216    576.153
 11.670    646.000    586.999     59.001    576.084    586.929    576.084    576.147    576.084
 11.770    625.000    595.439     29.561    576.010    595.364    576.010    576.074    576.010
 11.870    637.000    612.994     24.006    575.932    612.909    575.932    575.996    575.932
 11.970    694.622    643.104     51.518    575.849    643.002    575.849    575.914    575.849
 12.070    676.000    681.888     -5.888    575.762    681.763    575.762    575.827    575.762
 12.170    699.000    712.385    -13.385    575.671    712.242    575.671    575.737    575.671
 12.270    662.000    713.289    -51.289    575.576    713.144    575.576    575.642    575.576
 12.370    655.000    683.703    -28.703    575.477    683.571    575.477    575.547    575.477
 12.470    669.239    644.555     24.684    575.374    644.444    575.374    575.445    575.374
 12.570    614.000    613.569      0.431    575.266    613.475    575.266    575.338    575.266
 12.670    622.000    595.220     26.780    575.155    595.137    575.155    575.227    575.155
 12.770    585.000    586.250     -1.250    575.039    586.170    575.039    575.112    575.039
 12.870    532.341    582.161    -49.820    574.920    582.084    574.920    574.993    574.920
 12.970    562.000    580.106    -18.106    574.797    580.029    574.797    574.871    574.797
 13.070    628.994    578.846     50.149    574.670    578.769    574.670    574.744    574.670
 13.170    551.000    577.943    -26.943    574.539    577.867    574.539    574.614    574.539
 13.270    581.000    577.244      3.756    574.405    577.168    574.405    574.480    574.405
 13.370    592.000    576.677     15.323    574.267    576.600    574.267    574.342    574.267
 13.470    567.000    576.202     -9.202    574.125    576.125    574.125    574.201    574.125
 13.570    545.530    575.793    -30.262    573.980    575.716    573.980    574.056    573.980
 13.670    542.000    575.431    -33.431    573.831    575.355    573.831    573.907    573.831
 13.770    602.594    575.106     27.488    573.678    575.029    573.678    573.755    573.678
 13.870    575.000    574.807      0.193    573.522    574.730    573.522    573.599    573.522
 13.970    586.000    574.529     11.471    573.363    574.451    573.363    573.440    573.363
 14.070    549.490    574.266    -24.776    573.200    574.188    573.200    573.278    573.200
 14.170    576.000    574.015      1.985    573.034    573.936    573.034    573.112    573.034
 14.270    553.000    573.773    -20.773    572.865    573.694    572.865    572.943    572.865
 14.370    545.980    573.537    -27.558    572.692    573.458    572.692    572.771    572.692
 14.470    545.578    573.310    -27.732    572.516    573.231    572.516    572.596    572.516
 14.570    613.433    573.085     40.347    572.337    573.006    572.337    572.417    572.337
 14.670    569.000    572.862     -3.862    572.155    572.782    572.155    572.235    572.155
 14.770    596.000    572.640     23.360    571.970    572.559    571.970    572.050    571.970
 14.870    580.000    572.420      7.580    571.781    572.339    571.781    571.862    571.781
 14.970    576.000    572.200      3.800    571.590    572.118    571.590    571.671    571.590
 15.070    561.000    571.980    -10.980    571.395    571.898    571.395    571.477    571.395
 15.170    554.000    571.760    -17.760    571.198    571.678    571.198    571.280    571.198
 15.270    574.374    571.540      2.834    570.998    571.457    570.998    571.080    570.998
 15.370    524.336    571.319    -46.983    570.795    571.236    570.795    570.878    570.795
 15.470    547.000    571.097    -24.097    570.589    571.013    570.589    570.672    570.589
 15.570    565.000    570.874     -5.874    570.380    570.790    570.380    570.464    570.380
 15.670    559.000    570.651    -11.651    570.168    570.566    570.168    570.253    570.168
 15.770    549.000    570.427    -21.427    569.954    570.342    569.954    570.039    569.954
 15.870    523.202    570.200    -46.998    569.737    570.114    569.737    569.823    569.737
 15.970    574.908    569.971      4.937    569.518    569.885    569.518    569.604    569.518
 16.070    561.000    569.741     -8.741    569.296    569.654    569.296    569.382    569.296
 16.170    522.000    569.509    -47.509    569.071    569.421    569.071    569.158    569.071
 16.270    593.000    569.275     23.725    568.844    569.187    568.844    568.931    568.844
 16.370    565.000    569.039     -4.039    568.614    568.951    568.614    568.702    568.614
 16.470    583.000    568.802     14.198    568.382    568.713    568.382    568.470    568.382
 16.570    532.000    568.563    -36.563    568.147    568.474    568.147    568.236    568.147
 16.670    586.289    568.322     17.967    567.910    568.233    567.910    568.000    567.910
 16.770    550.129    568.080    -17.950    567.671    567.989    567.671    567.761    567.671
 16.870    561.456    567.835     -6.379    567.429    567.744    567.429    567.520    567.429
 16.970    593.622    567.589     26.033    567.186    567.498    567.186    567.277    567.186
 17.070    539.000    567.341    -28.341    566.939    567.249    566.939    567.031    566.939
 17.170    610.588    567.094     43.495    566.691    567.001    566.691    566.784    566.691
 17.270    578.000    566.843     11.157    566.441    566.749    566.441    566.534    566.441
 17.370    588.000    566.589     21.411    566.188    566.495    566.188    566.282    566.188
 17.470    568.000    566.334      1.666    565.933    566.240    565.933    566.028    565.933
 17.570    552.000    566.077    -14.077    565.677    565.982    565.677    565.772    565.677
 17.670    604.973    565.819     39.154    565.418    565.723    565.418    565.514    565.418
 17.770    550.000    565.561    -15.561    565.157    565.463    565.157    565.255    565.157
 17.870    544.315    565.300    -20.984    564.894    565.200    564.894    564.994    564.894
 17.970    557.000    565.037     -8.037    564.630    564.936    564.630    564.730    564.630
 18.070    597.763    564.772     32.991    564.363    564.670    564.363    564.464    564.363
 18.170    582.397    564.506     17.891    564.095    564.404    564.095    564.197    564.095
 18.270    548.000    564.238    -16.238    563.825    564.135    563.825    563.927    563.825
 18.370    539.000    563.969    -24.969    563.553    563.865    563.553    563.656    563.553
 18.470    559.000    563.698     -4.698    563.279    563.594    563.279    563.383    563.279
 18.570    578.000    563.425     14.575    563.004    563.320    563.004    563.108    563.004
 18.670    578.000    563.151     14.849    562.726    563.046    562.726    562.832    562.726
 18.770    568.769    562.876      5.893    562.448    562.770    562.448    562.554    562.448
 18.870    603.815    562.600     41.215    562.167    562.493    562.167    562.274    562.167
 18.970    565.519    562.322      3.197    561.885    562.214    561.885    561.993    561.885
 19.070    540.000    562.043    -22.043    561.602    561.934    561.602    561.710    561.602
 19.170    546.967    561.763    -14.796    561.317    561.654    561.317    561.426    561.317
 19.270    574.000    561.483     12.517    561.030    561.373    561.030    561.140    561.030
 19.370    565.000    561.201      3.799    560.742    561.089    560.742    560.853    560.742
 19.470    557.000    560.917     -3.917    560.452    560.805    560.452    560.565    560.452
 19.570    551.000    560.632     -9.632    560.161    560.519    560.161    560.275    560.161
 19.670    520.103    560.346    -40.243    559.869    560.232    559.869    559.983    559.869
 19.770    550.000    560.061    -10.061    559.575    559.946    559.575    559.691    559.575
 19.870    553.000    559.787     -6.787    559.281    559.671    559.281    559.397    559.281
 19.970    555.000    559.509     -4.509    558.984    559.392    558.984    559.101    558.984
 20.070    550.250    559.221     -8.971    558.687    559.103    558.687    558.805    558.687
 20.170    556.936    558.931     -1.995    558.388    558.812    558.388    558.507    558.388
 20.270    573.000    558.640     14.360    558.088    558.520    558.088    558.208    558.088
 20.370    527.000    558.349    -31.349    557.787    558.228    557.787    557.909    557.787
 20.470    564.000    558.057      5.943    557.485    557.935    557.485    557.607    557.485
 20.570    541.000    557.765    -16.765    557.182    557.641    557.182    557.305    557.182
 20.670    530.000    557.472    -27.472    556.877    557.348    556.877    557.002    556.877
 20.770    603.000    557.179     45.821    556.572    557.053    556.572    556.698    556.572
 20.870    583.000    556.886     26.114    556.265    556.759    556.265    556.393    556.265
 20.970    553.877    556.593     -2.715    555.958    556.464    555.958    556.087    555.958
 21.070    534.000    556.307    -22.307    555.650    556.178    555.650    555.779    555.650
 21.170    531.423    556.100    -24.677    555.340    555.968    555.340    555.471    555.340
 21.270    543.000    555.829    -12.829    555.030    555.696    555.030    555.163    555.030
 21.370    600.159    555.537     44.622    554.719    555.403    554.719    554.853    554.719
 21.470    563.000    555.244      7.756    554.407    555.109    554.407    554.542    554.407
 21.570    576.000    554.953     21.047    554.094    554.816    554.094    554.231    554.094
 21.670    518.186    554.661    -36.476    553.781    554.523    553.781    553.919    553.781
 21.770    573.101    554.373     18.728    553.466    554.233    553.466    553.606    553.466
 21.870    542.053    554.106    -12.053    553.151    553.964    553.151    553.293    553.151
 21.970    588.000    553.846     34.154    552.835    553.703    552.835    552.979    552.835
 22.070    577.078    553.563     23.515    552.519    553.418    552.519    552.664    552.519
 22.170    551.000    553.284     -2.284    552.202    553.137    552.202    552.349    552.202
 22.270    533.652    553.049    -19.397    551.884    552.900    551.884    552.033    551.884
 22.370    574.000    552.792     21.208    551.565    552.641    551.565    551.716    551.565
 22.470    542.734    552.523     -9.789    551.246    552.371    551.246    551.399    551.246
 22.570    581.000    552.254     28.746    550.927    552.099    550.927    551.082    550.927
 22.670    512.055    551.989    -39.935    550.607    551.833    550.607    550.764    550.607
 22.770    573.000    551.731     21.269    550.286    551.572    550.286    550.445    550.286
 22.870    556.000    551.480      4.520    549.965    551.319    549.965    550.127    549.965
 22.970    543.145    551.239     -8.094    549.643    551.075    549.643    549.808    549.643
 23.070    564.000    551.009     12.991    549.321    550.843    549.321    549.488    549.321
 23.170    605.000    550.796     54.204    548.999    550.627    548.999    549.168    548.999
 23.270    543.000    550.598     -7.598    548.676    550.427    548.676    548.848    548.676
 23.370    537.000    550.422    -13.422    548.353    550.248    548.353    548.528    548.353
 23.470    512.683    550.276    -37.593    548.029    550.099    548.029    548.207    548.029
 23.570    539.828    550.168    -10.340    547.706    549.988    547.706    547.886    547.706
 23.670    539.000    550.112    -11.112    547.382    549.929    547.382    547.565    547.382
 23.770    521.000    550.127    -29.127    547.057    549.942    547.057    547.244    547.057
 23.870    554.000    550.245      3.755    546.733    550.056    546.733    546.923    546.733
 23.970    594.000    550.520     43.480    546.408    550.328    546.408    546.602    546.408
 24.070    582.798    551.086     31.712    546.083    550.891    546.083    546.281    546.083
 24.170    570.000    552.318     17.682    545.757    552.119    545.757    545.960    545.757
 24.270    555.610    555.212      0.398    545.432    555.012    545.432    545.638    545.432
 24.370    562.000    561.847      0.153    545.107    561.647    545.107    545.317    545.107
 24.470    545.000    575.087    -30.087    544.781    574.892    544.781    544.996    544.781
 24.570    577.000    596.331    -19.331    544.455    596.146    544.455    544.676    544.455
 24.670    615.000    621.427     -6.427    544.130    621.255    544.130    544.355    544.130
 24.770    661.014    638.050     22.965    543.804    637.884    543.804    544.035    543.804
 24.870    670.000    633.983     36.017    543.478    633.809    543.478    543.715    543.478
 24.970    582.000    612.537    -30.537    543.152    612.342    543.152    543.395    543.152
 25.070    597.000    587.403      9.597    542.826    587.184    542.826    543.076    542.826
 25.170    611.000    568.182     42.818    542.501    567.943    542.501    542.757    542.501
 25.270    559.000    556.799      2.201    542.175    556.544    542.175    542.438    542.175
 25.370    596.310    551.068     45.242    541.849    550.802    541.849    542.120    541.849
 25.470    579.694    548.298     31.396    541.524    548.022    541.524    541.803    541.524
 25.570    570.197    546.800     23.397    541.198    546.514    541.198    541.487    541.198
 25.670    522.000    545.824    -23.824    540.873    545.528    540.873    541.171    540.873
 25.770    569.000    545.092     23.908    540.548    544.786    540.548    540.856    540.548
 25.870    553.000    544.508      8.492    540.223    544.190    540.223    540.542    540.223
 25.970    513.854    544.029    -30.175    539.899    543.699    539.899    540.229    539.899
 26.070    562.378    543.654     18.724    539.574    543.311    539.574    539.918    539.574
 26.170    510.882    543.341    -32.459    539.250    542.984    539.250    539.607    539.250
 26.270    517.725    543.062    -25.337    538.926    542.690    538.926    539.298    538.926
 26.370    550.493    542.837      7.656    538.602    542.448    538.602    538.991    538.602
 26.470    534.000    542.666     -8.666    538.279    542.260    538.279    538.685    538.279
 26.570    545.000    542.543      2.457    537.956    542.117    537.956    538.382    537.956
 26.670    535.000    542.478     -7.478    537.633    542.031    537.633    538.080    537.633
 26.770    598.000    542.488     55.512    537.311    542.018    537.311    537.781    537.311
 26.870    584.780    542.598     42.183    536.989    542.101    536.989    537.485    536.989
 26.970    570.000    542.806     27.194    536.668    542.281    536.668    537.192    536.668
 27.070    574.232    543.117     31.116    536.347    542.560    536.347    536.902    536.347
 27.170    530.000    543.591    -13.591    536.026    542.999    536.026    536.617    536.026
 27.270    535.000    544.287     -9.287    535.706    543.655    535.706    536.336    535.706
 27.370    579.687    545.294     34.393    535.386    544.617    535.386    536.061    535.386
 27.470    564.000    546.777     17.223    535.067    546.050    535.067    535.792    535.067
 27.570    578.936    549.162     29.774    534.748    548.377    534.748    535.531    534.748
 27.670    516.492    553.919    -37.427    534.430    553.067    534.430    535.278    534.430
 27.770    543.000    565.852    -22.852    534.112    564.920    534.112    535.036    534.112
 27.870    556.004    596.645    -40.641    533.795    595.616    533.795    534.806    533.795
 27.970    682.000    663.788     18.212    533.478    662.635    533.478    534.591    533.478
 28.070    790.000    774.184     15.816    533.162    772.880    533.162    534.395    533.162
 28.170    843.000    896.597    -53.597    532.847    895.123    532.847    534.222    532.847
 28.270    972.844    956.957     15.887    532.532    955.314    532.532    534.079    532.532
 28.370    952.240    906.433     45.807    532.218    904.616    532.218    533.974    532.218
 28.470    805.308    797.281      8.027    531.905    795.238    531.905    533.921    531.905
 28.570    699.000    712.657    -13.657    531.592    710.295    531.592    533.941    531.592
 28.670    724.831    695.639     29.192    531.280    692.834    531.280    534.069    531.280
 28.770    778.000    741.664     36.336    530.968    738.255    530.968    534.357    530.968
 28.870    837.000    810.805     26.195    530.658    806.565    530.658    534.884    530.658
 28.970    861.000    843.342     17.658    530.348    837.938    530.348    535.753    530.348
 29.070    769.000    803.831    -34.831    530.039    796.793    530.039    537.088    530.039
 29.170    745.000    722.921     22.079    529.730    713.654    529.730    539.010    529.730
 29.270    618.000    648.043    -30.043    529.422    635.881    529.422    541.592    529.422
 29.370    591.340    600.747     -9.408    529.116    585.092    529.116    544.774    529.116
 29.470    588.000    578.628      9.372    528.810    559.236    528.810    548.201    528.810
 29.570    605.139    570.411     34.728    528.504    547.871    528.504    551.042    528.504
 29.670    640.000    566.725     73.275    528.200    542.784    528.200    552.140    528.200
 29.770    596.000    562.979     33.021    527.896    540.042    527.896    550.832    527.896
 29.870    571.000    558.280     12.720    527.594    538.257    527.594    547.616    527.594
 29.970    575.000    553.332     21.668    527.292    536.998    527.292    543.624    527.292
 30.070    528.354    548.898    -20.544    526.991    536.125    526.991    539.762    526.991
 30.170    528.612    545.381    -16.769    526.691    535.611    526.691    536.459    526.691
 30.270    539.050    542.991     -3.941    526.392    535.565    526.392    533.816    526.392
 30.370    584.000    542.117     41.883    526.094    536.430    526.094    531.777    526.094
 30.470    568.000    543.794     24.206    525.797    539.358    525.797    530.226    525.797
 30.570    544.656    550.004     -5.347    525.500    546.452    525.500    529.039    525.500
 30.670    614.000    562.897     51.103    525.205    559.971    525.205    528.108    525.205
 30.770    624.023    582.258     41.765    524.911    579.780    524.911    527.350    524.911
 30.870    628.000    602.304     25.696    524.617    600.161    524.617    526.709    524.617
 30.970    639.000    611.412     27.588    524.325    609.536    524.325    526.146    524.325
 31.070    639.000    601.895     37.105    524.034    600.244    524.034    525.639    524.034
 31.170    575.000    580.874     -5.874    523.744    579.414    523.744    525.173    523.744
 31.270    572.000    559.964     12.036    523.455    558.664    523.455    524.738    523.455
 31.370    574.000    545.187     28.813    523.166    544.017    523.166    524.328    523.166
 31.470    558.000    536.883     21.117    522.879    535.820    522.879    523.938    522.879
 31.570    524.000    532.844     -8.844    522.593    531.870    522.593    523.564    522.593
 31.670    534.000    530.907      3.093    522.309    530.011    522.309    523.203    522.309
 31.770    570.494    529.850     40.644    522.025    529.019    522.025    522.854    522.025
 31.870    555.397    529.168     26.228    521.742    528.395    521.742    522.514    521.742
 31.970    517.328    528.688    -11.360    521.461    527.964    521.461    522.183    521.461
 32.070    543.000    528.350     14.650    521.180    527.670    521.180    521.859    521.180
 32.170    563.298    528.131     35.167    520.901    527.489    520.901    521.541    520.901
 32.270    529.409    528.022      1.387    520.623    527.416    520.623    521.229    520.623
 32.370    516.492    528.026    -11.535    520.346    527.450    520.346    520.921    520.346
 32.470    555.000    528.151     26.849    520.070    527.602    520.070    520.618    520.070
 32.570    564.000    528.412     35.588    519.796    527.888    519.796    520.319    519.796
 32.670    557.270    528.838     28.432    519.522    528.336    519.522    520.024    519.522
 32.770    561.297    529.468     31.829    519.250    528.985    519.250    519.732    519.250
 32.870    522.000    530.358     -8.358    518.979    529.893    518.979    519.443    518.979
 32.970    527.000    531.593     -4.593    518.710    531.144    518.710    519.157    518.710
 33.070    556.905    533.305     23.600    518.441    532.871    518.441    518.874    518.441
 33.170    544.606    535.735      8.871    518.174    535.313    518.174    518.594    518.174
 33.270    511.347    539.438    -28.091    517.908    539.028    517.908    518.316    517.908
 33.370    558.609    545.917     12.692    517.644    545.516    517.644    518.040    517.644
 33.470    523.585    559.079    -35.494    517.380    558.686    517.380    517.767    517.380
 33.570    544.000    587.289    -43.289    517.118    586.900    517.118    517.495    517.118
 33.670    633.000    643.606    -10.606    516.857    643.215    516.857    517.226    516.857
 33.770    793.000    739.657     53.343    516.598    739.257    516.598    516.959    516.598
 33.870    876.823    871.389      5.434    516.340    870.978    516.340    516.694    516.340
 33.970   1033.000   1003.109     29.891    516.083   1002.694    516.083    516.430    516.083
 34.070   1051.472   1067.555    -16.083    515.827   1067.155    515.827    516.169    515.827
 34.170   1020.000   1019.126      0.874    515.573   1018.758    515.573    515.909    515.573
 34.270    888.653    893.547     -4.894    515.320    893.209    515.320    515.652    515.320
 34.370    764.000    758.492      5.508    515.069    758.171    515.069    515.396    515.069
 34.470    637.000    655.271    -18.271    514.819    654.956    514.819    515.141    514.819
 34.570    571.517    592.299    -20.782    514.570    591.985    514.570    514.889    514.570
 34.670    569.000    559.604      9.396    514.323    559.291    514.323    514.638    514.323
 34.770    498.000    543.893    -45.893    514.077    543.582    514.077    514.389    514.077
 34.870    527.000    535.987     -8.987    513.832    535.678    513.832    514.142    513.832
 34.970    515.000    531.352    -16.352    513.589    531.044    513.589    513.896    513.589
 35.070    543.000    528.173     14.827    513.347    527.868    513.347    513.652    513.347
 35.170    551.000    525.779     25.221    513.107    525.477    513.107    513.409    513.107
 35.270    524.438    523.889      0.549    512.868    523.588    512.868    513.168    512.868
 35.370    546.000    522.355     23.645    512.631    522.056    512.631    512.929    512.631
 35.470    579.000    521.083     57.917    512.395    520.785    512.395    512.692    512.395
 35.570    527.421    520.010      7.412    512.160    519.713    512.160    512.456    512.160
 35.670    476.000    519.090    -43.090    511.927    518.795    511.927    512.222    511.927
 35.770    491.722    518.291    -26.569    511.695    517.997    511.695    511.989    511.695
 35.870    500.000    517.589    -17.589    511.465    517.295    511.465    511.758    511.465
 35.970    500.000    516.965    -16.965    511.236    516.672    511.236    511.529    511.236
 36.070    508.678    516.406     -7.729    511.009    516.114    511.009    511.301    511.009
 36.170    500.226    515.903    -15.677    510.783    515.611    510.783    511.075    510.783
 36.270    492.000    515.447    -23.447    510.559    515.155    510.559    510.850    510.559
 36.370    515.000    515.033     -0.033    510.336    514.742    510.336    510.627    510.336
 36.470    499.302    514.658    -15.356    510.114    514.367    510.114    510.406    510.114
 36.570    468.000    514.321    -46.321    509.895    514.029    509.895    510.186    509.895
 36.670    496.595    514.022    -17.427    509.676    513.730    509.676    509.968    509.676
 36.770    481.000    513.767    -32.767    509.460    513.475    509.460    509.752    509.460
 36.870    518.000    513.576      4.424    509.244    513.283    509.244    509.537    509.244
 36.970    488.598    513.498    -24.901    509.030    513.205    509.030    509.324    509.030
 37.070    521.000    513.658      7.342    508.818    513.364    508.818    509.113    508.818
 37.170    515.000    514.293      0.707    508.608    513.998    508.608    508.903    508.608
 37.270    521.370    515.744      5.627    508.398    515.448    508.398    508.694    508.398
 37.370    519.219    518.298      0.922    508.191    518.002    508.191    508.488    508.191
 37.470    527.000    521.865      5.135    507.985    521.568    507.985    508.283    507.985
 37.570    532.000    525.627      6.373    507.780    525.331    507.780    508.080    507.780
 37.670    504.975    527.998    -23.022    507.577    527.701    507.577    507.878    507.577
 37.770    505.000    527.648    -22.648    507.376    527.352    507.376    507.678    507.376
 37.870    491.000    524.915    -33.915    507.176    524.620    507.176    507.480    507.176
 37.970    533.000    521.243     11.757    506.978    520.948    506.978    507.283    506.978
 38.070    489.000    517.754    -28.754    506.781    517.458    506.781    507.088    506.781
 38.170    508.428    514.894     -6.466    506.586    514.595    506.586    506.894    506.586
 38.270    542.698    512.765     29.933    506.392    512.462    506.392    506.703    506.392
 38.370    462.000    511.292    -49.292    506.200    510.984    506.200    506.513    506.200
 38.470    512.000    510.309      1.691    506.010    509.998    506.010    506.324    506.010
 38.570    539.000    509.656     29.344    505.821    509.341    505.821    506.138    505.821
 38.670    511.000    509.204      1.796    505.634    508.886    505.634    505.953    505.634
 38.770    518.606    508.865      9.741    505.448    508.545    505.448    505.769    505.448
 38.870    517.000    508.587      8.413    505.264    508.264    505.264    505.588    505.264
 38.970    540.000    508.344     31.656    505.082    508.018    505.082    505.408    505.082
 39.070    473.000    508.122    -35.122    504.901    507.793    504.901    505.230    504.901
 39.170    458.000    507.915    -49.915    504.722    507.584    504.722    505.053    504.722
 39.270    457.000    507.722    -50.722    504.544    507.388    504.544    504.878    504.544
 39.370    461.167    507.539    -46.372    504.368    507.202    504.368    504.705    504.368
 39.470    501.000    507.366     -6.366    504.194    507.026    504.194    504.534    504.194
 39.570    529.000    507.201     21.799    504.021    506.859    504.021    504.364    504.021
 39.670    475.000    507.046    -32.046    503.850    506.700    503.850    504.196    503.850
 39.770    524.000    506.898     17.102    503.681    506.549    503.681    504.030    503.681
 39.870    516.000    506.758      9.242    503.513    506.406    503.513    503.866    503.513
 39.970    509.000    506.627      2.373    503.346    506.271    503.346    503.703    503.346
 40.070    462.544    506.504    -43.960    503.182    506.144    503.182    503.542    503.182
 40.170    522.953    506.389     16.564    503.019    506.026    503.019    503.383    503.019
 40.270    510.000    506.285      3.715    502.857    505.917    502.857    503.225    502.857
 40.370    546.000    506.190     39.810    502.698    505.819    502.698    503.069    502.698
 40.470    459.069    506.107    -47.038    502.539    505.731    502.539    502.915    502.539
 40.570    506.262    506.036      0.226    502.383    505.657    502.383    502.763    502.383
 40.670    537.000    505.980     31.020    502.228    505.596    502.228    502.613    502.228
 40.770    526.463    505.941     20.523    502.075    505.552    502.075    502.464    502.075
 40.870    513.165    505.921      7.244    501.923    505.527    501.923    502.317    501.923
 40.970    537.378    505.924     31.455    501.773    505.526    501.773    502.172    501.773
 41.070    498.651    505.954     -7.303    501.625    505.551    501.625    502.029    501.625
 41.170    508.744    506.019      2.724    501.478    505.611    501.478    501.887    501.478
 41.270    528.000    506.127     21.873    501.333    505.714    501.333    501.747    501.333
 41.370    514.000    506.288      7.712    501.190    505.870    501.190    501.610    501.190
 41.470    481.000    506.520    -25.520    501.048    506.096    501.048    501.474    501.048
 41.570    445.000    506.848    -61.848    500.908    506.418    500.908    501.339    500.908
 41.670    509.000    507.319      1.681    500.769    506.883    500.769    501.207    500.769
 41.770    501.470    508.036     -6.567    500.633    507.595    500.633    501.076    500.633
 41.870    496.000    509.249    -13.249    500.497    508.802    500.497    500.948    500.497
 41.970    505.651    511.529     -5.878    500.364    511.075    500.364    500.821    500.364
 42.070    509.000    516.004     -7.004    500.232    515.546    500.232    500.696    500.232
 42.170    490.000    524.465    -34.465    500.102    524.004    500.102    500.573    500.102
 42.270    526.000    538.945    -12.945    499.973    538.482    499.973    500.452    499.973
 42.370    522.971    560.476    -37.505    499.846    560.016    499.846    500.332    499.846
 42.470    604.538    587.261     17.277    499.721    586.806    499.721    500.215    499.721
 42.570    568.304    613.076    -44.772    499.597    612.626    499.597    500.100    499.597
 42.670    647.000    627.826     19.174    499.475    627.378    499.475    499.986    499.475
 42.770    592.855    623.814    -30.959    499.354    623.358    499.354    499.875    499.354
 42.870    603.000    603.382     -0.382    499.235    602.909    499.235    499.765    499.235
 42.970    578.960    576.136      2.824    499.118    575.640    499.118    499.658    499.118
 43.070    549.000    550.867     -1.867    499.003    550.346    499.003    499.552    499.003
 43.170    560.000    531.943     28.057    498.889    531.401    498.889    499.449    498.889
 43.270    541.024    519.851     21.173    498.776    519.290    498.776    499.348    498.776
 43.370    486.220    512.997    -26.777    498.666    512.421    498.666    499.248    498.666
 43.470    487.000    509.369    -22.369    498.557    508.779    498.557    499.151    498.557
 43.570    547.206    507.433     39.773    498.449    506.829    498.449    499.056    498.449
 43.670    504.281    506.302     -2.021    498.343    505.684    498.343    498.963    498.343
 43.770    511.000    505.552      5.448    498.239    504.920    498.239    498.873    498.239
 43.870    549.000    505.003     43.997    498.137    504.357    498.137    498.784    498.137
 43.970    486.000    504.578    -18.578    498.036    503.916    498.036    498.698    498.036
 44.070    487.000    504.240    -17.240    497.936    503.563    497.936    498.614    497.936
 44.170    527.671    503.968     23.703    497.839    503.274    497.839    498.533    497.839
 44.270    534.000    503.748     30.252    497.742    503.037    497.742    498.454    497.742
 44.370    543.005    503.570     39.435    497.648    502.842    497.648    498.377    497.648
 44.470    516.237    503.428     12.809    497.555    502.680    497.555    498.303    497.555
 44.570    490.000    503.315    -13.315    497.464    502.547    497.464    498.232    497.464
 44.670    490.779    503.228    -12.449    497.374    502.439    497.374    498.163    497.374
 44.770    471.098    503.163    -32.065    497.286    502.353    497.286    498.097    497.286
 44.870    475.658    503.120    -27.462    497.200    502.286    497.200    498.034    497.200
 44.970    499.000    503.096     -4.096    497.115    502.237    497.115    497.974    497.115
 45.070    550.000    503.090     46.910    497.031    502.205    497.031    497.917    497.031
 45.170    501.000    503.103     -2.103    496.950    502.190    496.950    497.863    496.950
 45.270    527.000    503.132     23.868    496.870    502.190    496.870    497.812    496.870
 45.370    502.761    503.180     -0.418    496.791    502.206    496.791    497.765    496.791
 45.470    544.000    503.245     40.755    496.714    502.238    496.714    497.721    496.714
 45.570    524.125    503.329     20.796    496.639    502.286    496.639    497.682    496.639
 45.670    474.000    503.433    -29.433    496.565    502.352    496.565    497.646    496.565
 45.770    533.019    503.559     29.461    496.493    502.436    496.493    497.615    496.493
 45.870    497.000    503.707     -6.707    496.422    502.541    496.422    497.588    496.422
 45.970    505.000    503.881      1.119    496.353    502.667    496.353    497.566    496.353
 46.070    535.000    504.083     30.917    496.286    502.819    496.286    497.550    496.286
 46.170    474.000    504.318    -30.318    496.220    502.998    496.220    497.539    496.220
 46.270    541.707    504.589     37.118    496.155    503.210    496.155    497.534    496.155
 46.370    501.310    504.904     -3.594    496.092    503.459    496.092    497.536    496.092
 46.470    526.000    505.269     20.731    496.031    503.754    496.031    497.545    496.031
 46.570    495.000    505.696    -10.696    495.971    504.104    495.971    497.563    495.971
 46.670    515.000    506.201      8.799    495.913    504.524    495.913    497.589    495.913
 46.770    477.753    506.812    -29.059    495.856    505.042    495.856    497.625    495.856
 46.870    482.000    507.586    -25.586    495.801    505.713    495.801    497.672    495.801
 46.970    483.000    508.650    -25.650    495.747    506.663    495.747    497.732    495.747
 47.070    508.000    510.279     -2.279    495.695    508.165    495.695    497.805    495.695
 47.170    478.584    512.999    -34.414    495.645    510.743    495.645    497.895    495.645
 47.270    514.216    517.658     -3.442    495.596    515.242    495.596    498.003    495.596
 47.370    532.000    525.317      6.683    495.548    522.718    495.548    498.133    495.548
 47.470    566.652    536.826     29.827    495.502    534.018    495.502    498.287    495.502
 47.570    596.000    552.084     43.916    495.457    549.038    495.457    498.470    495.457
 47.670    614.589    569.255     45.334    495.414    565.936    495.414    498.688    495.414
 47.770    590.000    584.323      5.677    495.373    580.693    495.373    498.947    495.373
 47.870    606.000    591.930     14.070    495.333    587.947    495.333    499.256    495.333
 47.970    565.435    588.907    -23.472    495.294    584.517    495.294    499.629    495.294
 48.070    570.000    577.418     -7.418    495.257    572.548    495.257    500.083    495.257
 48.170    566.137    562.693      3.444    495.221    557.236    495.221    500.646    495.221
 48.270    593.635    549.285     44.350    495.187    543.090    495.187    501.360    495.187
 48.370    546.000    539.643      6.357    495.154    532.492    495.154    502.292    495.154
 48.470    513.000    534.383    -21.383    495.123    525.955    495.123    503.542    495.123
 48.570    525.000    533.027     -8.027    495.093    522.855    495.093    505.259    495.093
 48.670    531.826    534.795     -2.969    495.065    522.211    495.065    507.644    495.065
 48.770    537.000    539.116     -2.116    495.038    523.200    495.038    510.950    495.038
 48.870    576.604    545.788     30.816    495.012    525.340    495.012    515.456    495.012
 48.970    543.000    554.925    -11.925    494.988    528.488    494.988    521.421    494.988
 49.070    557.883    566.856     -8.973    494.965    532.818    494.965    528.998    494.965
 49.170    613.000    582.187     30.813    494.944    539.001    494.944    538.125    494.944
 49.270    599.444    602.281     -2.838    494.924    548.855    494.924    548.343    494.924
 49.370    597.166    630.573    -33.407    494.906    566.888    494.906    558.577    494.906
 49.470    728.000    675.104     52.896    494.889    602.979    494.889    566.989    494.889
 49.570    788.000    751.876     36.124    494.873    675.348    494.873    571.358    494.873
 49.670    923.199    886.234     36.965    494.859    810.766    494.859    570.250    494.859
 49.770   1103.000   1106.488     -3.488    494.846   1037.149    494.846    564.066    494.846
 49.870   1507.919   1425.849     82.070    494.834   1365.816    494.834    554.708    494.834
 49.970   1841.000   1818.219     22.781    494.824   1768.546    494.824    544.323    494.824
 50.070   2236.000   2202.842     33.158    494.815   2163.071    494.815    534.446    494.815
 50.170   2435.000   2456.693    -21.693    494.808   2425.564    494.808    525.888    494.808
 50.270   2423.000   2473.137    -50.137    494.802   2449.074    494.802    518.934    494.802
 50.370   2329.023   2241.739     87.284    494.797   2223.146    494.797    513.550    494.797
 50.470   1867.000   1858.793      8.207    494.794   1844.247    494.794    509.530    494.794
 50.570   1415.000   1451.996    -36.996    494.792   1440.360    494.792    506.603    494.792
 50.670   1067.231   1112.991    -45.760    494.791   1103.423    494.791    504.494    494.791
 50.770    818.000    878.247    -60.247    494.792    870.162    494.792    502.971    494.792
 50.870    731.000    740.206     -9.206    494.794    733.212    494.794    501.852    494.794
 50.970    701.000    669.746     31.254    494.797    663.582    494.797    501.009    494.797
 51.070    642.796    635.797      6.998    494.801    630.284    494.801    500.355    494.801
 51.170    653.000    615.936     37.064    494.807    610.944    494.807    499.835    494.807
 51.270    597.000    599.026     -2.026    494.814    594.458    494.814    499.412    494.814
 51.370    561.000    582.415    -21.415    494.823    578.198    494.823    499.063    494.823
 51.470    535.892    567.107    -31.216    494.832    563.184    494.832    498.772    494.832
 51.570    559.138    554.480      4.658    494.843    550.806    494.843    498.529    494.843
 51.670    563.984    545.155     18.829    494.855    541.693    494.855    498.325    494.855
 51.770    591.301    538.959     52.342    494.869    535.679    494.869    498.154    494.869
 51.870    530.000    535.266     -5.266    494.884    532.143    494.884    498.010    494.884
 51.970    534.000    533.375      0.625    494.899    530.386    494.899    497.891    494.899
 52.070    541.000    532.748      8.252    494.917    529.874    494.917    497.792    494.917
 52.170    531.000    533.087     -2.087    494.935    530.312    494.935    497.712    494.935
 52.270    506.000    534.337    -28.337    494.955    531.645    494.955    497.648    494.955
 52.370    538.000    536.718      1.282    494.975    534.096    494.975    497.598    494.975
 52.470    531.190    540.881     -9.691    494.997    538.318    494.997    497.561    494.997
 52.570    572.000    548.271     23.729    495.021    545.756    495.021    497.536    495.021
 52.670    584.761    561.664     23.097    495.045    559.187    495.045    497.521    495.045
 52.770    591.000    585.676      5.324    495.070    583.229    495.070    497.516    495.070
 52.870    627.000    626.710      0.290    495.097    624.282    495.097    497.521    495.097
 52.970    682.315    691.602     -9.287    495.125    689.187    495.125    497.534    495.125
 53.070    747.017    784.579    -37.562    495.154    782.170    495.154    497.555    495.154
 53.170    965.000    902.999     62.001    495.184    900.591    495.184    497.583    495.184
 53.270   1054.000   1033.306     20.694    495.216   1030.896    495.216    497.619    495.216
 53.370   1101.877   1149.165    -47.288    495.248   1146.752    495.248    497.663    495.248
 53.470   1244.000   1216.175     27.825    495.282   1213.758    495.282    497.713    495.282
 53.570   1233.000   1209.108     23.892    495.316   1206.680    495.316    497.770    495.316
 53.670   1170.673   1131.140     39.533    495.352   1128.692    495.352    497.834    495.352
 53.770    944.000   1010.897    -66.897    495.389   1008.415    495.389    497.905    495.389
 53.870    874.000    881.943     -7.943    495.427    879.418    495.427    497.983    495.427
 53.970    747.000    768.257    -21.257    495.466    765.679    495.466    498.068    495.466
 54.070    649.000    681.153    -32.153    495.506    678.516    495.506    498.160    495.506
 54.170    630.000    621.691      8.309    495.547    618.990    495.547    498.260    495.547
 54.270    589.159    584.894      4.265    495.590    582.124    495.590    498.367    495.590
 54.370    601.000    563.857     37.143    495.633    561.012    495.633    498.482    495.633
 54.470    574.000    552.471     21.529    495.677    549.546    495.677    498.606    495.677
 54.570    558.000    546.487     11.513    495.723    543.474    495.723    498.738    495.723
 54.670    527.157    543.410    -16.253    495.769    540.301    495.769    498.879    495.769
 54.770    549.000    541.962      7.038    495.817    538.750    495.817    499.030    495.817
 54.870    562.184    541.555     20.630    495.865    538.229    495.865    499.192    495.865
 54.970    566.000    541.938     24.062    495.915    538.488    495.915    499.365    495.915
 55.070    550.507    543.021      7.486    495.965    539.437    495.965    499.550    495.965
 55.170    586.000    544.794     41.206    496.016    541.062    496.016    499.748    496.016
 55.270    571.000    547.297     23.703    496.069    543.405    496.069    499.961    496.069
 55.370    538.263    550.625    -12.361    496.122    546.558    496.122    500.189    496.122
 55.470    516.760    554.951    -38.191    496.177    550.693    496.177    500.434    496.177
 55.570    562.000    560.608      1.392    496.232    556.141    496.232    500.698    496.232
 55.670    578.000    568.285      9.715    496.288    563.589    496.288    500.984    496.288
 55.770    638.000    579.465     58.535    496.345    574.517    496.345    501.292    496.345
 55.870    627.158    597.259     29.900    496.403    592.033    496.403    501.626    496.403
 55.970    635.000    627.703      7.297    496.462    622.170    496.462    501.989    496.462
 56.070    663.000    681.234    -18.234    496.522    675.359    496.522    502.385    496.522
 56.170    731.000    773.392    -42.392    496.583    767.134    496.583    502.817    496.583
 56.270    884.000    923.107    -39.107    496.645    916.422    496.645    503.291    496.645
 56.370   1137.471   1147.051     -9.581    496.707   1139.891    496.707    503.814    496.707
 56.470   1414.000   1450.067    -36.067    496.771   1442.382    496.771    504.390    496.771
 56.570   1840.000   1814.301     25.699    496.835   1806.041    496.835    505.031    496.835
 56.670   2067.000   2191.312   -124.312    496.900   2182.429    496.900    505.744    496.900
 56.770   2468.000   2502.249    -34.249    496.966   2492.688    496.966    506.543    496.966
 56.870   2629.258   2656.892    -27.633    497.033   2646.577    497.033    507.443    497.033
 56.970   2549.000   2601.064    -52.064    497.100   2589.880    497.100    508.464    497.100
 57.070   2308.000   2356.891    -48.891    497.169   2344.663    497.169    509.632    497.169
 57.170   2038.000   2004.223     33.777    497.238   1990.725    497.238    510.982    497.238
 57.270   1610.000   1630.491    -20.491    497.308   1615.455    497.308    512.565    497.308
 57.370   1305.000   1299.152      5.848    497.379   1282.248    497.379    514.460    497.379
 57.470   1018.000   1042.062    -24.062    497.451   1022.859    497.451    516.782    497.451
 57.570    853.978    864.222    -10.244    497.523    842.119    497.523    519.710    497.523
 57.670    709.000    753.890    -44.890    497.596    728.030    497.596    523.508    497.596
 57.770    683.000    693.364    -10.364    497.670    662.510    497.670    528.552    497.670
 57.870    728.000    666.804     61.196    497.745    629.211    497.745    535.350    497.745
 57.970    641.000    663.881    -22.881    497.820    617.165    497.820    544.537    497.820
 58.070    737.000    680.078     56.922    497.896    621.126    497.896    556.839    497.896
 58.170    677.000    715.153    -38.153    497.973    640.118    497.973    572.989    497.973
 58.270    820.000    770.895     49.105    498.050    675.325    498.050    593.591    498.050
 58.370    803.000    848.804    -45.804    498.129    727.954    498.129    618.940    498.129
 58.470    911.000    947.972    -36.972    498.208    797.350    498.208    648.782    498.208
 58.570   1085.726   1063.381     22.345    498.287    879.605    498.287    682.013    498.287
 58.670   1160.000   1185.182    -25.182    498.367    967.246    498.367    716.257    498.367
 58.770   1328.000   1299.885     28.115    498.448   1050.828    498.448    747.471    498.448
 58.870   1468.348   1393.558     74.790    498.530   1121.956    498.530    770.114    498.530
 58.970   1453.303   1454.006     -0.703    498.612   1173.839    498.612    778.780    498.612
 59.070   1393.623   1471.943    -78.320    498.695   1199.593    498.695    771.066    498.695
 59.170   1476.000   1444.883     31.117    498.778   1194.517    498.778    749.179    498.778
 59.270   1410.000   1381.541     28.459    498.862   1161.998    498.862    718.442    498.862
 59.370   1354.859   1299.725     55.135    498.947   1114.265    498.947    684.431    498.947
 59.470   1235.000   1218.885     16.115    499.032   1066.646    499.032    651.269    499.032
 59.570   1190.159   1155.855     34.304    499.118   1033.529    499.118    621.405    499.118
 59.670   1193.533   1125.273     68.260    499.204   1028.392    499.204    596.001    499.204
 59.770   1127.000   1138.661    -11.661    499.291   1062.471    499.291    575.345    499.291
 59.870   1231.000   1199.585     31.415    499.378   1139.606    499.378    559.166    499.378
 59.970   1294.000   1298.878     -4.878    499.466   1251.229    499.466    546.870    499.466
 60.070   1512.000   1413.173     98.827    499.555   1374.714    499.555    537.729    499.555
 60.170   1578.000   1507.508     70.492    499.644   1475.840    499.644    531.015    499.644
 60.270   1575.000   1544.632     30.368    499.733   1518.003    499.733    526.088    499.733
 60.370   1475.725   1502.777    -27.052    499.823   1479.941    499.823    522.438    499.823
 60.470   1382.000   1389.016     -7.016    499.914   1369.090    499.914    519.683    499.914
 60.570   1175.030   1232.307    -57.277    500.005   1214.655    500.005    517.560    500.005
 60.670   1107.665   1065.963     41.703    500.096   1050.117    500.096    515.890    500.096
 60.770    892.996    915.842    -22.846    500.188    901.445    500.188    514.562    500.188
 60.870    819.000    796.477     22.523    500.281    783.244    500.281    513.505    500.281
 60.970    678.232    711.951    -33.720    500.373    699.647    500.373    512.673    500.373
 61.070    617.000    659.393    -42.393    500.467    647.815    500.467    512.038    500.467
 61.170    583.000    633.356    -50.356    500.560    622.325    500.560    511.579    500.560
 61.270    588.000    629.485    -41.485    500.654    618.840    500.654    511.279    500.654
 61.370    689.238    646.546     42.691    500.749    636.148    500.749    511.114    500.749
 61.470    666.000    686.597    -20.597    500.844    676.331    500.844    511.059    500.844
 61.570    773.000    753.457     19.543    500.939    743.248    500.939    511.074    500.939
 61.670    860.780    849.854     10.926    501.035    839.683    501.035    511.102    501.035
 61.770    987.000    973.929     13.071    501.131    963.849    501.131    511.075    501.131
 61.870   1085.000   1116.146    -31.146    501.227   1106.282    501.227    510.925    501.227
 61.970   1284.271   1257.705     26.566    501.324   1248.228    501.324    510.618    501.324
 62.070   1311.000   1371.678    -60.678    501.421   1362.752    501.421    510.164    501.421
 62.170   1373.000   1429.373    -56.373    501.518   1421.118    501.518    509.614    501.518
 62.270   1384.000   1413.342    -29.342    501.615   1405.812    501.615    509.028    501.615
 62.370   1265.000   1328.331    -63.331    501.713   1321.516    501.713    508.456    501.713
 62.470   1143.000   1197.847    -54.847    501.812   1191.693    501.812    507.932    501.812
 62.570   1100.342   1050.883     49.459    501.910   1045.313    501.910    507.473    501.910
 62.670    838.000    911.448    -73.448    502.009    906.379    502.009    507.085    502.009
 62.770    821.375    794.502     26.873    502.108    789.855    502.108    506.767    502.108
 62.870    655.000    705.918    -50.918    502.207    701.621    502.207    506.514    502.207
 62.970    659.341    644.577     14.764    502.307    640.573    502.307    506.318    502.307
 63.070    617.000    605.393     11.607    502.406    601.633    502.406    506.169    502.406
 63.170    589.000    582.149      6.851    502.506    578.596    502.506    506.058    502.506
 63.270    541.384    569.407    -28.023    502.606    566.032    502.606    505.979    502.606
 63.370    591.892    563.372     28.520    502.707    560.150    502.707    505.923    502.707
 63.470    525.000    562.004    -37.004    502.807    558.917    502.807    505.887    502.807
 63.570    608.000    564.815     43.185    502.908    561.847    502.908    505.865    502.908
 63.670    521.485    572.595    -51.110    503.009    569.733    503.009    505.856    503.009
 63.770    594.225    587.140      7.085    503.110    584.371    503.110    505.857    503.110
 63.870    601.000    610.878     -9.878    503.211    608.190    503.211    505.868    503.211
 63.970    640.000    646.243     -6.243    503.312    643.624    503.312    505.885    503.312
 64.070    706.000    694.760     11.240    503.414    692.201    503.414    505.910    503.414
 64.170    795.000    755.947     39.053    503.515    753.437    503.515    505.941    503.515
 64.270    800.366    826.277    -25.911    503.617    823.811    503.617    505.977    503.617
 64.370    871.000    898.533    -27.533    503.719    896.110    503.719    506.018    503.719
 64.470    985.381    962.050     23.331    503.821    959.672    503.821    506.064    503.821
 64.570   1043.856   1004.974     38.882    503.923   1002.650    503.923    506.115    503.923
 64.670   1053.323   1018.927     34.396    504.025   1016.665    504.025    506.169    504.025
 64.770   1011.836   1002.786      9.050    504.127   1000.592    504.127    506.227    504.127
 64.870    993.000    962.153     30.847    504.229    960.028    504.229    506.289    504.229
 64.970    860.000    906.315    -46.315    504.331    904.255    504.331    506.354    504.331
 65.070    844.000    845.186     -1.186    504.433    843.185    504.433    506.422    504.433
 65.170    816.326    786.667     29.659    504.535    784.716    504.535    506.492    504.535
 65.270    716.000    735.211    -19.211    504.638    733.301    504.638    506.566    504.638
 65.370    742.936    692.120     50.816    504.740    690.242    504.740    506.642    504.740
 65.470    631.000    656.961    -25.961    504.842    655.107    504.842    506.721    504.842
 65.570    597.000    628.841    -31.841    504.944    627.006    504.944    506.802    504.944
 65.670    631.000    606.869     24.131    505.046    605.047    505.046    506.885    505.046
 65.770    599.000    590.163      8.837    505.148    588.353    505.148    506.970    505.148
 65.870    583.000    577.882      5.118    505.250    576.081    505.250    507.058    505.250
 65.970    561.000    569.265     -8.265    505.352    567.473    505.352    507.147    505.352
 66.070    575.000    563.649     11.351    505.454    561.864    505.454    507.239    505.454
 66.170    582.000    560.461     21.539    505.556    558.683    505.556    507.333    505.556
 66.270    499.000    559.230    -60.230    505.657    557.458    505.657    507.428    505.657
 66.370    560.000    559.607      0.393    505.759    557.840    505.759    507.526    505.759
 66.470    528.019    561.408    -33.389    505.860    559.643    505.860    507.625    505.860
 66.570    528.951    564.673    -35.721    505.962    562.908    505.962    507.726    505.962
 66.670    539.025    569.782    -30.756    506.063    568.016    506.063    507.830    506.063
 66.770    551.085    577.659    -26.574    506.164    575.889    506.164    507.935    506.164
 66.870    614.000    590.106     23.894    506.265    588.329    506.265    508.042    506.265
 66.970    574.000    610.268    -36.268    506.366    608.481    506.366    508.150    506.366
 67.070    617.175    643.125    -25.949    506.466    641.325    506.466    508.261    506.466
 67.170    732.792    695.774     37.018    506.567    693.957    506.567    508.374    506.567
 67.270    768.219    777.137     -8.918    506.667    775.300    506.667    508.489    506.667
 67.370    918.466    896.664     21.803    506.767    894.804    506.767    508.607    506.767
 67.470   1114.000   1061.842     52.158    506.867   1059.961    506.867    508.726    506.867
 67.570   1309.000   1274.735     34.265    506.966   1272.836    506.966    508.848    506.966
 67.670   1584.000   1528.327     55.673    507.066   1526.418    507.066    508.973    507.066
 67.770   1800.000   1803.738     -3.738    507.165   1801.832    507.165    509.100    507.165
 67.870   2046.633   2069.330    -22.697    507.263   2067.440    507.263    509.229    507.263
 67.970   2299.000   2283.135     15.865    507.362   2281.272    507.362    509.362    507.362
 68.070   2470.000   2401.657     68.343    507.460   2399.827    507.460    509.498    507.460
 68.170   2318.000   2396.369    -78.369    507.558   2394.561    507.558    509.637    507.558
 68.270   2336.620   2268.726     67.894    507.656   2266.912    507.656    509.779    507.656
 68.370   2111.000   2049.257     61.743    507.753   2047.401    507.753    509.926    507.753
 68.470   1837.000   1781.809     55.191    507.850   1779.879    507.850    510.077    507.850
 68.570   1572.000   1507.659     64.341    507.947   1505.630    507.947    510.232    507.947
 68.670   1194.787   1257.391    -62.604    508.044   1255.250    508.044    510.392    508.044
 68.770   1050.357   1048.817      1.540    508.140   1046.557    508.140    510.557    508.140
 68.870    941.000    888.065     52.935    508.235    885.685    508.235    510.728    508.235
 68.970    792.938    772.474     20.464    508.331    769.977    508.331    510.906    508.331
 69.070    669.000    694.275    -25.275    508.426    691.662    508.426    511.090    508.426
 69.170    662.000    643.989     18.011    508.521    641.261    508.521    511.282    508.521
 69.270    665.000    612.816     52.184    508.615    609.970    508.615    511.483    508.615
 69.370    591.326    593.826     -2.500    508.709    590.856    508.709    511.693    508.709
 69.470    534.195    582.190    -47.995    508.802    579.089    508.802    511.913    508.802
 69.570    619.487    574.861     44.627    508.895    571.617    508.895    512.145    508.895
 69.670    522.236    570.067    -47.831    508.988    566.669    508.988    512.391    508.988
 69.770    546.377    566.846    -20.469    509.080    563.279    509.080    512.651    509.080
 69.870    574.000    564.700      9.300    509.172    560.947    509.172    512.927    509.172
 69.970    523.000    563.382    -40.382    509.263    559.424    509.263    513.222    509.263
 70.070    567.000    562.776      4.224    509.354    558.591    509.354    513.539    509.354
 70.170    536.000    562.847    -26.847    509.444    558.411    509.444    513.880    509.444
 70.270    558.439    563.628     -5.189    509.534    558.913    509.534    514.248    509.534
 70.370    580.000    565.235     14.765    509.623    560.208    509.623    514.649    509.623
 70.470    531.330    567.929    -36.599    509.712    562.552    509.712    515.086    509.712
 70.570    585.000    572.214     12.786    509.800    566.442    509.800    515.568    509.800
 70.670    585.028    579.005      6.023    509.888    572.784    509.888    516.101    509.888
 70.770    539.000    589.854    -50.854    509.976    583.119    509.976    516.698    509.976
 70.870    626.000    607.210     18.790    510.062    599.879    510.062    517.374    510.062
 70.970    620.000    634.628    -14.628    510.149    626.593    510.149    518.154    510.149
 71.070    627.000    676.794    -49.794    510.234    667.912    510.234    519.074    510.234
 71.170    706.000    739.161    -33.161    510.319    729.232    510.319    520.186    510.319
 71.270    792.000    827.061    -35.061    510.404    815.803    510.404    521.574    510.404
 71.370    964.000    944.265     19.735    510.488    931.279    510.488    523.357    510.488
 71.470   1072.000   1091.172    -19.172    510.571   1075.888    510.571    525.706    510.571
 71.570   1210.000   1263.026    -53.026    510.654   1244.647    510.654    528.852    510.654
 71.670   1432.000   1448.649    -16.649    510.736   1426.087    510.736    533.092    510.736
 71.770   1629.000   1630.095     -1.095    510.817   1601.914    510.817    538.780    510.817
 71.870   1778.000   1783.838     -5.838    510.898   1748.216    510.898    546.305    510.898
 71.970   1917.000   1884.774     32.226    510.979   1839.513    510.979    556.045    510.979
 72.070   1999.000   1914.079     84.921    511.058   1856.676    511.058    568.301    511.058
 72.170   1793.511   1867.868    -74.357    511.137   1795.674    511.137    583.213    511.137
 72.270   1794.922   1759.369     35.552    511.216   1669.837    511.216    600.669    511.216
 72.370   1694.000   1612.123     81.877    511.293   1503.166    511.293    620.202    511.293
 72.470   1543.000   1450.637     92.363    511.370   1321.085    511.370    640.897    511.370
 72.570   1290.470   1294.463     -3.993    511.446   1144.611    511.446    661.288    511.446
 72.670   1140.000   1155.970    -15.970    511.522    988.163    511.522    679.326    511.522
 72.770    984.000   1040.350    -56.350    511.597    859.386    511.597    692.562    511.597
 72.870    944.000    947.139     -3.139    511.671    760.076    511.671    698.735    511.671
 72.970    784.000    872.724    -88.724    511.744    687.820    511.744    696.649    511.744
 73.070    756.000    812.789    -56.789    511.817    637.855    511.817    686.751    511.817
 73.170    656.000    763.729   -107.729    511.889    604.720    511.889    670.897    511.889
 73.270    711.000    722.973    -11.973    511.960    583.403    511.960    651.530    511.960
 73.370    640.000    688.811    -48.811    512.031    569.917    512.031    630.925    512.031
 73.470    609.000    660.164    -51.164    512.100    561.431    512.100    610.834    512.100
 73.570    685.601    636.384     49.216    512.169    556.125    512.169    592.431    512.169
 73.670    594.000    617.079    -23.079    512.237    552.931    512.237    576.389    512.237
 73.770    562.859    601.946    -39.087    512.305    551.275    512.305    562.982    512.305
 73.870    605.000    590.661     14.339    512.371    550.860    512.371    552.183    512.371
 73.970    597.000    582.816     14.184    512.437    551.510    512.437    543.758    512.437
 74.070    548.405    577.894    -29.488    512.502    553.057    512.502    537.358    512.502
 74.170    606.000    575.275     30.725    512.566    555.273    512.566    532.594    512.566
 74.270    612.000    574.258     37.742    512.630    557.829    512.630    529.090    512.630
 74.370    602.000    574.083     27.917    512.692    560.292    512.692    526.521    512.692
 74.470    649.000    573.981     75.019    512.754    562.154    512.754    524.622    512.754
 74.570    586.619    573.267     13.353    512.814    562.930    512.814    523.196    512.814
 74.670    622.000    571.492     50.508    512.874    562.313    512.874    522.099    512.874
 74.770    633.000    568.572     64.428    512.933    560.317    512.933    521.231    512.933
 74.870    666.000    564.770    101.230    512.992    557.275    512.992    520.526    512.992
 74.970    624.000    560.565     63.435    513.049    553.707    513.049    519.940    513.049
 75.070    594.053    556.495     37.559    513.105    550.183    513.105    519.444    513.105
 75.170    622.000    553.084     68.916    513.161    547.247    513.161    519.018    513.161
 75.270    529.000    550.828    -21.828    513.216    545.408    513.216    518.649    513.216
 75.370    523.000    550.211    -27.211    513.269    545.161    513.269    518.326    513.269
 75.470    556.513    551.733      4.780    513.322    547.012    513.322    518.044    513.322
 75.570    560.515    555.914      4.601    513.374    551.488    513.374    517.795    513.374
 75.670    605.000    563.273     41.727    513.425    559.111    513.425    517.576    513.425
 75.770    583.000    574.240      8.760    513.475    570.316    513.475    517.382    513.475
 75.870    558.000    589.028    -31.028    513.524    585.317    513.524    517.210    513.524
 75.970    583.486    607.459    -23.974    513.572    603.941    513.572    517.057    513.572
 76.070    609.000    628.814    -19.814    513.619    625.469    513.619    516.921    513.619
 76.170    639.514    651.716    -12.202    513.665    648.529    513.665    516.800    513.665
 76.270    628.000    674.110    -46.110    513.710    671.069    513.710    516.692    513.710
 76.370    685.000    693.358     -8.358    513.755    690.452    513.755    516.596    513.755
 76.470    657.000    706.570    -49.570    513.798    703.792    513.798    516.510    513.798
 76.570    704.076    711.326     -7.249    513.840    708.668    513.840    516.433    513.840
 76.670    692.000    706.611    -14.611    513.881    704.070    513.881    516.364    513.881
 76.770    692.000    693.318     -1.318    513.922    690.887    513.922    516.303    513.922
 76.870    612.000    673.793    -61.793    513.961    671.465    513.961    516.248    513.961
 76.970    628.000    650.903    -22.903    513.999    648.672    513.999    516.199    513.999
 77.070    624.000    627.292     -3.292    514.036    625.151    514.036    516.155    514.036
 77.170    588.603    605.027    -16.424    514.072    602.968    514.072    516.115    514.072
 77.270    562.000    585.481    -23.481    514.107    583.497    514.107    516.080    514.107
 77.370    573.000    569.348      3.652    514.141    567.434    514.141    516.048    514.141
 77.470    547.000    556.749     -9.749    514.174    554.899    514.174    516.020    514.174
 77.570    545.000    547.387     -2.387    514.206    545.595    514.206    515.995    514.206
 77.670    512.000    540.729    -28.729    514.237    538.992    514.237    515.972    514.237
 77.770    555.112    536.165     18.947    514.267    534.479    514.267    515.951    514.267
 77.870    514.000    533.120    -19.120    514.296    531.481    514.296    515.933    514.296
 77.970    518.000    531.118    -13.118    514.323    529.524    514.323    515.917    514.323
 78.070    534.294    529.802      4.492    514.350    528.249    514.350    515.902    514.350
 78.170    551.526    528.926     22.600    514.375    527.411    514.375    515.889    514.375
 78.270    551.658    528.330     23.329    514.400    526.851    514.400    515.877    514.400
 78.370    481.740    527.919    -46.178    514.423    526.474    514.423    515.867    514.423
 78.470    507.000    527.639    -20.639    514.445    526.226    514.445    515.857    514.445
 78.570    537.000    527.450      9.550    514.466    526.066    514.466    515.849    514.466
 78.670    554.288    527.356     26.933    514.486    525.999    514.486    515.842    514.486
 78.770    546.000    527.401     18.599    514.505    526.068    514.505    515.837    514.505
 78.870    493.000    527.578    -34.578    514.522    526.267    514.522    515.832    514.522
 78.970    549.933    527.909     22.024    514.539    526.617    514.539    515.829    514.539
 79.070    611.000    528.423     82.577    514.554    527.148    514.554    515.828    514.554
 79.170    498.000    529.152    -31.152    514.568    527.889    514.568    515.829    514.568
 79.270    548.000    530.127     17.873    514.581    528.873    514.581    515.833    514.581
 79.370    486.034    531.377    -45.343    514.593    530.127    514.593    515.840    514.593
 79.470    536.937    532.932      4.005    514.604    531.681    514.604    515.851    514.604
 79.570    519.781    534.829    -15.049    514.614    533.572    514.614    515.867    514.614
 79.670    550.000    537.124     12.876    514.622    535.854    514.622    515.887    514.622
 79.770    516.479    539.909    -23.431    514.629    538.621    514.629    515.912    514.629
 79.870    561.000    543.334     17.666    514.635    542.021    514.635    515.943    514.635
 79.970    538.161    547.631     -9.470    514.640    546.288    514.640    515.978    514.640
 80.070    569.000    553.140     15.860    514.644    551.762    514.644    516.017    514.644
 80.170    566.503    560.305      6.198    514.646    558.890    514.646    516.058    514.646
 80.270    526.899    569.625    -42.726    514.647    568.172    514.647    516.099    514.647
 80.370    560.000    581.554    -21.554    514.647    580.065    514.647    516.138    514.647
 80.470    620.337    596.382     23.955    514.646    594.865    514.646    516.169    514.646
 80.570    632.773    614.124     18.649    514.644    612.589    514.644    516.188    514.644
 80.670    591.875    634.432    -42.557    514.640    632.895    514.640    516.191    514.640
 80.770    613.000    656.547    -43.547    514.635    655.026    514.635    516.177    514.635
 80.870    661.992    679.326    -17.334    514.629    677.837    514.629    516.143    514.629
 80.970    660.000    701.357    -41.357    514.622    699.917    514.622    516.094    514.622
 81.070    662.000    721.170    -59.170    514.613    719.790    514.613    516.033    514.613
 81.170    725.892    737.428    -11.536    514.603    736.113    514.603    515.965    514.603
 81.270    768.000    749.051     18.949    514.592    747.803    514.592    515.893    514.592
 81.370    765.221    755.305      9.916    514.580    754.123    514.580    515.820    514.580
 81.470    762.000    755.886      6.114    514.567    754.765    514.567    515.750    514.567
 81.570    735.000    750.940    -15.940    514.552    749.875    514.552    515.683    514.552
 81.670    743.307    741.005      2.302    514.536    739.989    514.536    515.620    514.536
 81.770    714.691    726.972    -12.280    514.518    725.997    514.518    515.562    514.518
 81.870    704.681    710.046     -5.365    514.500    709.106    514.500    515.508    514.500
 81.970    721.000    691.584     29.416    514.480    690.671    514.480    515.458    514.480
 82.070    658.511    672.811    -14.300    514.459    671.920    514.459    515.413    514.459
 82.170    705.905    654.601     51.304    514.436    653.727    514.436    515.370    514.436
 82.270    621.000    637.433    -16.433    514.413    636.572    514.413    515.329    514.413
 82.370    625.637    621.501      4.136    514.388    620.649    514.388    515.290    514.388
 82.470    590.000    606.893    -16.893    514.362    606.047    514.362    515.253    514.362
 82.570    615.846    593.724     22.122    514.334    592.882    514.334    515.216    514.334
 82.670    595.793    582.160     13.633    514.305    581.319    514.305    515.179    514.305
 82.770    534.769    572.381    -37.612    514.275    571.539    514.275    515.142    514.275
 82.870    546.000    564.544    -18.544    514.244    563.701    514.244    515.105    514.244
 82.970    517.000    558.767    -41.767    514.211    557.922    514.211    515.068    514.211
 83.070    572.000    555.113     16.887    514.177    554.264    514.177    515.030    514.177
 83.170    530.000    553.574    -23.574    514.142    552.721    514.142    514.991    514.142
 83.270    523.541    554.050    -30.510    514.105    553.193    514.105    514.951    514.105
 83.370    513.608    556.327    -42.718    514.067    555.464    514.067    514.911    514.067
 83.470    518.861    560.063    -41.202    514.028    559.195    514.028    514.870    514.028
 83.570    552.000    564.793    -12.793    513.987    563.920    513.987    514.828    513.987
 83.670    546.000    569.938    -23.938    513.946    569.060    513.946    514.784    513.946
 83.770    551.000    574.831    -23.831    513.902    573.950    513.902    514.740    513.902
 83.870    521.000    578.774    -57.774    513.858    577.890    513.858    514.695    513.858
 83.970    615.000    581.122     33.878    513.812    580.237    513.812    514.650    513.812
 84.070    597.307    581.425     15.882    513.765    580.541    513.765    514.603    513.765
 84.170    596.000    579.546     16.454    513.717    578.664    513.717    514.555    513.717
 84.270    564.129    575.698    -11.568    513.667    574.820    513.667    514.506    513.667
 84.370    540.998    570.356    -29.358    513.616    569.481    513.616    514.456    513.616
 84.470    517.696    564.107    -46.411    513.563    563.236    513.563    514.405    513.563
 84.570    604.983    557.530     47.453    513.510    556.662    513.510    514.353    513.510
 84.670    575.000    551.115     23.885    513.455    550.251    513.455    514.300    513.455
 84.770    575.594    545.235     30.358    513.398    544.373    513.398    514.246    513.398
 84.870    517.946    540.130    -22.183    513.341    539.268    513.341    514.191    513.341
 84.970    508.000    535.913    -27.913    513.281    535.051    513.281    514.135    513.281
 85.070    533.000    532.594      0.406    513.221    531.731    513.221    514.077    513.221
 85.170    542.261    530.109     12.152    513.159    529.243    513.159    514.019    513.159
 85.270    564.000    528.349     35.651    513.096    527.480    513.096    513.960    513.096
 85.370    504.000    527.193    -23.193    513.032    526.321    513.032    513.900    513.032
 85.470    562.698    526.531     36.168    512.966    525.653    512.966    513.839    512.966
 85.570    531.400    526.275      5.125    512.899    525.393    512.899    513.777    512.899
 85.670    526.000    526.379     -0.379    512.831    525.491    512.831    513.714    512.831
 85.770    532.000    526.833      5.167    512.761    525.939    512.761    513.649    512.761
 85.870    538.000    527.674     10.326    512.690    526.772    512.690    513.584    512.690
 85.970    515.000    528.981    -13.981    512.618    528.071    512.618    513.518    512.618
 86.070    521.000    530.875     -9.875    512.544    529.956    512.544    513.451    512.544
 86.170    527.000    533.515     -6.515    512.469    532.586    512.469    513.383    512.469
 86.270    544.000    537.082      6.918    512.393    536.141    512.393    513.314    512.393
 86.370    568.000    541.762     26.238    512.315    540.807    512.315    513.244    512.315
 86.470    499.000    547.717    -48.717    512.236    546.746    512.236    513.173    512.236
 86.570    598.000    555.052     42.948    512.156    554.063    512.156    513.101    512.156
 86.670    528.620    563.770    -35.150    512.074    562.762    512.074    513.029    512.074
 86.770    614.752    573.736     41.015    511.991    572.707    511.991    512.955    511.991
 86.870    606.000    584.644     21.356    511.907    583.592    511.907    512.881    511.907
 86.970    562.537    595.997    -33.460    511.821    594.923    511.821    512.806    511.821
 87.070    640.000    607.115     32.885    511.734    606.020    511.734    512.730    511.734
 87.170    646.000    617.152     28.848    511.646    616.036    511.646    512.653    511.646
 87.270    610.332    625.210    -14.878    511.556    624.076    511.556    512.575    511.556
 87.370    617.670    630.441    -12.771    511.465    629.293    511.465    512.497    511.465
 87.470    678.000    632.250     45.750    511.373    631.091    511.373    512.418    511.373
 87.570    653.000    630.478     22.522    511.279    629.313    511.279    512.338    511.279
 87.670    611.150    625.455    -14.305    511.185    624.285    511.185    512.258    511.185
 87.770    611.000    617.886     -6.886    511.088    616.713    511.088    512.177    511.088
 87.870    602.698    608.681     -5.984    510.991    607.505    510.991    512.096    510.991
 87.970    621.832    598.807     23.026    510.892    597.628    510.892    512.014    510.892
 88.070    621.000    589.176     31.824    510.792    587.992    510.792    511.932    510.792
 88.170    581.000    580.583      0.417    510.690    579.393    510.690    511.849    510.690
 88.270    612.000    573.656     38.344    510.588    572.457    510.588    511.766    510.588
 88.370    531.581    568.831    -37.250    510.484    567.620    510.484    511.683    510.484
 88.470    578.000    566.341     11.659    510.378    565.117    510.378    511.600    510.378
 88.570    596.000    566.221     29.779    510.272    564.982    510.272    511.516    510.272
 88.670    544.492    568.320    -23.828    510.164    567.065    510.164    511.433    510.164
 88.770    637.000    572.316     64.684    510.054    571.042    510.054    511.349    510.054
 88.870    548.622    577.737    -29.115    509.944    576.444    509.944    511.266    509.944
 88.970    610.000    583.986     26.014    509.832    582.671    509.832    511.183    509.832
 89.070    589.444    590.370     -0.927    509.719    589.033    509.719    511.101    509.719
 89.170    639.019    596.143     42.877    509.605    594.780    509.605    511.019    509.605
 89.270    580.922    600.561    -19.639    509.489    599.170    509.489    510.937    509.489
 89.370    593.700    602.991     -9.291    509.372    601.568    509.372    510.857    509.372
 89.470    580.000    603.024    -23.024    509.254    601.565    509.254    510.778    509.254
 89.570    592.000    600.576     -8.576    509.135    599.075    509.135    510.700    509.135
 89.670    564.056    595.892    -31.836    509.014    594.345    509.014    510.624    509.014
 89.770    600.000    589.464     10.536    508.892    587.865    508.892    510.549    508.892
 89.870    568.000    581.898    -13.898    508.769    580.243    508.769    510.477    508.769
 89.970    607.570    573.803     33.766    508.644    572.087    508.644    510.407    508.644
 90.070    512.000    565.720    -53.720    508.518    563.938    508.518    510.340    508.518
 90.170    522.945    558.084    -35.139    508.392    556.232    508.392    510.277    508.392
 90.270    552.756    551.210      1.547    508.263    549.282    508.263    510.218    508.263
 90.370    567.959    545.288     22.671    508.134    543.279    508.134    510.163    508.134
 90.470    568.000    540.401     27.599    508.003    538.304    508.003    510.115    508.003
 90.570    570.000    536.537     33.463    507.872    534.345    507.872    510.075    507.872
 90.670    525.000    533.624     -8.624    507.738    531.326    507.738    510.044    507.738
 90.770    553.000    531.550     21.450    507.604    529.135    507.604    510.024    507.604
 90.870    530.725    530.193      0.532    507.469    527.645    507.469    510.020    507.469
 90.970    538.000    529.441      8.559    507.332    526.740    507.332    510.035    507.332
 91.070    517.000    529.204    -12.204    507.194    526.324    507.194    510.074    507.194
 91.170    484.000    529.430    -45.430    507.055    526.338    507.055    510.146    507.055
 91.270    499.000    530.106    -31.106    506.915    526.761    506.915    510.257    506.915
 91.370    520.963    531.265    -10.302    506.773    527.615    506.773    510.421    506.773
 91.470    490.000    532.983    -42.983    506.631    528.961    506.631    510.649    506.631
 91.570    574.214    535.350     38.864    506.487    530.875    506.487    510.956    506.487
 91.670    523.933    538.604    -14.671    506.342    533.577    506.342    511.361    506.342
 91.770    529.382    542.942    -13.561    506.196    537.245    506.196    511.883    506.196
 91.870    524.000    548.582    -24.582    506.049    542.078    506.049    512.540    506.049
 91.970    516.449    555.769    -39.320    505.900    548.299    505.900    513.353    505.900
 92.070    561.000    564.741     -3.741    505.751    556.130    505.751    514.340    505.751
 92.170    587.674    575.692     11.982    505.600    565.749    505.600    515.516    505.600
 92.270    576.751    588.752    -12.001    505.449    577.276    505.449    516.891    505.449
 92.370    583.000    603.953    -20.953    505.296    590.742    505.296    518.467    505.296
 92.470    583.214    621.206    -37.992    505.142    606.062    505.142    520.239    505.142
 92.570    645.000    640.277      4.723    504.987    623.021    504.987    522.188    504.987
 92.670    679.852    660.771     19.081    504.830    641.256    504.830    524.284    504.830
 92.770    668.000    682.133    -14.133    504.673    660.260    504.673    526.478    504.673
 92.870    681.000    703.662    -22.662    504.515    679.397    504.515    528.706    504.515
 92.970    776.459    724.564     51.895    504.355    697.961    504.355    530.880    504.355
 93.070    793.000    744.057     48.943    504.195    715.278    504.195    532.893    504.195
 93.170    812.346    761.501     50.845    504.033    730.833    504.033    534.620    504.033
 93.270    783.000    776.512      6.488    503.871    744.375    503.871    535.926    503.871
 93.370    756.000    789.008    -33.008    503.707    755.943    503.707    536.692    503.707
 93.470    853.666    799.151     54.515    503.543    765.784    503.543    536.831    503.543
 93.570    783.726    807.246    -23.520    503.377    774.229    503.377    536.318    503.377
 93.670    811.000    813.686     -2.686    503.210    781.636    503.210    535.187    503.210
 93.770    815.000    818.944     -3.944    503.043    788.385    503.043    533.531    503.043
 93.870    777.000    823.589    -46.589    502.874    794.921    502.874    531.474    502.874
 93.970    827.000    828.287     -1.287    502.704    801.776    502.704    529.149    502.704
 94.070    860.854    833.704     27.150    502.534    809.494    502.534    526.680    502.534
 94.170    871.000    840.346     30.654    502.362    818.474    502.362    524.173    502.362
 94.270    865.043    848.377     16.666    502.189    828.798    502.189    521.709    502.189
 94.370    871.000    857.509     13.491    502.016    840.115    502.016    519.354    502.016
 94.470    869.238    866.972      2.267    501.841    851.609    501.841    517.151    501.841
 94.570    918.417    875.568     42.849    501.666    862.056    501.666    515.130    501.666
 94.670    825.062    881.815    -56.753    501.490    869.956    501.490    513.307    501.490
 94.770    948.000    884.157     63.843    501.312    873.747    501.312    511.687    501.312
 94.870    838.862    881.266    -42.403    501.134    872.106    501.134    510.267    501.134
 94.970    882.000    872.354      9.646    500.955    864.256    500.955    509.036    500.955
 95.070    893.000    857.400     35.600    500.775    850.188    500.775    507.977    500.775
 95.170    861.000    837.159     23.841    500.594    830.677    500.594    507.074    500.594
 95.270    850.000    813.002     36.998    500.413    807.111    500.413    506.306    500.413
 95.370    793.000    786.660      6.340    500.230    781.243    500.230    505.654    500.230
 95.470    781.000    760.005     20.995    500.047    754.962    500.047    505.099    500.047
 95.570    751.000    734.890     16.110    499.863    730.138    499.863    504.624    499.863
 95.670    788.000    713.055     74.945    499.678    708.525    499.678    504.214    499.678
 95.770    689.000    696.069     -7.069    499.492    691.707    499.492    503.857    499.492
 95.870    692.973    685.296      7.676    499.305    681.057    499.305    503.543    499.305
 95.970    665.039    681.949    -16.910    499.118    677.795    499.118    503.263    499.118
 96.070    711.000    687.007     23.993    498.930    682.909    498.930    503.011    498.930
 96.170    713.128    701.256     11.872    498.741    697.189    498.741    502.781    498.741
 96.270    769.000    725.277     43.723    498.551    721.221    498.551    502.571    498.551
 96.370    789.000    759.400     29.600    498.361    755.336    498.361    502.377    498.361
 96.470    775.000    803.628    -28.628    498.170    799.541    498.170    502.197    498.170
 96.570    850.000    857.543     -7.543    497.978    853.420    497.978    502.030    497.978
 96.670    962.000    920.211     41.789    497.785    916.038    497.785    501.875    497.785
 96.770    996.000    990.086      5.914    497.592    985.854    497.592    501.732    497.592
 96.870   1033.000   1064.966    -31.966    497.398   1060.664    497.398    501.600    497.398
 96.970   1075.509   1141.953    -66.444    497.204   1137.572    497.204    501.480    497.204
 97.070   1179.583   1217.509    -37.926    497.009   1213.040    497.009    501.371    497.009
 97.170   1287.164   1287.565     -0.401    496.813   1283.001    496.813    501.274    496.813
 97.270   1306.000   1347.766    -41.766    496.616   1343.098    496.616    501.190    496.616
 97.370   1318.000   1393.881    -75.881    496.419   1389.100    496.419    501.120    496.419
 97.470   1364.003   1422.399    -58.397    496.222   1417.493    496.222    501.064    496.222
 97.570   1434.000   1431.167      2.833    496.023   1426.123    496.023    501.024    496.023
 97.670   1388.988   1419.827    -30.839    495.824   1414.629    495.824    501.002    495.824
 97.770   1377.000   1389.839    -12.839    495.625   1384.463    495.625    501.000    495.625
 97.870   1321.000   1344.089    -23.089    495.425   1338.510    495.425    501.021    495.425
 97.970   1247.000   1286.322    -39.322    495.225   1280.509    495.225    501.070    495.225
 98.070   1197.000   1220.622    -23.622    495.024   1214.537    495.024    501.152    495.024
 98.170   1139.000   1151.036    -12.036    494.822   1144.634    494.822    501.274    494.822
 98.270   1087.000   1081.336      5.664    494.620   1074.564    494.620    501.444    494.620
 98.370   1020.000   1014.881      5.119    494.418   1007.674    494.418    501.676    494.418
 98.470    914.323    954.540    -40.218    494.215    946.818    494.215    501.984    494.215
 98.570    901.760    902.676     -0.917    494.012    894.341    494.012    502.387    494.012
 98.670    872.316    861.162     11.154    493.808    852.093    493.808    502.910    493.808
 98.770    794.000    831.430    -37.430    493.604    821.476    493.604    503.582    493.604
 98.870    767.000    814.538    -47.538    493.399    803.513    493.399    504.438    493.399
 98.970    800.000    811.242    -11.242    493.195    798.921    493.195    505.520    493.195
 99.070    817.000    822.056     -5.056    492.989    808.165    492.989    506.876    492.989
 99.170    881.000    847.286     33.714    492.784    831.498    492.784    508.559    492.784
 99.270    928.537    887.023     41.514    492.578    868.954    492.578    510.627    492.578
 99.370    905.796    941.106    -35.310    492.372    920.314    492.372    513.140    492.372
 99.470    952.824   1009.051    -56.228    492.165    985.032    492.165    516.157    492.165
 99.570   1128.000   1089.950     38.050    491.958   1062.145    491.958    519.736    491.958
 99.670   1165.664   1182.420    -16.756    491.751   1150.222    491.751    523.925    491.751
 99.770   1227.000   1284.462    -57.462    491.544   1247.229    491.544    528.759    491.544
 99.870   1413.000   1393.412     19.588    491.336   1350.481    491.336    534.259    491.336
 99.970   1430.953   1505.936    -74.982    491.129   1456.652    491.129    540.419    491.129
100.070   1664.000   1618.101     45.899    490.921   1561.838    490.921    547.208    490.921
100.170   1742.000   1725.565     16.435    490.712   1661.762    490.712    554.563    490.712
100.270   1841.000   1823.903     17.097    490.504   1752.099    490.504    562.379    490.504
100.370   1954.000   1909.002     44.998    490.296   1828.881    490.296    570.514    490.296
100.470   2043.000   1977.407     65.593    490.087   1888.842    490.087    578.775    490.087
100.570   2043.000   2026.474     16.526    489.878   1929.581    489.878    586.919    489.878
100.670   2095.119   2054.362     40.757    489.670   1949.550    489.670    594.650    489.670
100.770   2051.000   2059.990     -8.990    489.461   1948.012    489.461    601.626    489.461
100.870   2059.000   2043.141     15.859    489.252   1925.116    489.252    607.478    489.252
100.970   1984.000   2004.706    -20.706    489.043   1882.121    489.043    611.838    489.043
101.070   1944.000   1946.927     -2.927    488.834   1821.583    488.834    614.391    488.834
101.170   1842.000   1873.398    -31.398    488.625   1747.305    488.625    614.929    488.625
101.270   1830.000   1788.731     41.269    488.416   1663.957    488.416    613.395    488.416
101.370   1696.000   1697.998     -1.998    488.208   1576.507    488.208    609.892    488.208
101.470   1589.000   1606.142    -17.142    487.999   1489.658    487.999    604.663    487.999
101.570   1519.000   1517.521      1.479    487.790   1407.431    487.790    598.045    487.790
101.670   1426.000   1435.605     -9.605    487.582   1332.925    487.582    590.410    487.582
101.770   1418.027   1362.834     55.193    487.373   1268.214    487.373    582.124    487.373
101.870   1339.072   1300.574     38.498    487.165   1214.338    487.165    573.518    487.165
101.970   1220.000   1249.157    -29.157    486.957   1171.346    486.957    564.872    486.957
102.070   1273.753   1207.967     65.786    486.749   1138.397    486.749    556.413    486.749
102.170   1122.918   1175.581    -52.663    486.541   1113.889    486.541    548.320    486.541
102.270   1165.582   1149.943     15.639    486.333   1095.634    486.333    540.724    486.333
102.370   1079.420   1128.588    -49.168    486.126   1081.077    486.126    533.715    486.126
102.470   1165.524   1108.916     56.609    485.919   1067.564    485.919    527.349    485.919
102.570   1073.000   1088.508    -15.508    485.712   1052.651    485.712    521.648    485.712
102.670   1044.918   1065.439    -20.521    485.506   1034.416    485.506    516.609    485.506
102.770   1040.350   1038.504      1.846    485.300   1011.677    485.300    512.208    485.300
102.870    981.000   1007.301    -26.301    485.094    984.073    485.094    508.404    485.094
102.970    939.000    972.138    -33.138    484.889    951.962    484.889    505.146    484.889
103.070    872.422    933.836    -61.414    484.684    916.222    484.684    502.377    484.684
103.170    907.000    893.502     13.498    484.479    878.021    484.479    500.036    484.479
103.270    908.000    852.345     55.655    484.275    838.628    484.275    498.062    484.275
103.370    815.000    811.544      3.456    484.072    799.280    484.072    496.401    484.072
103.470    821.209    772.160     49.048    483.869    761.088    483.869    494.999    483.869
103.570    746.000    735.080     10.920    483.666    724.986    483.666    493.812    483.666
103.670    716.147    700.985     15.162    483.464    691.696    483.464    492.798    483.464
103.770    748.000    670.335     77.665    483.262    661.711    483.262    491.925    483.262
103.870    668.231    643.376     24.855    483.061    635.305    483.061    491.165    483.061
103.970    660.564    620.154     40.409    482.861    612.548    482.861    490.494    482.861
104.070    611.000    600.554     10.446    482.661    593.341    482.661    489.896    482.661
104.170    593.578    584.331      9.246    482.462    577.455    482.462    489.356    482.462
104.270    617.000    571.158     45.842    482.264    564.573    482.264    488.862    482.264
104.370    562.000    560.662      1.338    482.066    554.331    482.066    488.406    482.066
104.470    562.000    552.462      9.538    481.869    546.355    481.869    487.983    481.869
104.570    571.000    546.182     24.818    481.673    540.274    481.673    487.585    481.673
104.670    500.730    541.505    -40.775    481.477    535.774    481.477    487.211    481.477
104.770    531.000    538.142     -7.142    481.283    532.570    481.283    486.856    481.283
104.870    531.000    535.863     -4.863    481.089    530.432    481.089    486.519    481.089
104.970    541.684    534.494      7.189    480.896    529.190    480.896    486.198    480.896
105.070    541.042    533.917      7.125    480.704    528.726    480.704    485.890    480.704
105.170    523.000    534.062    -11.062    480.513    528.973    480.513    485.596    480.513
105.270    579.764    534.907     44.857    480.322    529.909    480.322    485.314    480.322
105.370    543.000    536.471      6.529    480.133    531.553    480.133    485.043    480.133
105.470    518.000    538.805    -20.805    479.945    533.957    479.945    484.782    479.945
105.570    523.000    541.989    -18.989    479.757    537.203    479.757    484.531    479.757
105.670    529.000    546.120    -17.120    479.571    541.387    479.571    484.290    479.571
105.770    555.000    551.298      3.702    479.386    546.609    479.386    484.057    479.386
105.870    559.142    557.615      1.528    479.202    552.963    479.202    483.833    479.202
105.970    573.000    565.136      7.864    479.018    560.514    479.018    483.618    479.018
106.070    579.000    573.888      5.112    478.836    569.289    478.836    483.410    478.836
106.170    603.000    583.845     19.155    478.656    579.262    478.656    483.209    478.656
106.270    576.000    594.921    -18.921    478.476    590.347    478.476    483.017    478.476
106.370    627.747    606.959     20.788    478.298    602.390    478.298    482.831    478.298
106.470    574.392    619.737    -45.345    478.121    615.165    478.121    482.653    478.121
106.570    585.000    632.961    -47.961    477.945    628.382    477.945    482.481    477.945
106.670    639.000    646.277     -7.277    477.770    641.686    477.770    482.317    477.770
106.770    708.456    659.284     49.172    477.597    654.675    477.597    482.159    477.597
106.870    696.805    671.546     25.259    477.425    666.915    477.425    482.008    477.425
106.970    649.000    682.624    -33.624    477.255    677.967    477.255    481.864    477.255
107.070    666.000    692.113    -26.113    477.086    687.426    477.086    481.727    477.086
107.170    671.000    699.694    -28.694    476.918    694.971    476.918    481.596    476.918
107.270    722.073    705.185     16.888    476.752    700.422    476.752    481.473    476.752
107.370    676.070    708.581    -32.511    476.588    703.774    476.588    481.356    476.588
107.470    701.569    710.066     -8.497    476.424    705.209    476.424    481.247    476.424
107.570    714.930    709.981      4.949    476.263    705.069    476.263    481.145    476.263
107.670    748.794    708.769     40.026    476.103    703.796    476.103    481.050    476.103
107.770    661.000    706.904    -45.904    475.945    701.865    475.945    480.962    475.945
107.870    699.000    704.836     -5.836    475.788    699.725    475.788    480.882    475.788
107.970    701.000    702.940     -1.940    475.633    697.749    475.633    480.811    475.633
108.070    675.000    701.485    -26.485    475.480    696.209    475.480    480.747    475.480
108.170    755.266    700.620     54.646    475.329    695.252    475.329    480.692    475.329
108.270    737.000    700.363     36.637    475.179    694.896    475.179    480.645    475.179
108.370    712.000    700.602     11.398    475.031    695.027    475.031    480.608    475.031
108.470    739.000    701.102     37.898    474.885    695.414    474.885    480.579    474.885
108.570    691.000    701.531    -10.531    474.741    695.720    474.741    480.561    474.741
108.670    656.222    701.483    -45.261    474.599    695.541    474.599    480.552    474.599
108.770    742.000    700.534     41.466    474.458    694.453    474.458    480.555    474.458
108.870    724.000    698.291     25.709    474.320    692.060    474.320    480.568    474.320
108.970    734.414    694.455     39.958    474.184    688.065    474.184    480.593    474.184
109.070    711.000    688.869     22.131    474.049    682.308    474.049    480.631    474.049
109.170    622.000    681.533    -59.533    473.917    674.791    473.917    480.681    473.917
109.270    683.000    672.601     10.399    473.787    665.666    473.787    480.745    473.787
109.370    592.000    662.340    -70.340    473.659    655.198    473.659    480.824    473.659
109.470    604.576    651.089    -46.513    473.533    643.727    473.533    480.918    473.533
109.570    652.000    639.217     12.783    473.410    631.619    473.410    481.028    473.410
109.670    635.000    627.090      7.910    473.288    619.241    473.288    481.157    473.288
109.770    658.995    615.053     43.942    473.169    606.936    473.169    481.304    473.169
109.870    619.000    603.413     15.587    473.052    595.009    473.052    481.472    473.052
109.970    559.828    592.429    -32.601    472.938    583.717    472.938    481.663    472.938
110.070    590.000    582.305      7.695    472.826    573.263    472.826    481.880    472.826
110.170    526.770    573.172    -46.402    472.716    563.775    472.716    482.123    472.716
110.270    586.000    565.157     20.843    472.609    555.375    472.609    482.398    472.609
110.370    580.005    558.325     21.680    472.504    548.126    472.504    482.709    472.504
110.470    541.000    552.661    -11.661    472.402    542.008    472.402    483.060    472.402
110.570    560.000    548.129     11.871    472.302    536.977    472.302    483.457    472.302
110.670    563.000    544.670     18.330    472.205    532.967    472.205    483.908    472.205
110.770    554.584    542.203     12.382    472.111    529.889    472.111    484.424    472.111
110.870    546.000    540.639      5.361    472.019    527.642    472.019    485.014    472.019
110.970    515.000    539.887    -24.887    471.930    526.120    471.930    485.694    471.930
111.070    504.100    539.859    -35.758    471.843    525.219    471.843    486.479    471.843
111.170    573.000    540.475     32.525    471.760    524.838    471.760    487.392    471.760
111.270    588.000    541.669     46.331    471.679    524.887    471.679    488.456    471.679
111.370    551.000    543.389      7.611    471.601    525.284    471.601    489.699    471.601
111.470    463.000    545.596    -82.596    471.526    525.958    471.526    491.156    471.526
111.570    517.187    548.271    -31.084    471.453    526.852    471.453    492.865    471.453
111.670    576.000    551.410     24.590    471.384    527.916    471.384    494.870    471.384
111.770    579.000    555.025     23.975    471.318    529.114    471.318    497.221    471.318
111.870    550.000    559.146     -9.146    471.255    530.420    471.255    499.972    471.255
111.970    567.174    563.818      3.357    471.194    531.821    471.194    503.182    471.194
112.070    599.242    569.099     30.143    471.137    533.312    471.137    506.915    471.137
112.170    593.000    575.063     17.937    471.084    534.900    471.084    511.237    471.084
112.270    567.931    581.791    -13.860    471.033    536.600    471.033    516.214    471.033
112.370    616.000    589.373     26.627    470.985    538.437    470.985    521.912    470.985
112.470    601.000    597.905      3.095    470.941    540.442    470.941    528.394    470.941
112.570    572.000    607.481    -35.481    470.900    542.657    470.900    535.715    470.900
112.670    605.000    618.201    -13.201    470.862    545.132    470.862    543.922    470.862
112.770    616.000    630.158    -14.158    470.828    547.931    470.828    553.044    470.828
112.870    594.000    643.461    -49.461    470.797    551.139    470.797    563.109    470.797
112.970    665.000    658.211      6.789    470.770    554.860    470.770    574.109    470.770
113.070    659.000    674.521    -15.521    470.746    559.235    470.746    586.020    470.746
113.170    691.000    692.523     -1.523    470.726    564.446    470.726    598.790    470.726
113.270    659.317    712.375    -53.058    470.709    570.733    470.709    612.336    470.709
113.370    759.452    734.277     25.175    470.696    578.412    470.696    626.545    470.696
113.470    747.000    758.487    -11.487    470.687    587.888    470.687    641.266    470.687
113.570    744.636    785.340    -40.703    470.681    599.688    470.681    656.311    470.681
113.670    851.818    815.273     36.545    470.679    614.478    470.679    671.448    470.679
113.770    859.000    848.848     10.152    470.681    633.093    470.681    686.404    470.681
113.870    847.000    886.780    -39.780    470.687    656.565    470.687    700.863    470.687
113.970    928.000    929.964     -1.964    470.696    686.145    470.696    714.468    470.696
114.070    960.000    979.497    -19.497    470.710    723.326    470.710    726.822    470.710
114.170   1054.000   1036.737     17.263    470.727    769.854    470.727    737.538    470.727
114.270   1137.639   1103.278     34.361    470.748    827.725    470.748    746.212    470.748
114.370   1209.000   1181.001     27.999    470.774    899.175    470.774    752.490    470.774
114.470   1307.000   1272.059     34.941    470.803    986.633    470.803    756.093    470.803
114.570   1436.317   1378.855     57.462    470.837   1092.672    470.837    756.856    470.837
114.670   1472.769   1503.973    -31.204    470.875   1219.907    470.875    754.742    470.875
114.770   1709.102   1650.066     59.036    470.917   1370.893    470.917    749.853    470.917
114.870   1752.161   1819.701    -67.540    470.964   1547.969    470.964    742.415    470.964
114.970   2027.000   2015.162     11.838    471.014   1753.101    471.014    732.748    471.014
115.070   2356.000   2238.233    117.767    471.069   1987.693    471.069    721.230    471.069
115.170   2623.000   2489.970    133.030    471.129   2252.401    471.129    708.266    471.129
115.270   2761.000   2770.490     -9.490    471.193   2546.942    471.193    694.256    471.193
115.370   3073.000   3078.776     -5.776    471.261   2869.927    471.261    679.573    471.261
115.470   3364.000   3412.530    -48.530    471.334   3218.721    471.334    664.555    471.334
115.570   3744.000   3768.067    -24.067    471.411   3589.348    471.411    649.499    471.411
115.670   4229.134   4140.275     88.860    471.494   3976.444    471.494    634.655    471.494
115.770   4398.000   4522.625   -124.625    471.580   4373.273    471.580    620.234    471.580
115.870   4843.000   4907.256    -64.256    471.672   4771.809    471.672    606.406    471.672
115.970   5288.000   5285.124      2.876    471.768   5162.874    471.768    593.302    471.768
116.070   5461.000   5646.218   -185.218    471.869   5536.363    471.869    581.021    471.869
116.170   5943.040   5979.874    -36.834    471.975   5881.546    471.975    569.629    471.975
116.270   6128.179   6275.184   -147.005    472.086   6187.479    472.086    559.165    472.086
116.370   6625.000   6521.541    103.459    472.202   6443.540    472.202    549.641    472.202
116.470   6835.362   6709.318    126.044    472.323   6640.108    472.323    541.051    472.323
116.570   6926.000   6830.639     95.361    472.449   6769.333    472.449    533.367    472.449
116.670   7011.723   6880.144    131.579    472.580   6825.891    472.580    526.550    472.580
116.770   6837.000   6855.575    -18.575    472.716   6807.569    472.716    520.547    472.716
116.870   6971.000   6758.034    212.966    472.857   6715.526    472.857    515.299    472.857
116.970   6441.235   6591.835   -150.600    473.004   6554.133    473.004    510.742    473.004
117.070   6213.000   6363.991   -150.991    473.156   6330.468    473.156    506.810    473.156
117.170   5979.318   6083.485   -104.167    473.313   6053.576    473.313    503.436    473.313
117.270   5700.832   5760.502    -59.670    473.476   5733.704    473.476    500.555    473.476
117.370   5260.885   5405.756   -144.871    473.644   5381.627    473.644    498.106    473.644
117.470   4842.000   5029.823   -187.823    473.818   5007.978    473.818    496.032    473.818
117.570   4579.000   4642.773    -63.773    473.997   4622.880    473.997    494.281    473.997
117.670   4280.000   4253.826     26.174    474.181   4235.601    474.181    492.807    474.181
117.770   3938.000   3871.118     66.882    474.372   3854.318    474.372    491.567    474.372
117.870   3652.000   3501.541    150.459    474.568   3485.964    474.568    490.527    474.568
117.970   3198.000   3150.662     47.338    474.770   3136.137    474.770    489.655    474.770
118.070   2709.399   2822.707   -113.308    474.977   2809.092    474.977    488.924    474.977
118.170   2566.862   2520.605     46.257    475.191   2507.783    475.191    488.312    475.191
118.270   2349.000   2246.082    102.918    475.410   2233.955    475.410    487.801    475.410
118.370   1946.000   1999.793    -53.793    475.636   1988.282    475.636    487.376    475.636
118.470   1705.728   1781.481    -75.754    475.867   1770.519    475.867    487.023    475.867
118.570   1578.000   1590.143    -12.143    476.104   1579.677    476.104    486.733    476.104
118.670   1467.179   1424.204     42.974    476.348   1414.187    476.348    486.497    476.348
118.770   1235.000   1281.683    -46.683    476.598   1272.077    476.598    486.308    476.598
118.870   1146.000   1160.349    -14.349    476.854   1151.123    476.854    486.162    476.854
118.970   1019.000   1057.860    -38.860    477.116   1048.985    477.116    486.053    477.116
119.070    949.000    971.873    -22.873    477.384    963.326    477.384    485.978    477.384
119.170    950.604    900.142     50.462    477.659    891.899    477.659    485.935    477.659
119.270    874.000    840.572     33.428    477.941    832.614    477.941    485.921    477.941
119.370    761.000    791.270    -30.270    478.228    783.579    478.228    485.934    478.228
119.470    741.000    750.560     -9.560    478.523    743.118    478.523    485.974    478.523
119.570    753.000    716.989     36.011    478.824    709.780    478.824    486.038    478.824
119.670    658.000    689.322    -31.322    479.131    682.329    479.131    486.127    479.131
119.770    692.000    666.521     25.479    479.446    659.729    479.446    486.239    479.446
119.870    660.000    647.731     12.269    479.767    641.123    479.767    486.375    479.767
119.970    657.000    632.250     24.750    480.095    625.812    480.095    486.534    480.095
120.070    594.000    619.514    -25.514    480.430    613.229    480.430    486.716    480.430
120.170    654.877    609.068     45.809    480.771    602.920    480.771    486.920    480.771
120.270    614.000    600.551     13.449    481.120    594.525    481.120    487.148    481.120
120.370    606.471    593.677     12.793    481.476    587.756    481.476    487.399    481.476
120.470    610.272    588.221     22.050    481.839    582.389    481.839    487.674    481.839
120.570    632.899    584.006     48.893    482.209    578.246    482.209    487.972    482.209
120.670    564.000    580.894    -16.894    482.586    575.188    482.586    488.295    482.586
120.770    570.000    578.775     -8.775    482.971    573.107    482.971    488.643    482.971
120.870    558.000    577.564    -19.564    483.363    571.916    483.363    489.015    483.363
120.970    550.000    577.190    -27.190    483.762    571.545    483.762    489.413    483.762
121.070    546.000    577.596    -31.596    484.168    571.935    484.168    489.837    484.168
121.170    590.000    578.730     11.270    484.583    573.035    484.583    490.286    484.583
121.270    615.607    580.542     35.065    485.005    574.797    485.005    490.760    485.005
121.370    560.000    582.984    -22.984    485.434    577.170    485.434    491.259    485.434
121.470    602.000    586.003     15.997    485.871    580.104    485.871    491.784    485.871
121.570    616.000    589.542     26.458    486.316    583.541    486.316    492.332    486.316
121.670    621.836    593.535     28.301    486.769    587.418    486.769    492.904    486.769
121.770    596.000    597.910     -1.910    487.229    591.663    487.229    493.497    487.229
121.870    636.000    602.585     33.415    487.697    596.195    487.697    494.110    487.697
121.970    604.000    607.468     -3.468    488.174    600.925    488.174    494.742    488.174
122.070    631.000    612.459     18.541    488.658    605.755    488.658    495.390    488.658
122.170    599.436    617.451    -18.015    489.151    610.581    489.151    496.052    489.151
122.270    644.000    622.331     21.669    489.652    615.292    489.652    496.724    489.652
122.370    595.000    626.981    -31.981    490.161    619.775    490.161    497.404    490.161
122.470    594.303    631.284    -36.981    490.678    623.915    490.678    498.086    490.678
122.570    631.000    635.125     -4.125    491.204    627.603    491.204    498.768    491.204
122.670    657.363    638.402     18.961    491.738    630.739    491.738    499.444    491.738
122.770    633.026    641.026     -8.000    492.280    633.241    492.280    500.110    492.280
122.870    693.000    642.931     50.069    492.831    635.047    492.831    500.762    492.831
122.970    668.289    644.076     24.213    493.391    636.120    493.391    501.394    493.391
123.070    690.000    644.450     45.550    493.959    636.453    493.959    502.003    493.959
123.170    677.000    644.067     32.933    494.536    636.065    494.536    502.586    494.536
123.270    644.000    642.970      1.030    495.122    634.998    495.122    503.141    495.122
123.370    665.000    641.219     23.781    495.717    633.315    495.717    503.666    495.717
123.470    666.979    638.889     28.090    496.321    631.090    496.321    504.164    496.321
123.570    630.216    636.067     -5.851    496.933    628.407    496.933    504.634    496.933
123.670    611.000    632.840    -21.840    497.555    625.353    497.555    505.081    497.555
123.770    607.000    629.298    -22.298    498.186    622.012    498.186    505.508    498.186
123.870    628.227    625.528      2.699    498.826    618.468    498.826    505.920    498.826
123.970    648.141    621.611     26.530    499.475    614.796    499.475    506.321    499.475
124.070    627.000    617.617      9.383    500.134    611.063    500.134    506.715    500.134
124.170    628.551    613.610     14.941    500.802    607.329    500.802    507.108    500.802
124.270    609.000    609.641     -0.641    501.479    603.638    501.479    507.503    501.479
124.370    625.000    605.748     19.252    502.166    600.028    502.166    507.904    502.166
124.470    564.794    601.959    -37.165    502.862    596.523    502.862    508.315    502.862
124.570    590.000    598.293     -8.293    503.568    593.136    503.568    508.739    503.568
124.670    639.000    594.757     44.243    504.284    589.875    504.284    509.177    504.284
124.770    588.132    591.353     -3.221    505.010    586.738    505.010    509.634    505.010
124.870    541.000    588.075    -47.075    505.745    583.719    505.745    510.110    505.745
124.970    575.000    584.918     -9.918    506.491    580.809    506.491    510.606    506.491
