neutron_powder_diffraction_0242
R_wp: 4.185
Temperature (K): 987.857
Counts: 84209.00
Wavelength (Ã…): 2.52098
COMMENTS
Test file for demonstrating the .xyy file format in Reel1.0
END OF HEADER
   tth       Y_obs     Y_calc      Y_res    Background    Phase_1_Nuc    Phase_1_Mag    Phase_2_Nuc    Phase_2_Mag
  9.970    652.000    573.703     78.297    573.062    573.667    573.062    573.097    573.062
 10.070    557.202    573.833    -16.631    573.131    573.796    573.131    573.167    573.131
 10.170    614.000    573.957     40.043    573.194    573.920    573.194    573.231    573.194
 10.270    606.000    574.089     31.911    573.252    574.046    573.252    573.294    573.252
 10.370    580.000    574.229      5.771    573.303    574.178    573.303    573.354    573.303
 10.470    577.249    574.370      2.879    573.350    574.318    573.350    573.401    573.350
 10.570    617.000    574.522     42.478    573.390    574.469    573.390    573.442    573.390
 10.670    604.000    574.689     29.311    573.425    574.636    573.425    573.477    573.425
 10.770    603.000    574.878     28.122    573.455    574.825    573.455    573.507    573.455
 10.870    589.000    575.096     13.904    573.479    575.043    573.479    573.531    573.479
 10.970    530.000    575.355    -45.355    573.498    575.302    573.498    573.550    573.498
 11.070    547.605    575.671    -28.065    573.511    575.617    573.511    573.564    573.511
 11.170    538.858    576.066    -37.208    573.519    576.011    573.519    573.572    573.519
 11.270    567.000    576.578     -9.578    573.522    576.520    573.522    573.578    573.522
 11.370    598.000    577.264     20.736    573.519    577.201    573.519    573.580    573.519
 11.470    620.000    578.243     41.757    573.512    578.179    573.512    573.573    573.512
 11.570    636.000    579.855     56.145    573.499    579.790    573.499    573.561    573.499
 11.670    583.182    583.079      0.103    573.482    583.012    573.482    573.543    573.482
 11.770    587.409    590.328     -2.918    573.459    590.256    573.459    573.521    573.459
 11.870    594.740    605.837    -11.097    573.431    605.757    573.431    573.494    573.431
 11.970    638.000    633.614      4.386    573.399    633.518    573.399    573.462    573.399
 12.070    672.000    671.494      0.506    573.362    671.376    573.362    573.425    573.362
 12.170    661.346    704.651    -43.304    573.319    704.514    573.319    573.383    573.319
 12.270    696.000    710.868    -14.868    573.273    710.727    573.273    573.336    573.273
 12.370    668.000    684.469    -16.469    573.221    684.343    573.221    573.285    573.221
 12.470    693.050    645.329     47.721    573.165    645.224    573.165    573.229    573.165
 12.570    608.000    613.094     -5.094    573.104    613.007    573.104    573.169    573.104
 12.670    549.365    593.692    -44.327    573.039    593.616    573.039    573.104    573.039
 12.770    602.000    584.232     17.768    572.969    584.161    572.969    573.035    572.969
 12.870    559.000    580.024    -21.024    572.895    579.952    572.895    572.964    572.895
 12.970    553.000    577.988    -24.988    572.816    577.915    572.816    572.886    572.816
 13.070    593.000    576.781     16.219    572.733    576.707    572.733    572.805    572.733
 13.170    560.000    575.935    -15.935    572.646    575.862    572.646    572.718    572.646
 13.270    536.402    575.291    -38.889    572.555    575.217    572.555    572.627    572.555
 13.370    548.000    574.777    -26.777    572.459    574.703    572.459    572.531    572.459
 13.470    574.000    574.354     -0.354    572.359    574.279    572.359    572.432    572.359
 13.570    595.549    573.994     21.554    572.255    573.919    572.255    572.329    572.255
 13.670    619.338    573.681     45.657    572.147    573.606    572.147    572.221    572.147
 13.770    549.000    573.402    -24.402    572.035    573.326    572.035    572.109    572.035
 13.870    543.000    573.148    -30.148    571.919    573.072    571.919    571.994    571.919
 13.970    608.000    572.913     35.087    571.798    572.837    571.798    571.874    571.798
 14.070    544.000    572.693    -28.693    571.675    572.617    571.675    571.750    571.675
 14.170    558.000    572.483    -14.483    571.547    572.407    571.547    571.623    571.547
 14.270    543.000    572.282    -29.282    571.415    572.205    571.415    571.492    571.415
 14.370    535.000    572.087    -37.087    571.280    572.009    571.280    571.357    571.280
 14.470    555.000    571.896    -16.896    571.141    571.818    571.141    571.218    571.141
 14.570    562.000    571.709     -9.709    570.998    571.631    570.998    571.076    570.998
 14.670    550.000    571.526    -21.526    570.852    571.447    570.852    570.930    570.852
 14.770    543.200    571.342    -28.141    570.702    571.263    570.702    570.781    570.702
 14.870    587.963    571.159     16.804    570.548    571.079    570.548    570.628    570.548
 14.970    559.000    570.976    -11.976    570.391    570.896    570.391    570.471    570.391
 15.070    540.000    570.792    -30.792    570.231    570.712    570.231    570.311    570.231
 15.170    560.000    570.607    -10.607    570.067    570.526    570.067    570.148    570.067
 15.270    501.000    570.421    -69.421    569.900    570.339    569.900    569.981    569.900
 15.370    571.000    570.233      0.767    569.730    570.151    569.730    569.811    569.730
 15.470    557.231    570.046    -12.815    569.556    569.962    569.556    569.640    569.556
 15.570    530.000    569.855    -39.855    569.379    569.771    569.379    569.463    569.379
 15.670    555.000    569.663    -14.663    569.199    569.578    569.199    569.284    569.199
 15.770    606.999    569.469     37.530    569.015    569.383    569.015    569.101    569.015
 15.870    585.296    569.273     16.023    568.829    569.187    568.829    568.915    568.829
 15.970    532.016    569.074    -37.059    568.639    568.988    568.639    568.726    568.639
 16.070    553.000    568.874    -15.874    568.447    568.787    568.447    568.534    568.447
 16.170    531.000    568.672    -37.672    568.251    568.584    568.251    568.339    568.251
 16.270    510.000    568.467    -58.467    568.053    568.379    568.053    568.141    568.053
 16.370    546.000    568.260    -22.260    567.851    568.171    567.851    567.940    567.851
 16.470    520.929    568.051    -47.122    567.647    567.962    567.647    567.736    567.647
 16.570    548.000    567.840    -19.840    567.440    567.750    567.440    567.530    567.440
 16.670    560.000    567.626     -7.626    567.230    567.536    567.230    567.320    567.230
 16.770    583.000    567.410     15.590    567.017    567.319    567.017    567.108    567.017
 16.870    593.802    567.192     26.610    566.802    567.101    566.802    566.893    566.802
 16.970    557.000    566.972     -9.972    566.584    566.880    566.584    566.676    566.584
 17.070    585.000    566.749     18.251    566.363    566.657    566.363    566.456    566.363
 17.170    552.000    566.525    -14.525    566.140    566.432    566.140    566.233    566.140
 17.270    528.552    566.299    -37.747    565.914    566.205    565.914    566.008    565.914
 17.370    539.384    566.072    -26.687    565.686    565.977    565.686    565.780    565.686
 17.470    555.000    565.841    -10.841    565.455    565.746    565.455    565.550    565.455
 17.570    535.459    565.608    -30.149    565.222    565.512    565.222    565.318    565.222
 17.670    556.000    565.373     -9.373    564.986    565.276    564.986    565.083    564.986
 17.770    559.756    565.135     -5.379    564.748    565.038    564.748    564.845    564.748
 17.870    550.000    564.896    -14.896    564.508    564.798    564.508    564.606    564.508
 17.970    592.000    564.661     27.339    564.265    564.556    564.265    564.371    564.265
 18.070    559.183    564.419     -5.236    564.020    564.312    564.020    564.127    564.020
 18.170    519.000    564.173    -45.173    563.773    564.066    563.773    563.881    563.773
 18.270    586.000    563.926     22.074    563.524    563.818    563.524    563.632    563.524
 18.370    536.035    563.677    -27.642    563.272    563.568    563.272    563.381    563.272
 18.470    516.282    563.426    -47.144    563.019    563.316    563.019    563.129    563.019
 18.570    598.145    563.174     34.972    562.763    563.063    562.763    562.874    562.763
 18.670    589.172    562.919     26.253    562.505    562.807    562.505    562.617    562.505
 18.770    545.029    562.663    -17.634    562.245    562.550    562.245    562.358    562.245
 18.870    587.190    562.405     24.785    561.984    562.292    561.984    562.097    561.984
 18.970    607.000    562.147     44.853    561.720    562.033    561.720    561.834    561.720
 19.070    538.814    561.887    -23.072    561.455    561.771    561.455    561.570    561.455
 19.170    562.000    561.624      0.376    561.187    561.508    561.187    561.303    561.187
 19.270    577.000    561.360     15.640    560.918    561.243    560.918    561.035    560.918
 19.370    595.000    561.094     33.906    560.647    560.976    560.647    560.765    560.647
 19.470    552.000    560.827     -8.827    560.374    560.708    560.374    560.493    560.374
 19.570    540.000    560.559    -20.559    560.100    560.439    560.100    560.219    560.100
 19.670    588.741    560.289     28.452    559.823    560.168    559.823    559.944    559.823
 19.770    545.000    560.021    -15.021    559.545    559.899    559.545    559.667    559.545
 19.870    570.000    559.769     10.231    559.266    559.646    559.266    559.389    559.266
 19.970    539.112    559.497    -20.385    558.985    559.373    558.985    559.109    558.985
 20.070    512.341    559.223    -46.882    558.702    559.098    558.702    558.827    558.702
 20.170    568.000    558.947      9.053    558.418    558.821    558.418    558.544    558.418
 20.270    558.000    558.670     -0.670    558.132    558.543    558.132    558.259    558.132
 20.370    543.000    558.393    -15.393    557.845    558.264    557.845    557.973    557.845
 20.470    546.587    558.114    -11.527    557.556    557.984    557.556    557.686    557.556
 20.570    561.000    557.835      3.165    557.266    557.704    557.266    557.397    557.266
 20.670    554.661    557.554     -2.894    556.975    557.422    556.975    557.107    556.975
 20.770    577.442    557.273     20.168    556.682    557.140    556.682    556.816    556.682
 20.870    536.000    556.992    -20.992    556.388    556.857    556.388    556.523    556.388
 20.970    600.193    556.710     43.483    556.093    556.574    556.093    556.229    556.093
 21.070    585.608    556.427     29.181    555.796    556.290    555.796    555.934    555.796
 21.170    560.000    556.145      3.855    555.498    556.005    555.498    555.637    555.498
 21.270    522.439    555.862    -33.423    555.199    555.721    555.199    555.340    555.199
 21.370    580.898    555.578     25.319    554.899    555.436    554.899    555.041    554.899
 21.470    569.000    555.295     13.705    554.598    555.152    554.598    554.741    554.598
 21.570    551.000    555.013     -4.013    554.295    554.867    554.295    554.440    554.295
 21.670    556.000    554.730      1.270    553.992    554.583    553.992    554.139    553.992
 21.770    577.000    554.448     22.552    553.687    554.299    553.687    553.836    553.687
 21.870    521.000    554.167    -33.167    553.382    554.016    553.382    553.532    553.382
 21.970    552.848    553.887     -1.039    553.075    553.734    553.075    553.227    553.075
 22.070    574.871    553.609     21.262    552.767    553.454    552.767    552.922    552.767
 22.170    516.869    553.345    -36.476    552.459    553.185    552.459    552.619    552.459
 22.270    550.000    553.121     -3.121    552.150    552.959    552.150    552.312    552.150
 22.370    598.801    552.916     45.886    551.840    552.752    551.840    552.004    551.840
 22.470    564.000    552.690     11.310    551.529    552.524    551.529    551.695    551.529
 22.570    565.373    552.428     12.944    551.217    552.260    551.217    551.385    551.217
 22.670    578.000    552.169     25.831    550.904    551.998    550.904    551.075    550.904
 22.770    541.000    551.936    -10.936    550.591    551.763    550.591    550.764    550.591
 22.870    581.218    551.731     29.487    550.277    551.556    550.277    550.452    550.277
 22.970    539.000    551.495    -12.495    549.962    551.317    549.962    550.140    549.962
 23.070    531.906    551.264    -19.358    549.646    551.083    549.646    549.827    549.646
 23.170    517.915    551.045    -33.130    549.330    550.862    549.330    549.514    549.330
 23.270    567.000    550.842     16.158    549.013    550.656    549.013    549.200    549.013
 23.370    524.078    550.659    -26.582    548.696    550.470    548.696    548.886    548.696
 23.470    581.171    550.502     30.669    548.378    550.310    548.378    548.571    548.378
 23.570    598.000    550.379     47.621    548.060    550.183    548.060    548.256    548.060
 23.670    543.867    550.300     -6.433    547.741    550.102    547.741    547.940    547.741
 23.770    587.000    550.284     36.716    547.421    550.082    547.421    547.624    547.421
 23.870    505.622    550.355    -44.733    547.101    550.150    547.101    547.308    547.101
 23.970    542.181    550.558     -8.377    546.781    550.349    546.781    546.992    546.781
 24.070    536.000    550.995    -14.995    546.460    550.783    546.460    546.675    546.460
 24.170    590.000    551.943     38.057    546.139    551.727    546.139    546.358    546.139
 24.270    559.588    554.159      5.429    545.817    553.940    545.817    546.041    545.817
 24.370    597.000    559.332     37.668    545.495    559.112    545.495    545.724    545.495
 24.470    578.841    570.099      8.742    545.173    569.883    545.173    545.407    545.173
 24.570    602.132    588.496     13.636    544.851    588.287    544.851    545.089    544.851
 24.670    648.000    612.389     35.611    544.528    612.193    544.528    544.772    544.528
 24.770    677.385    632.165     45.221    544.205    631.977    544.205    544.455    544.205
 24.870    629.701    634.760     -5.060    543.882    634.569    543.882    544.138    543.882
 24.970    631.000    617.694     13.306    543.558    617.484    543.558    543.821    543.558
 25.070    574.135    592.895    -18.760    543.234    592.660    543.234    543.504    543.234
 25.170    569.000    572.024     -3.024    542.911    571.767    542.911    543.188    542.911
 25.270    569.905    558.909     10.997    542.587    558.634    542.587    542.872    542.587
 25.370    560.000    552.123      7.877    542.263    551.835    542.263    542.556    542.263
 25.470    569.000    548.894     20.106    541.939    548.595    541.939    542.241    541.939
 25.570    562.000    547.242     14.758    541.614    546.932    541.614    541.926    541.614
 25.670    537.060    546.205     -9.145    541.290    545.885    541.290    541.612    541.290
 25.770    581.536    545.450     36.086    540.966    545.119    540.966    541.299    540.966
 25.870    583.000    544.851     38.149    540.642    544.508    540.642    540.986    540.642
 25.970    540.105    544.363     -4.258    540.318    544.007    540.318    540.675    540.318
 26.070    551.000    543.957      7.043    539.994    543.587    539.994    540.364    539.994
 26.170    505.000    543.612    -38.612    539.669    543.227    539.669    540.055    539.669
 26.270    543.000    543.322     -0.322    539.346    542.921    539.346    539.747    539.346
 26.370    546.000    543.083      2.917    539.022    542.665    539.022    539.440    539.022
 26.470    562.000    542.895     19.105    538.698    542.457    538.698    539.136    538.698
 26.570    612.000    542.764     69.236    538.374    542.306    538.374    538.833    538.374
 26.670    548.495    542.747      5.748    538.051    542.266    538.051    538.532    538.051
 26.770    559.000    542.741     16.259    537.728    542.235    537.728    538.234    537.728
 26.870    540.003    542.802     -2.799    537.405    542.269    537.405    537.938    537.405
 26.970    576.000    542.957     33.043    537.082    542.393    537.082    537.646    537.082
 27.070    533.000    543.232    -10.232    536.760    542.633    536.760    537.357    536.760
 27.170    508.094    543.666    -35.572    536.437    543.030    536.437    537.073    536.437
 27.270    542.407    544.301     -1.894    536.116    543.623    536.116    536.793    536.116
 27.370    586.757    545.226     41.530    535.794    544.500    535.794    536.519    535.794
 27.470    589.000    546.605     42.395    535.473    545.825    535.473    536.251    535.473
 27.570    550.592    548.769      1.823    535.152    547.927    535.152    535.991    535.152
 27.670    583.635    552.927     30.708    534.831    552.013    534.831    535.741    534.831
 27.770    524.000    563.157    -39.157    534.511    562.159    534.511    535.501    534.511
 27.870    645.000    589.851     55.149    534.191    588.750    534.191    535.275    534.191
 27.970    677.000    649.878     27.122    533.872    648.648    533.872    535.064    533.872
 28.070    776.585    753.110     23.475    533.553    751.720    533.553    534.874    533.553
 28.170    910.000    875.781     34.219    533.235    874.211    533.235    534.708    533.235
 28.270    937.000    950.190    -13.190    532.917    948.436    532.917    534.573    532.917
 28.370    991.000    920.256     70.744    532.600    918.312    532.600    534.478    532.600
 28.470    835.000    819.194     15.806    532.283    817.012    532.283    534.435    532.283
 28.570    684.437    726.604    -42.167    531.966    724.093    531.966    534.465    531.966
 28.670    691.926    694.749     -2.823    531.651    691.785    531.651    534.602    531.651
 28.770    728.000    728.539     -0.539    531.335    724.949    531.335    534.903    531.335
 28.870    842.440    794.650     47.789    531.021    790.171    531.021    535.473    531.021
 28.970    867.000    836.085     30.915    530.707    830.291    530.707    536.481    530.707
 29.070    803.029    811.285     -8.256    530.393    803.503    530.393    538.174    530.393
 29.170    690.887    738.674    -47.787    530.081    727.910    530.081    540.854    530.081
 29.270    669.275    663.824      5.451    529.769    648.800    529.769    544.803    529.769
 29.370    602.000    613.805    -11.805    529.457    593.145    529.457    550.124    529.457
 29.470    651.000    590.395     60.605    529.147    563.100    529.147    556.443    529.147
 29.570    598.000    583.084     14.916    528.837    549.440    528.837    562.479    528.837
 29.670    607.000    580.848     26.152    528.527    543.421    528.527    565.952    528.527
 29.770    547.973    577.120    -29.147    528.219    540.362    528.219    564.974    528.219
 29.870    552.676    570.493    -17.816    527.911    538.461    527.911    559.940    527.911
 29.970    537.631    562.585    -24.955    527.604    537.139    527.604    553.047    527.604
 30.070    553.999    555.242     -1.243    527.298    536.214    527.298    546.323    527.298
 30.170    526.622    549.406    -22.784    526.992    535.639    526.992    540.757    526.992
 30.270    567.766    545.365     22.401    526.688    535.491    526.688    536.559    526.688
 30.370    576.000    543.308     32.692    526.384    536.128    526.384    533.560    526.384
 30.470    560.852    543.935     16.917    526.081    538.546    526.081    531.464    526.081
 30.570    575.000    548.918     26.082    525.779    544.707    525.779    529.978    525.779
 30.670    556.000    560.434     -4.434    525.477    557.011    525.477    528.878    525.477
 30.770    626.077    578.922     47.156    525.177    576.049    525.177    528.014    525.177
 30.870    614.000    599.758     14.242    524.878    597.289    524.878    527.296    524.878
 30.970    603.000    612.121     -9.121    524.579    609.969    524.579    526.675    524.579
 31.070    619.000    606.793     12.207    524.281    604.905    524.281    526.120    524.281
 31.170    586.000    587.545     -1.545    523.985    585.881    523.985    525.615    523.985
 31.270    596.820    565.632     31.188    523.689    564.154    523.689    525.147    523.689
 31.370    552.027    548.829      3.198    523.394    547.505    523.394    524.708    523.394
 31.470    511.000    538.797    -27.797    523.101    537.598    523.101    524.294    523.101
 31.570    571.000    533.729     37.271    522.808    532.634    522.808    523.899    522.808
 31.670    529.000    531.311     -2.311    522.516    530.305    522.516    523.519    522.516
 31.770    529.000    530.048     -1.048    522.225    529.119    522.225    523.153    522.225
 31.870    525.000    529.266     -4.266    521.936    528.402    521.936    522.798    521.936
 31.970    553.000    528.717     24.283    521.647    527.911    521.647    522.452    521.647
 32.070    517.000    528.321    -11.321    521.359    527.565    521.359    522.114    521.359
 32.170    575.000    528.045     46.955    521.073    527.334    521.073    521.783    521.073
 32.270    563.000    527.879     35.121    520.787    527.207    520.787    521.459    520.787
 32.370    568.000    527.821     40.179    520.503    527.183    520.503    521.140    520.503
 32.470    551.000    527.876     23.124    520.220    527.269    520.220    520.826    520.220
 32.570    578.000    528.060     49.940    519.938    527.481    519.938    520.516    519.938
 32.670    559.000    528.391     30.609    519.657    527.836    519.657    520.210    519.657
 32.770    483.311    528.903    -45.592    519.377    528.370    519.377    519.908    519.377
 32.870    506.947    529.646    -22.699    519.098    529.133    519.098    519.609    519.098
 32.970    518.000    530.693    -12.693    518.820    530.198    518.820    519.313    518.820
 33.070    527.000    532.155     -5.155    518.544    531.677    518.544    519.021    518.544
 33.170    556.740    534.226     22.514    518.269    533.763    518.269    518.730    518.269
 33.270    575.731    537.334     38.396    517.995    536.884    517.995    518.443    517.995
 33.370    530.000    542.619    -12.619    517.722    542.180    517.722    518.158    517.722
 33.470    551.606    553.126     -1.520    517.451    552.696    517.451    517.875    517.451
 33.570    586.000    575.748     10.252    517.180    575.323    517.180    517.594    517.180
 33.670    628.000    622.227      5.773    516.911    621.801    516.911    517.315    516.911
 33.770    767.000    705.119     61.881    516.643    704.685    516.643    517.039    516.643
 33.870    861.000    825.721     35.279    516.377    825.275    516.377    516.764    516.377
 33.970    926.748    957.945    -31.197    516.111    957.493    516.111    516.492    516.111
 34.070   1046.000   1043.136      2.864    515.847   1042.697    515.847    516.221    515.847
 34.170   1093.661   1027.683     65.978    515.584   1027.274    515.584    515.952    515.584
 34.270    930.000    922.933      7.067    515.323    922.555    515.323    515.685    515.323
 34.370    791.000    789.460      1.540    515.063    789.101    515.063    515.420    515.063
 34.470    648.602    677.607    -29.004    514.804    677.257    514.804    515.156    514.804
 34.570    593.000    604.754    -11.754    514.546    604.407    514.546    514.895    514.546
 34.670    563.000    565.207     -2.207    514.290    564.863    514.290    514.634    514.290
 34.770    548.002    545.988      2.014    514.035    545.647    514.035    514.376    514.035
 34.870    557.000    536.643     20.357    513.782    536.304    513.782    514.119    513.782
 34.970    525.000    531.488     -6.488    513.529    531.152    513.529    513.864    513.529
 35.070    547.000    528.117     18.883    513.279    527.784    513.279    513.611    513.279
 35.170    571.033    525.637     45.396    513.029    525.306    513.029    513.359    513.029
 35.270    556.000    523.699     32.301    512.781    523.370    512.781    513.109    512.781
 35.370    502.000    522.134    -20.134    512.534    521.807    512.534    512.860    512.534
 35.470    545.000    520.841     24.159    512.289    520.517    512.289    512.613    512.289
 35.570    507.000    519.754    -12.754    512.045    519.430    512.045    512.368    512.045
 35.670    527.389    518.823      8.566    511.803    518.501    511.803    512.124    511.803
 35.770    492.000    518.014    -26.014    511.562    517.694    511.562    511.882    511.562
 35.870    526.575    517.304      9.271    511.322    516.984    511.322    511.642    511.322
 35.970    549.340    516.672     32.668    511.084    516.353    511.084    511.403    511.084
 36.070    516.000    516.106     -0.106    510.847    515.788    510.847    511.165    510.847
 36.170    511.000    515.595     -4.595    510.612    515.276    510.612    510.930    510.612
 36.270    491.000    515.130    -24.130    510.378    514.812    510.378    510.695    510.378
 36.370    503.000    514.707    -11.707    510.145    514.389    510.145    510.463    510.145
 36.470    558.324    514.321     44.003    509.914    514.003    509.914    510.232    509.914
 36.570    473.261    513.971    -40.710    509.685    513.653    509.685    510.003    509.685
 36.670    491.000    513.657    -22.657    509.457    513.339    509.457    509.775    509.457
 36.770    494.000    513.382    -19.382    509.230    513.063    509.230    509.549    509.230
 36.870    512.000    513.159     -1.159    509.005    512.840    509.005    509.324    509.005
 36.970    489.316    513.022    -23.707    508.782    512.703    508.782    509.101    508.782
 37.070    513.000    513.060     -0.060    508.560    512.740    508.560    508.880    508.560
 37.170    513.000    513.454     -0.454    508.339    513.133    508.339    508.661    508.339
 37.270    494.322    514.501    -20.180    508.120    514.180    508.120    508.442    508.120
 37.370    511.031    516.528     -5.497    507.903    516.206    507.903    508.226    507.903
 37.470    476.000    519.642    -43.642    507.687    519.318    507.687    508.011    507.687
 37.570    544.090    523.381     20.709    507.472    523.058    507.472    507.798    507.472
 37.670    540.000    526.504     13.496    507.259    526.181    507.259    507.587    507.259
 37.770    512.000    527.423    -15.423    507.048    527.100    507.048    507.377    507.048
 37.870    497.000    525.582    -28.582    506.838    525.260    506.838    507.169    506.838
 37.970    490.740    522.098    -31.358    506.630    521.776    506.630    506.962    506.630
 38.070    478.000    518.383    -40.383    506.423    518.059    506.423    506.757    506.423
 38.170    489.000    515.187    -26.187    506.218    514.861    506.218    506.554    506.218
 38.270    534.000    512.765     21.235    506.015    512.435    506.015    506.352    506.015
 38.370    507.000    511.086     -4.086    505.813    510.751    505.813    506.152    505.813
 38.470    489.000    509.976    -20.976    505.612    509.637    505.612    505.954    505.612
 38.570    541.067    509.246     31.821    505.413    508.904    505.413    505.757    505.413
 38.670    525.000    508.748     16.252    505.216    508.402    505.216    505.562    505.216
 38.770    491.000    508.380    -17.380    505.020    508.031    505.020    505.369    505.020
 38.870    489.000    508.081    -19.081    504.826    507.730    504.826    505.178    504.826
 38.970    466.852    507.821    -40.970    504.633    507.468    504.633    504.988    504.633
 39.070    465.000    507.585    -42.585    504.442    507.229    504.442    504.799    504.442
 39.170    507.363    507.366     -0.002    504.253    507.006    504.253    504.613    504.253
 39.270    525.248    507.159     18.089    504.065    506.796    504.065    504.428    504.065
 39.370    504.000    506.963     -2.963    503.879    506.598    503.879    504.245    503.879
 39.470    474.000    506.777    -32.777    503.695    506.408    503.695    504.064    503.695
 39.570    474.098    506.600    -32.502    503.512    506.228    503.512    503.884    503.512
 39.670    520.000    506.431     13.569    503.330    506.056    503.330    503.706    503.330
 39.770    487.000    506.270    -19.270    503.151    505.891    503.151    503.530    503.151
 39.870    507.000    506.117      0.883    502.972    505.734    502.972    503.356    502.972
 39.970    518.916    505.971     12.945    502.796    505.584    502.796    503.183    502.796
 40.070    498.000    505.834     -7.834    502.621    505.443    502.621    503.012    502.621
 40.170    499.000    505.704     -6.704    502.448    505.309    502.448    502.843    502.448
 40.270    537.566    505.584     31.982    502.276    505.185    502.276    502.675    502.276
 40.370    439.000    505.472    -66.472    502.106    505.069    502.106    502.510    502.106
 40.470    514.000    505.372      8.628    501.938    504.964    501.938    502.346    501.938
 40.570    489.000    505.282    -16.282    501.771    504.870    501.771    502.184    501.771
 40.670    546.326    505.206     41.121    501.606    504.789    501.606    502.023    501.606
 40.770    484.000    505.144    -21.144    501.442    504.722    501.442    501.865    501.442
 40.870    505.000    505.100     -0.100    501.281    504.673    501.281    501.708    501.281
 40.970    544.700    505.076     39.624    501.120    504.644    501.120    501.553    501.120
 41.070    511.000    505.076      5.924    500.962    504.638    500.962    501.400    500.962
 41.170    504.000    505.105     -1.105    500.805    504.663    500.805    501.248    500.805
 41.270    544.866    505.172     39.694    500.650    504.723    500.650    501.099    500.650
 41.370    489.000    505.284    -16.284    500.496    504.830    500.496    500.951    500.496
 41.470    469.000    505.455    -36.455    500.344    504.995    500.344    500.805    500.344
 41.570    466.000    505.706    -39.706    500.194    505.240    500.194    500.661    500.194
 41.670    501.561    506.069     -4.508    500.045    505.597    500.045    500.519    500.045
 41.770    471.077    506.616    -35.539    499.898    506.137    499.898    500.379    499.898
 41.870    512.783    507.512      5.271    499.752    507.026    499.752    500.240    499.752
 41.970    497.000    509.151    -12.151    499.609    508.658    499.609    500.104    499.609
 42.070    518.000    512.364      5.636    499.467    511.866    499.467    499.969    499.467
 42.170    531.000    518.614     12.386    499.326    518.111    499.326    499.836    499.326
 42.270    534.000    529.851      4.149    499.187    529.344    499.187    499.706    499.187
 42.370    565.179    547.669     17.509    499.050    547.162    499.050    499.577    499.050
 42.470    550.000    571.705    -21.705    498.914    571.201    498.914    499.450    498.914
 42.570    548.847    597.865    -49.018    498.781    597.367    498.781    499.325    498.781
 42.670    600.000    617.754    -17.754    498.648    617.259    498.648    499.202    498.648
 42.770    643.401    621.985     21.417    498.518    621.486    498.518    499.081    498.518
 42.870    575.000    607.991    -32.991    498.389    607.478    498.389    498.962    498.389
 42.970    536.000    583.062    -47.062    498.261    582.525    498.261    498.845    498.261
 43.070    550.877    557.020     -6.143    498.136    556.458    498.136    498.730    498.136
 43.170    502.000    535.998    -33.998    498.012    535.413    498.012    498.618    498.012
 43.270    499.572    521.812    -22.240    497.889    521.206    497.889    498.507    497.889
 43.370    467.062    513.478    -46.416    497.769    512.855    497.769    498.398    497.769
 43.470    510.000    509.020      0.980    497.649    508.382    497.649    498.292    497.649
 43.570    523.221    506.691     16.530    497.532    506.038    497.532    498.188    497.532
 43.670    543.521    505.391     38.129    497.416    504.724    497.416    498.086    497.416
 43.770    513.000    504.567      8.433    497.302    503.885    497.302    497.986    497.302
 43.870    486.501    503.980    -17.479    497.189    503.282    497.189    497.889    497.189
 43.970    492.961    503.530    -10.569    497.078    502.816    497.078    497.793    497.078
 44.070    462.204    503.172    -40.969    496.969    502.442    496.969    497.701    496.969
 44.170    463.400    502.884    -39.484    496.861    502.136    496.861    497.610    496.861
 44.270    539.000    502.650     36.350    496.755    501.883    496.755    497.523    496.755
 44.370    490.000    502.459    -12.459    496.651    501.673    496.651    497.437    496.651
 44.470    469.000    502.303    -33.303    496.548    501.497    496.548    497.355    496.548
 44.570    474.483    502.178    -27.694    496.447    501.350    496.447    497.275    496.447
 44.670    486.000    502.078    -16.078    496.347    501.229    496.347    497.197    496.347
 44.770    540.000    502.002     37.998    496.250    501.129    496.250    497.123    496.250
 44.870    501.054    501.946     -0.892    496.153    501.048    496.153    497.052    496.153
 44.970    468.000    501.909    -33.909    496.058    500.985    496.058    496.983    496.058
 45.070    467.559    501.891    -34.331    495.965    500.938    495.965    496.918    495.965
 45.170    524.278    501.890     22.389    495.874    500.908    495.874    496.856    495.874
 45.270    507.000    501.905      5.095    495.784    500.892    495.784    496.797    495.784
 45.370    519.000    501.938     17.062    495.696    500.892    495.696    496.742    495.696
 45.470    513.577    501.989     11.588    495.609    500.907    495.609    496.691    495.609
 45.570    505.801    502.057      3.743    495.524    500.937    495.524    496.644    495.524
 45.670    485.000    502.145    -17.145    495.441    500.984    495.441    496.601    495.441
 45.770    533.000    502.253     30.747    495.359    501.048    495.359    496.562    495.359
 45.870    541.000    502.382     38.618    495.278    501.131    495.278    496.529    495.278
 45.970    484.000    502.536    -18.536    495.200    501.235    495.200    496.500    495.200
 46.070    521.977    502.716     19.261    495.122    501.361    495.122    496.477    495.122
 46.170    514.445    502.926     11.519    495.047    501.513    495.047    496.459    495.047
 46.270    489.000    503.170    -14.170    494.973    501.693    494.973    496.448    494.973
 46.370    473.000    503.453    -30.453    494.900    501.908    494.900    496.444    494.900
 46.470    533.000    503.782     29.218    494.830    502.163    494.830    496.448    494.830
 46.570    520.049    504.166     15.883    494.760    502.465    494.760    496.460    494.760
 46.670    523.351    504.618     18.733    494.693    502.829    494.693    496.481    494.693
 46.770    514.000    505.160      8.840    494.626    503.272    494.626    496.512    494.626
 46.870    507.000    505.831      1.169    494.562    503.836    494.562    496.555    494.562
 46.970    469.300    506.720    -37.420    494.499    504.605    494.499    496.611    494.499
 47.070    489.000    508.018    -19.018    494.437    505.771    494.437    496.681    494.437
 47.170    513.000    510.110      2.890    494.377    507.715    494.377    496.768    494.377
 47.270    514.000    513.659      0.341    494.319    511.097    494.319    496.874    494.319
 47.370    537.000    519.597     17.403    494.262    516.845    494.262    497.002    494.262
 47.470    534.000    528.865      5.135    494.207    525.897    494.207    497.156    494.207
 47.570    567.538    541.842     25.697    494.153    538.627    494.153    497.340    494.153
 47.670    567.494    557.603      9.890    494.100    554.106    494.100    497.559    494.100
 47.770    589.000    573.322     15.678    494.050    569.502    494.050    497.820    494.050
 47.870    567.582    584.432    -16.850    494.000    580.243    494.000    498.133    494.000
 47.970    592.000    586.672      5.328    493.952    582.061    493.952    498.508    493.952
 48.070    593.706    579.497     14.209    493.906    574.394    493.906    498.961    493.906
 48.170    536.000    566.663    -30.663    493.861    560.973    493.861    499.515    493.861
 48.270    548.000    553.056     -5.056    493.818    546.645    493.818    500.203    493.818
 48.370    509.000    542.062    -33.062    493.776    534.737    493.776    501.084    493.776
 48.470    502.000    535.128    -33.128    493.736    526.599    493.736    502.254    493.736
 48.570    495.736    532.308    -36.572    493.697    522.124    493.697    503.874    493.697
 48.670    551.000    533.048     17.952    493.660    520.494    493.660    506.207    493.660
 48.770    580.805    536.848     43.957    493.624    520.822    493.624    509.645    493.624
 48.870    545.000    543.611      1.389    493.589    522.480    493.589    514.716    493.589
 48.970    509.151    553.662    -44.511    493.556    525.176    493.556    522.036    493.556
 49.070    542.748    567.590    -24.843    493.524    528.924    493.524    532.184    493.524
 49.170    598.259    586.088     12.171    493.494    534.095    493.494    545.479    493.494
 49.270    600.000    610.012    -10.012    493.466    541.791    493.466    561.675    493.466
 49.370    684.437    641.094     43.342    493.438    554.951    493.438    579.565    493.438
 49.470    686.000    683.855      2.145    493.413    580.703    493.413    596.537    493.413
 49.570    792.000    749.145     42.855    493.388    633.922    493.388    608.562    493.388
 49.670    907.000    858.313     48.687    493.365    739.985    493.365    611.610    493.365
 49.770   1078.000   1042.849     35.151    493.343    931.627    493.343    604.436    493.343
 49.870   1383.000   1330.800     52.200    493.323   1234.229    493.323    589.721    493.323
 49.970   1694.000   1718.960    -24.960    493.304   1640.214    493.304    571.860    493.304
 50.070   2213.876   2146.341     67.535    493.287   2085.071    493.287    554.400    493.287
 50.170   2404.306   2490.770    -86.464    493.271   2444.666    493.271    539.313    493.271
 50.270   2615.000   2610.592      4.408    493.256   2576.574    493.256    527.339    493.256
 50.370   2373.000   2442.007    -69.007    493.243   2416.976    493.243    518.434    493.243
 50.470   2068.000   2061.569      6.431    493.231   2042.862    493.231    512.133    493.231
 50.570   1660.163   1614.670     45.493    493.221   1600.250    493.221    507.818    493.221
 50.670   1139.000   1220.587    -81.587    493.211   1209.036    493.211    504.897    493.211
 50.770    980.086    936.946     43.140    493.204    927.346    493.204    502.895    493.204
 50.870    719.000    765.636    -46.636    493.197    757.414    493.197    501.479    493.197
 50.970    703.000    677.561     25.439    493.192    670.363    493.192    500.433    493.192
 51.070    604.363    637.444    -33.081    493.188    631.041    493.188    499.628    493.188
 51.170    661.950    617.794     44.156    493.185    612.027    493.185    498.987    493.185
 51.270    564.000    602.977    -38.977    493.184    597.729    493.184    498.464    493.184
 51.370    597.000    587.697      9.303    493.184    582.876    493.184    498.031    493.184
 51.470    619.617    572.306     47.310    493.186    567.843    493.186    497.669    493.186
 51.570    585.000    558.550     26.450    493.188    554.387    493.188    497.365    493.188
 51.670    580.000    547.651     32.349    493.192    543.745    493.192    497.109    493.192
 51.770    587.000    539.929     47.071    493.197    536.241    493.197    496.892    493.197
 51.870    574.394    535.008     39.387    493.204    531.507    493.204    496.709    493.204
 51.970    509.351    532.210    -22.859    493.212    528.870    493.212    496.555    493.212
 52.070    552.037    530.896     21.140    493.221    527.694    493.221    496.426    493.221
 52.170    522.626    530.642     -8.016    493.231    527.557    493.231    496.318    493.231
 52.270    550.000    531.269     18.731    493.242    528.285    493.242    496.229    493.242
 52.370    616.000    532.837     83.163    493.255    529.937    493.255    496.157    493.255
 52.470    556.000    535.709     20.291    493.269    532.880    493.269    496.099    493.269
 52.570    593.000    540.785     52.215    493.284    538.014    493.284    496.055    493.284
 52.670    491.000    549.942    -58.942    493.301    547.219    493.301    496.023    493.301
 52.770    579.000    566.625     12.375    493.318    563.938    493.318    496.003    493.318
 52.870    591.205    596.224     -5.019    493.337    593.564    493.337    495.992    493.337
 52.970    686.000    645.607     40.393    493.357    642.964    493.357    495.992    493.357
 53.070    772.000    721.087     50.913    493.378    718.455    493.378    496.000    493.378
 53.170    861.000    824.723     36.277    493.401    822.096    493.401    496.017    493.401
 53.270   1007.000    949.931     57.069    493.424    947.304    493.424    496.042    493.424
 53.370   1038.241   1078.086    -39.845    493.449   1075.459    493.449    496.075    493.449
 53.470   1205.000   1178.282     26.718    493.474   1175.652    493.474    496.115    493.474
 53.570   1186.000   1215.930    -29.930    493.501   1213.292    493.501    496.164    493.501
 53.670   1146.135   1175.033    -28.898    493.529   1172.377    493.529    496.219    493.529
 53.770    991.000   1072.990    -81.990    493.559   1070.302    493.559    496.282    493.559
 53.870    914.680    944.764    -30.084    493.589    942.032    493.589    496.353    493.589
 53.970    813.000    820.812     -7.812    493.620    818.026    493.620    496.431    493.620
 54.070    712.262    719.101     -6.839    493.653    716.255    493.653    496.517    493.653
 54.170    658.815    645.665     13.150    493.686    642.752    493.686    496.610    493.686
 54.270    612.387    598.104     14.283    493.721    595.120    493.721    496.712    493.721
 54.370    567.000    569.984     -2.984    493.757    566.923    493.757    496.822    493.757
 54.470    561.000    554.463      6.537    493.794    551.319    493.794    496.941    493.794
 54.570    569.000    546.242     22.758    493.831    543.006    493.831    497.069    493.831
 54.670    567.558    541.967     25.591    493.870    538.632    493.870    497.207    493.870
 54.770    532.000    539.819     -7.819    493.910    536.375    493.910    497.355    493.910
 54.870    505.176    538.924    -33.748    493.951    535.361    493.951    497.514    493.951
 54.970    572.000    538.898     33.102    493.993    535.207    493.993    497.685    493.993
 55.070    566.000    539.590     26.410    494.036    535.758    494.036    497.869    494.036
 55.170    522.171    540.956    -18.785    494.080    536.970    494.080    498.066    494.080
 55.270    598.000    543.011     54.989    494.125    538.857    494.125    498.279    494.125
 55.370    584.000    545.819     38.181    494.171    541.482    494.171    498.507    494.171
 55.470    544.000    549.504     -5.504    494.218    544.968    494.218    498.754    494.218
 55.570    534.974    554.298    -19.325    494.266    549.544    494.266    499.020    494.266
 55.670    576.000    560.660     15.340    494.315    555.667    494.315    499.308    494.315
 55.770    542.000    569.576    -27.576    494.365    564.319    494.365    499.620    494.365
 55.870    646.000    583.175     62.825    494.416    577.628    494.416    499.958    494.416
 55.970    622.000    605.825     16.175    494.468    599.958    494.468    500.327    494.468
 56.070    642.446    645.657     -3.211    494.520    639.432    494.520    500.729    494.520
 56.170    640.000    715.938    -75.938    494.574    709.312    494.574    501.170    494.574
 56.270    828.000    834.917     -6.917    494.628    827.843    494.628    501.653    494.628
 56.370    973.000   1022.272    -49.272    494.684   1014.699    494.684    502.186    494.684
 56.470   1296.490   1291.024      5.466    494.740   1282.899    494.740    502.775    494.740
 56.570   1666.962   1636.153     30.809    494.797   1627.425    494.797    503.430    494.797
 56.670   2043.000   2023.905     19.095    494.855   2014.525    494.855    504.159    494.855
 56.770   2300.000   2387.119    -87.119    494.914   2377.034    494.914    504.976    494.914
 56.870   2552.000   2634.368    -82.368    494.974   2623.508    494.974    505.897    494.974
 56.970   2648.000   2684.643    -36.643    495.035   2672.895    495.035    506.939    495.035
 57.070   2577.616   2519.070     58.546    495.096   2506.261    495.096    508.126    495.096
 57.170   2174.855   2196.901    -22.047    495.158   2182.809    495.158    509.490    495.158
 57.270   1919.000   1812.235    106.765    495.221   1796.603    495.221    511.072    495.221
 57.370   1394.038   1445.786    -51.748    495.285   1428.314    495.285    512.934    495.285
 57.470   1191.000   1145.988     45.012    495.350   1126.296    495.350    515.168    495.350
 57.570    948.000    929.409     18.591    495.415    906.982    495.415    517.926    495.415
 57.670    739.290    789.692    -50.402    495.481    763.771    495.481    521.451    495.481
 57.770    734.000    709.437     24.563    495.548    678.870    495.548    526.141    495.548
 57.870    728.000    670.390     57.610    495.616    633.406    495.616    532.611    495.616
 57.970    647.000    659.291    -12.291    495.685    613.218    495.685    541.759    495.685
 58.070    662.000    669.520     -7.520    495.754    610.471    495.754    554.795    495.754
 58.170    690.400    700.071     -9.671    495.824    622.683    495.824    573.194    495.824
 58.270    747.000    753.275     -6.275    495.894    650.626    495.894    598.515    495.894
 58.370    779.000    832.159    -53.159    495.966    696.006    495.966    632.076    495.966
 58.470    989.473    937.768     51.704    496.038    759.252    496.038    674.496    496.038
 58.570   1029.237   1066.879    -37.642    496.111    837.802    496.111    725.117    496.111
 58.670   1208.000   1210.350     -2.350    496.184    925.124    496.184    781.335    496.184
 58.770   1280.660   1353.093    -72.433    496.258   1011.439    496.258    837.844    496.258
 58.870   1453.000   1477.137    -24.137    496.333   1087.206    496.333    886.213    496.333
 58.970   1596.000   1565.417     30.583    496.408   1145.699    496.408    916.102    496.408
 59.070   1650.705   1603.509     47.195    496.484   1180.624    496.484    919.375    496.484
 59.170   1577.000   1583.612     -6.612    496.561   1185.169    496.561    895.031    496.561
 59.270   1436.818   1511.710    -74.891    496.638   1158.431    496.638    849.953    496.638
 59.370   1424.000   1408.540     15.460    496.716   1110.781    496.716    794.501    496.716
 59.470   1287.000   1299.796    -12.796    496.795   1058.819    496.795    737.772    496.795
 59.570   1185.000   1207.156    -22.156    496.874   1018.235    496.874    685.759    496.874
 59.670   1157.191   1147.124     10.067    496.953   1002.410    496.953    641.588    496.953
 59.770   1135.000   1132.286      2.714    497.034   1022.915    497.034    606.274    497.034
 59.870   1197.000   1169.151     27.849    497.114   1086.657    497.114    579.424    497.114
 59.970   1271.000   1253.454     17.546    497.196   1190.587    497.196    559.825    497.196
 60.070   1409.000   1366.979     42.021    497.278   1318.041    497.278    545.936    497.278
 60.170   1536.000   1478.075     57.925    497.360   1438.895    497.360    536.243    497.360
 60.270   1642.000   1547.677     94.323    497.443   1515.368    497.443    529.468    497.443
 60.370   1622.000   1543.636     78.364    497.526   1516.276    497.526    524.646    497.526
 60.470   1510.000   1458.444     51.556    497.610   1434.764    497.610    521.109    497.610
 60.570   1324.000   1313.225     10.775    497.695   1292.374    497.695    518.424    497.695
 60.670   1127.539   1142.775    -15.236    497.779   1124.156    497.779    516.323    497.779
 60.770    942.352    978.698    -36.347    497.865    961.870    497.865    514.650    497.865
 60.870    839.435    841.571     -2.137    497.951    826.183    497.951    513.315    497.951
 60.970    704.000    739.968    -35.968    498.037    725.722    498.037    512.268    498.037
 61.070    666.517    673.211     -6.695    498.123    659.840    498.123    511.482    498.123
 61.170    678.000    635.891     42.109    498.211    623.145    498.211    510.941    498.211
 61.270    670.000    622.296     47.704    498.298    609.937    498.298    510.635    498.298
 61.370    638.000    629.406      8.594    498.386    617.212    498.386    510.548    498.386
 61.470    674.742    657.983     16.760    498.474    645.756    498.474    510.652    498.474
 61.570    666.000    711.799    -45.799    498.563    699.391    498.563    510.900    498.563
 61.670    743.000    795.268    -52.268    498.652    782.603    498.652    511.216    498.652
 61.770    929.000    909.903     19.097    498.742    897.023    498.742    511.489    498.742
 61.870   1012.444   1050.524    -38.080    498.831   1037.608    498.831    511.584    498.831
 61.970   1258.847   1202.483     56.364    498.921   1189.832    498.921    511.387    498.921
 62.070   1262.000   1341.201    -79.201    499.012   1329.162    499.012    510.862    499.012
 62.170   1417.000   1435.739    -18.739    499.103   1424.600    499.103    510.071    499.103
 62.270   1362.000   1459.090    -97.090    499.194   1449.015    499.194    509.135    499.194
 62.370   1353.538   1403.149    -49.612    499.285   1394.173    499.285    508.171    499.285
 62.470   1299.000   1284.659     14.341    499.377   1276.721    499.377    507.263    499.377
 62.570   1135.000   1134.176      0.824    499.469   1127.160    499.469    506.461    499.469
 62.670   1015.000    981.205     33.795    499.561    974.972    499.561    505.787    499.561
 62.770    885.562    846.560     39.002    499.654    840.973    499.654    505.243    499.654
 62.870    714.176    740.719    -26.544    499.746    735.651    499.746    504.818    499.746
 62.970    639.000    665.262    -26.262    499.839    660.608    499.839    504.495    499.839
 63.070    653.277    615.951     37.326    499.932    611.629    499.932    504.254    499.932
 63.170    612.000    586.135     25.865    500.026    582.082    500.026    504.076    500.026
 63.270    600.000    569.358     30.642    500.119    565.528    500.119    503.945    500.119
 63.370    542.958    560.730    -17.772    500.213    557.087    500.213    503.849    500.213
 63.470    579.000    557.269     21.731    500.307    553.790    500.307    503.779    500.307
 63.570    587.000    557.719     29.281    500.401    554.382    500.401    503.729    500.401
 63.670    624.000    562.218     61.782    500.496    559.007    500.496    503.694    500.496
 63.770    599.000    572.030     26.970    500.590    568.931    500.590    503.672    500.590
 63.870    601.000    589.274     11.726    500.685    586.272    500.685    503.660    500.685
 63.970    627.000    616.504     10.496    500.780    613.589    500.780    503.657    500.780
 64.070    661.729    656.013      5.715    500.875    653.171    500.875    503.663    500.875
 64.170    786.000    708.826     77.174    500.970    706.047    500.970    503.675    500.970
 64.270    725.880    773.571    -47.690    501.065    770.846    501.065    503.694    501.065
 64.370    825.000    845.504    -20.504    501.160    842.830    501.160    503.720    501.160
 64.470    893.000    916.098    -23.098    501.255    913.474    501.255    503.750    501.255
 64.570    983.000    973.932      9.068    501.351    971.362    501.351    503.786    501.351
 64.670   1016.891   1007.811      9.080    501.446   1005.302    501.446    503.826    501.446
 64.770   1046.000   1011.350     34.650    501.541   1008.908    501.541    503.871    501.541
 64.870    933.113    985.503    -52.390    501.637    983.132    501.637    503.920    501.637
 64.970    952.000    937.373     14.627    501.732    935.073    501.732    503.972    501.732
 65.070    857.767    877.247    -19.480    501.828    875.014    501.828    504.028    501.828
 65.170    829.000    815.198     13.802    501.923    813.025    501.923    504.087    501.923
 65.270    726.000    758.381    -32.381    502.019    756.259    502.019    504.149    502.019
 65.370    708.000    710.170     -2.170    502.115    708.090    502.115    504.214    502.115
 65.470    656.000    670.971    -14.971    502.210    668.924    502.210    504.282    502.210
 65.570    625.000    639.749    -14.749    502.306    637.726    502.306    504.353    502.306
 65.670    610.000    615.205     -5.205    502.401    613.201    502.401    504.426    502.401
 65.770    556.000    596.193    -40.193    502.496    594.204    502.496    504.502    502.496
 65.870    571.000    581.754    -10.754    502.592    579.777    502.592    504.580    502.592
 65.970    613.399    571.109     42.290    502.687    569.142    502.687    504.660    502.687
 66.070    570.000    563.633      6.367    502.782    561.675    502.782    504.743    502.782
 66.170    520.267    558.805    -38.538    502.877    556.855    502.877    504.828    502.877
 66.270    581.000    556.175     24.825    502.972    554.232    502.972    504.914    502.972
 66.370    495.000    555.362    -60.362    503.067    553.425    503.067    505.003    503.067
 66.470    518.342    556.086    -37.743    503.161    554.152    503.161    505.094    503.161
 66.570    525.000    558.216    -33.216    503.256    556.284    503.256    505.188    503.256
 66.670    607.373    561.860     45.512    503.350    559.928    503.350    505.283    503.350
 66.770    609.000    567.509     41.491    503.445    565.576    503.445    505.379    503.445
 66.870    542.000    576.292    -34.292    503.539    574.354    503.539    505.477    503.539
 66.970    589.066    590.381     -1.315    503.633    588.435    503.633    505.579    503.633
 67.070    623.000    613.531      9.469    503.726    611.573    503.726    505.682    503.726
 67.170    685.000    651.613     33.387    503.820    649.640    503.820    505.788    503.820
 67.270    749.000    712.834     36.166    503.913    710.842    503.913    505.896    503.913
 67.370    826.000    807.181     18.819    504.006    805.167    504.006    506.007    504.006
 67.470    914.426    944.641    -30.215    504.099    942.602    504.099    506.119    504.099
 67.570   1155.000   1132.069     22.931    504.191   1130.004    504.191    506.235    504.191
 67.670   1359.000   1369.146    -10.146    504.284   1367.059    504.284    506.353    504.284
 67.770   1616.000   1644.510    -28.510    504.376   1642.407    504.376    506.474    504.376
 67.870   2002.221   1933.298     68.923    504.468   1931.191    504.468    506.597    504.468
 67.970   2164.530   2197.184    -32.654    504.559   2195.085    504.559    506.724    504.559
 68.070   2404.000   2388.757     15.243    504.650   2386.677    504.650    506.854    504.650
 68.170   2469.751   2464.222      5.529    504.741   2462.166    504.741    506.988    504.741
 68.270   2377.000   2403.784    -26.784    504.832   2401.740    504.832    507.125    504.832
 68.370   2212.000   2223.688    -11.688    504.922   2221.630    504.922    507.266    504.922
 68.470   2072.000   1966.036    105.964    505.012   1963.930    505.012    507.412    505.012
 68.570   1603.000   1678.494    -75.494    505.102   1676.306    505.102    507.562    505.102
 68.670   1415.471   1400.666     14.805    505.191   1398.375    505.191    507.718    505.191
 68.770   1161.000   1158.969      2.031    505.280   1156.560    505.280    507.879    505.280
 68.870    898.000    966.194    -68.194    505.368    963.660    505.368    508.045    505.368
 68.970    869.000    823.730     45.270    505.456    821.070    505.456    508.219    505.456
 69.070    702.000    725.338    -23.338    505.544    722.552    505.544    508.400    505.544
 69.170    615.390    661.223    -45.833    505.631    658.312    505.631    508.588    505.631
 69.270    672.000    621.301     50.699    505.718    618.262    505.718    508.786    505.718
 69.370    571.000    597.121    -26.121    505.805    593.952    505.805    508.993    505.805
 69.470    610.000    582.538     27.462    505.891    579.231    505.891    509.211    505.891
 69.570    551.000    573.554    -22.554    505.977    570.098    505.977    509.440    505.977
 69.670    584.908    567.794     17.114    506.062    564.177    506.062    509.684    506.062
 69.770    615.000    563.951     51.049    506.146    560.159    506.146    509.942    506.146
 69.870    606.000    561.345     44.655    506.231    557.361    506.231    510.217    506.231
 69.970    556.000    559.636     -3.636    506.314    555.440    506.314    510.511    506.314
 70.070    511.799    558.658    -46.859    506.398    554.229    506.398    510.827    506.398
 70.170    509.000    558.341    -49.341    506.480    553.654    506.480    511.168    506.480
 70.270    536.113    558.676    -22.563    506.563    553.701    506.563    511.536    506.563
 70.370    573.000    559.717     13.283    506.644    554.423    506.644    511.937    506.644
 70.470    571.000    561.614      9.386    506.726    555.963    506.726    512.374    506.726
 70.570    586.000    564.679     21.321    506.806    558.626    506.806    512.855    506.806
 70.670    544.000    569.509    -25.509    506.886    563.003    506.886    513.386    506.886
 70.770    561.000    577.179    -16.179    506.966    570.159    506.966    513.976    506.966
 70.870    578.000    589.489    -11.489    507.045    581.882    507.045    514.639    507.045
 70.970    629.957    609.246     20.711    507.123    600.957    507.123    515.391    507.123
 71.070    595.000    640.450    -45.450    507.201    631.362    507.201    516.258    507.201
 71.170    687.000    688.233     -1.233    507.278    678.184    507.278    517.280    507.278
 71.270    705.000    758.352    -53.352    507.355    747.118    507.355    518.521    507.355
 71.370    859.000    856.092      2.908    507.431    843.344    507.431    520.082    507.431
 71.470    993.000    984.607      8.393    507.506    969.858    507.506    522.127    507.506
 71.570   1154.290   1142.977     11.313    507.581   1125.494    507.581    524.899    507.581
 71.670   1356.000   1324.459     31.541    507.655   1303.157    507.655    528.758    507.655
 71.770   1503.000   1515.435    -12.435    507.728   1488.744    507.728    534.193    507.728
 71.870   1635.000   1695.497    -60.497    507.801   1661.228    507.801    541.829    507.801
 71.970   1815.000   1839.486    -24.486    507.873   1794.729    507.873    552.392    507.873
 72.070   1904.063   1923.039    -18.976    507.945   1864.137    507.945    566.632    507.945
 72.170   1926.000   1931.687     -5.687    508.016   1854.341    508.016    585.186    508.016
 72.270   1871.000   1868.070      2.930    508.086   1767.621    508.086    608.405    508.086
 72.370   1784.000   1750.442     33.558    508.155   1622.362    508.155    636.147    508.155
 72.470   1642.000   1603.911     38.089    508.224   1444.495    508.224    667.585    508.224
 72.570   1492.000   1451.779     40.221    508.291   1259.013    508.291    701.027    508.291
 72.670   1286.000   1310.785    -24.785    508.359   1085.350    508.359    733.777    508.359
 72.770   1125.000   1189.589    -64.589    508.425    935.873    508.425    762.131    508.425
 72.870    968.000   1089.407   -121.407    508.491    816.119    508.491    781.770    508.491
 72.970    942.000   1006.476    -64.476    508.556    726.090    508.556    788.934    508.556
 73.070    865.000    935.582    -70.582    508.620    662.122    508.620    782.073    508.620
 73.170    859.224    872.844    -13.620    508.683    618.820    508.683    762.700    508.683
 73.270    733.000    816.422    -83.422    508.746    590.603    508.746    734.559    508.746
 73.370    677.000    765.831    -88.831    508.807    572.667    508.807    701.966    508.807
 73.470    729.924    721.152      8.772    508.868    561.377    508.868    668.640    508.868
 73.570    636.000    682.622    -46.622    508.929    554.262    508.929    637.287    508.929
 73.670    627.000    650.416    -23.416    508.988    549.792    508.988    609.612    508.988
 73.770    624.142    624.508     -0.367    509.047    547.103    509.047    586.455    509.047
 73.870    607.000    604.598      2.402    509.104    545.745    509.104    567.963    509.104
 73.970    613.000    590.111     22.889    509.161    545.490    509.161    553.792    509.161
 74.070    578.000    580.263     -2.263    509.217    546.187    509.217    543.307    509.217
 74.170    554.249    574.144    -19.895    509.272    547.676    509.272    535.758    509.272
 74.270    572.000    570.800      1.200    509.326    549.731    509.326    530.420    509.326
 74.370    611.843    569.283     42.561    509.380    552.028    509.380    526.665    509.380
 74.470    574.908    568.683      6.225    509.432    554.150    509.432    524.001    509.432
 74.570    654.000    568.170     85.830    509.484    555.623    509.484    522.070    509.484
 74.670    534.766    567.070    -32.304    509.535    556.023    509.535    520.623    509.535
 74.770    620.000    564.999     55.001    509.584    555.126    509.584    519.499    509.584
 74.870    620.000    561.940     58.060    509.633    553.018    509.633    518.595    509.633
 74.970    665.000    558.187    106.813    509.681    550.057    509.681    517.846    509.681
 75.070    589.000    554.199     34.801    509.728    546.745    509.728    517.211    509.728
 75.170    520.333    550.473    -30.140    509.774    543.604    509.774    516.666    509.774
 75.270    547.023    547.489     -0.466    509.819    541.132    509.819    516.193    509.819
 75.370    537.000    545.710     -8.710    509.864    539.805    509.864    515.779    509.864
 75.470    593.000    545.597     47.403    509.907    540.094    509.907    515.415    509.907
 75.570    527.151    547.639    -20.488    509.949    542.494    509.949    515.093    509.949
 75.670    595.428    552.346     43.082    509.990    547.521    509.990    514.808    509.990
 75.770    555.359    560.216     -4.858    510.031    555.679    510.031    514.554    510.031
 75.870    582.733    571.638     11.094    510.070    567.359    510.070    514.328    510.070
 75.970    591.000    586.751      4.249    510.108    582.704    510.108    514.126    510.108
 76.070    633.788    605.275     28.513    510.145    601.438    510.145    513.945    510.145
 76.170    602.303    626.365    -24.062    510.182    622.718    510.182    513.782    510.182
 76.270    615.000    648.521    -33.521    510.217    645.048    510.217    513.636    510.217
 76.370    704.000    669.592     34.408    510.251    666.279    510.251    513.504    510.251
 76.470    703.000    686.929     16.071    510.284    683.765    510.284    513.384    510.284
 76.570    742.669    697.804     44.865    510.316    694.780    510.316    513.276    510.316
 76.670    642.000    700.165    -58.165    510.347    697.274    510.347    513.177    510.347
 76.770    658.768    693.472    -34.704    510.377    690.706    510.377    513.088    510.377
 76.870    670.000    678.955     -8.955    510.406    676.309    510.406    513.006    510.406
 76.970    701.467    659.058     42.408    510.434    656.523    510.434    512.931    510.434
 77.070    660.000    636.549     23.451    510.461    634.117    510.461    512.863    510.461
 77.170    649.259    613.882     35.377    510.487    611.546    510.487    512.800    510.487
 77.270    606.322    592.913     13.410    510.511    590.665    510.511    512.743    510.511
 77.370    557.000    574.812    -17.812    510.535    572.645    510.535    512.690    510.535
 77.470    544.000    560.103    -16.103    510.557    558.012    510.557    512.640    510.557
 77.570    548.076    548.783     -0.707    510.579    546.761    510.579    512.595    510.579
 77.670    522.003    540.485    -18.482    510.599    538.527    510.599    512.553    510.599
 77.770    547.000    534.657     12.343    510.618    532.758    510.618    512.513    510.618
 77.870    577.000    530.701     46.299    510.636    528.858    510.636    512.477    510.636
 77.970    528.000    528.079     -0.079    510.653    526.288    510.653    512.442    510.653
 78.070    492.000    526.360    -34.360    510.668    524.616    510.668    512.410    510.668
 78.170    537.000    525.225     11.775    510.683    523.527    510.683    512.379    510.683
 78.270    566.000    524.456     41.544    510.696    522.800    510.696    512.351    510.696
 78.370    521.000    523.888     -2.888    510.708    522.271    510.708    512.324    510.708
 78.470    506.883    523.518    -16.635    510.719    521.938    510.719    512.298    510.719
 78.570    528.000    523.269      4.731    510.729    521.724    510.729    512.273    510.729
 78.670    530.000    523.121      6.879    510.738    521.608    510.738    512.250    510.738
 78.770    558.000    523.074     34.926    510.745    521.590    510.745    512.228    510.745
 78.870    552.000    523.137     28.863    510.752    521.680    510.752    512.208    510.752
 78.970    555.000    523.329     31.671    510.757    521.896    510.757    512.189    510.757
 79.070    506.000    523.677    -17.677    510.761    522.265    510.761    512.171    510.761
 79.170    559.935    524.209     35.726    510.763    522.814    510.763    512.157    510.763
 79.270    545.755    524.958     20.797    510.765    523.577    510.765    512.145    510.765
 79.370    513.000    525.955    -12.955    510.765    524.581    510.765    512.137    510.765
 79.470    530.000    527.227      2.773    510.764    525.855    510.764    512.133    510.764
 79.570    506.000    528.806    -22.806    510.762    527.428    510.762    512.136    510.762
 79.670    535.964    530.731      5.233    510.758    529.339    510.758    512.146    510.758
 79.770    497.000    533.062    -36.062    510.754    531.646    510.754    512.164    510.754
 79.870    548.000    535.898     12.102    510.748    534.449    510.748    512.191    510.748
 79.970    524.000    539.398    -15.398    510.741    537.905    510.741    512.228    510.741
 80.070    533.000    543.805    -10.805    510.732    542.258    510.732    512.273    510.732
 80.170    517.000    549.462    -32.462    510.723    547.854    510.723    512.326    510.723
 80.270    549.000    556.807     -7.807    510.712    555.131    510.712    512.384    510.712
 80.370    593.096    566.314     26.781    510.700    564.569    510.700    512.443    510.700
 80.470    586.122    578.390      7.732    510.686    576.580    510.686    512.497    510.686
 80.570    586.086    593.250     -7.164    510.672    591.386    510.672    512.540    510.672
 80.670    582.070    610.812    -28.742    510.656    608.913    510.656    512.564    510.656
 80.770    627.000    630.618     -3.618    510.638    628.710    510.638    512.561    510.638
 80.870    629.000    651.809    -22.809    510.620    649.922    510.620    512.528    510.620
 80.970    663.000    673.176    -10.176    510.600    671.337    510.600    512.465    510.600
 81.070    690.000    693.317     -3.317    510.579    691.552    510.579    512.377    510.579
 81.170    726.000    710.873     15.127    510.556    709.197    510.556    512.272    510.556
 81.270    672.032    724.697    -52.665    510.532    723.118    510.532    512.156    510.532
 81.370    771.000    733.947     37.053    510.507    732.468    510.507    512.037    510.507
 81.470    760.000    738.140     21.860    510.481    736.757    510.481    511.920    510.481
 81.570    704.769    737.186    -32.417    510.453    735.891    510.453    511.807    510.453
 81.670    723.000    731.350     -8.350    510.424    730.133    510.424    511.703    510.424
 81.770    739.000    721.172     17.828    510.394    720.023    510.394    511.607    510.394
 81.870    689.178    707.477    -18.299    510.362    706.384    510.362    511.519    510.362
 81.970    680.000    691.357    -11.357    510.329    690.310    510.329    511.440    510.329
 82.070    729.000    674.016     54.984    510.295    673.004    510.295    511.368    510.295
 82.170    642.279    656.500    -14.221    510.259    655.516    510.259    511.303    510.259
 82.270    688.503    639.523     48.981    510.222    638.559    510.222    511.242    510.222
 82.370    607.000    623.459    -16.459    510.184    622.510    510.184    511.184    510.184
 82.470    598.630    608.478     -9.848    510.144    607.541    510.144    511.129    510.144
 82.570    621.897    594.702     27.194    510.103    593.772    510.103    511.076    510.103
 82.670    551.000    582.290    -31.290    510.061    581.364    510.061    511.024    510.061
 82.770    567.000    571.435     -4.435    510.017    570.511    510.017    510.972    510.017
 82.870    557.000    562.328     -5.328    509.972    561.404    509.972    510.920    509.972
 82.970    521.750    555.118    -33.368    509.926    554.193    509.926    510.867    509.926
 83.070    567.000    549.907     17.093    509.878    548.980    509.878    510.814    509.878
 83.170    517.110    546.734    -29.624    509.829    545.805    509.829    510.761    509.829
 83.270    563.731    545.563     18.168    509.778    544.630    509.778    510.707    509.778
 83.370    523.592    546.262    -22.671    509.726    545.325    509.726    510.652    509.726
 83.470    535.000    548.591    -13.591    509.673    547.649    509.673    510.596    509.673
 83.570    548.000    552.196     -4.196    509.618    551.249    509.618    510.539    509.618
 83.670    546.000    556.609    -10.609    509.562    555.657    509.562    510.481    509.562
 83.770    536.000    561.262    -25.262    509.505    560.306    509.505    510.422    509.505
 83.870    514.000    565.522    -51.522    509.446    564.562    509.446    510.363    509.446
 83.970    561.000    568.746     -7.746    509.386    567.784    509.386    510.302    509.386
 84.070    610.133    570.380     39.753    509.324    569.418    509.324    510.240    509.324
 84.170    563.000    570.082     -7.082    509.262    569.121    509.262    510.177    509.262
 84.270    602.532    567.822     34.709    509.197    566.864    509.197    510.114    509.197
 84.370    537.289    563.875    -26.586    509.132    562.920    509.132    510.049    509.132
 84.470    554.000    558.717     -4.717    509.065    557.766    509.065    509.983    509.065
 84.570    519.000    552.897    -33.897    508.996    551.949    508.996    509.916    508.996
 84.670    550.000    546.927      3.073    508.926    545.983    508.926    509.848    508.926
 84.770    542.000    541.232      0.768    508.855    540.290    508.855    509.779    508.855
 84.870    560.684    536.115     24.569    508.782    535.174    508.782    509.709    508.782
 84.970    526.643    531.756     -5.113    508.708    530.816    508.708    509.638    508.708
 85.070    549.840    528.224     21.616    508.633    527.283    508.633    509.566    508.633
 85.170    561.578    525.498     36.080    508.556    524.555    508.556    509.493    508.556
 85.270    511.000    523.497    -12.497    508.478    522.552    508.478    509.418    508.478
 85.370    530.752    522.113      8.640    508.398    521.164    508.398    509.343    508.398
 85.470    528.885    521.232      7.653    508.317    520.279    508.317    509.267    508.317
 85.570    522.000    520.758      1.242    508.235    519.800    508.235    509.189    508.235
 85.670    522.000    520.625      1.375    508.151    519.661    508.151    509.111    508.151
 85.770    518.000    520.799     -2.799    508.066    519.829    508.066    509.031    508.066
 85.870    545.000    521.291     23.709    507.980    520.314    507.980    508.951    507.980
 85.970    481.000    522.151    -41.151    507.892    521.167    507.892    508.869    507.892
 86.070    502.000    523.474    -21.474    507.802    522.481    507.802    508.786    507.802
 86.170    497.000    525.394    -28.394    507.712    524.390    507.712    508.703    507.712
 86.270    552.872    528.080     24.793    507.620    527.065    507.620    508.618    507.620
 86.370    508.000    531.724    -23.724    507.526    530.697    507.526    508.533    507.526
 86.470    560.000    536.522     23.478    507.431    535.480    507.431    508.446    507.431
 86.570    545.000    542.639      2.361    507.335    541.580    507.335    508.359    507.335
 86.670    562.000    550.177     11.823    507.237    549.100    507.237    508.271    507.237
 86.770    594.000    559.132     34.868    507.138    558.035    507.138    508.181    507.138
 86.870    598.427    569.351     29.076    507.038    568.232    507.038    508.091    507.038
 86.970    633.000    580.507     52.493    506.936    579.364    506.936    508.000    506.936
 87.070    591.000    592.078     -1.078    506.833    590.912    506.833    507.908    506.833
 87.170    646.000    603.358     42.642    506.728    602.168    506.728    507.816    506.728
 87.270    672.000    613.485     58.515    506.622    612.274    506.622    507.722    506.622
 87.370    664.888    621.513     43.375    506.515    620.283    506.515    507.628    506.515
 87.470    626.518    626.621     -0.103    506.406    625.376    506.406    507.533    506.406
 87.570    634.000    628.215      5.785    506.296    626.958    506.296    507.438    506.296
 87.670    698.000    626.163     71.837    506.184    624.897    506.184    507.341    506.184
 87.770    668.000    620.823     47.177    506.071    619.552    506.071    507.244    506.071
 87.870    649.771    612.931     36.840    505.957    611.656    505.957    507.147    505.957
 87.970    600.000    603.417     -3.417    505.842    602.138    505.842    507.049    505.842
 88.070    589.000    593.254     -4.254    505.725    591.970    505.725    506.951    505.725
 88.170    560.819    583.356    -22.537    505.606    582.066    505.606    506.852    505.606
 88.270    535.098    574.508    -39.410    505.486    573.210    505.486    506.753    505.486
 88.370    587.000    567.328     19.672    505.365    566.019    505.365    506.653    505.365
 88.470    534.000    562.238    -28.238    505.243    560.916    505.243    506.553    505.243
 88.570    528.084    559.458    -31.374    505.119    558.120    505.119    506.454    505.119
 88.670    564.000    559.008      4.992    504.994    557.653    504.994    506.354    504.994
 88.770    581.000    560.724     20.276    504.868    559.351    504.868    506.254    504.868
 88.870    612.751    564.277     48.474    504.740    562.883    504.740    506.154    504.740
 88.970    612.634    569.190     43.444    504.611    567.774    504.611    506.055    504.611
 89.070    543.494    574.871    -31.377    504.480    573.431    504.480    505.956    504.480
 89.170    625.959    580.638     45.322    504.348    579.171    504.348    505.858    504.348
 89.270    608.000    585.765     22.235    504.215    584.269    504.215    505.760    504.215
 89.370    585.000    589.547     -4.547    504.081    588.019    504.081    505.663    504.081
 89.470    577.000    591.401    -14.401    503.945    589.838    503.945    505.567    503.945
 89.570    571.000    590.980    -19.980    503.808    589.376    503.808    505.472    503.808
 89.670    583.880    588.254     -4.374    503.669    586.605    503.669    505.378    503.669
 89.770    538.298    583.500    -45.203    503.530    581.801    503.530    505.287    503.530
 89.870    549.000    577.210    -28.210    503.388    575.455    503.388    505.197    503.388
 89.970    606.843    569.962     36.880    503.246    568.146    503.246    505.111    503.246
 90.070    580.008    562.328     17.680    503.102    560.445    503.102    505.027    503.102
 90.170    598.523    554.802     43.721    502.958    552.849    502.958    504.946    502.958
 90.270    536.000    547.778    -11.778    502.811    545.749    502.811    504.870    502.811
 90.370    548.000    541.528      6.472    502.664    539.417    502.664    504.797    502.664
 90.470    517.000    536.209    -19.209    502.515    534.011    502.515    504.730    502.515
 90.570    502.279    531.873    -29.594    502.365    529.582    502.365    504.670    502.365
 90.670    504.802    528.493    -23.691    502.214    526.099    502.214    504.617    502.214
 90.770    546.904    525.984     20.920    502.061    523.478    502.061    504.573    502.061
 90.870    565.000    524.232     40.768    501.907    521.601    501.907    504.541    501.907
 90.970    496.000    523.117    -27.117    501.752    520.347    501.752    504.525    501.752
 91.070    556.747    522.517     34.230    501.596    519.586    501.596    504.528    501.596
 91.170    576.000    522.351     53.649    501.438    519.232    501.438    504.557    501.438
 91.270    487.960    522.637    -34.677    501.279    519.295    501.279    504.620    501.279
 91.370    537.000    523.338     13.662    501.119    519.726    501.119    504.729    501.119
 91.470    513.000    524.492    -11.492    500.958    520.550    500.958    504.898    500.958
 91.570    466.000    526.186    -60.186    500.795    521.832    500.795    505.145    500.795
 91.670    503.000    528.564    -25.564    500.632    523.696    500.632    505.495    500.632
 91.770    563.000    531.805     31.195    500.467    526.290    500.467    505.974    500.467
 91.870    503.000    536.127    -33.127    500.301    529.802    500.301    506.616    500.301
 91.970    553.000    541.782     11.218    500.134    534.447    500.134    507.455    500.134
 92.070    564.000    549.031     14.969    499.965    540.447    499.965    508.531    499.965
 92.170    562.000    558.124      3.876    499.795    548.016    499.795    509.881    499.795
 92.270    572.000    569.272      2.728    499.625    557.328    499.625    511.541    499.625
 92.370    541.284    582.616    -41.332    499.453    568.498    499.453    513.537    499.453
 92.470    601.019    598.193      2.826    499.280    581.546    499.280    515.885    499.280
 92.570    666.946    615.909     51.038    499.105    596.379    499.105    518.587    499.105
 92.670    602.345    635.516    -33.170    498.930    612.770    498.930    521.620    498.930
 92.770    649.000    656.601     -7.601    498.753    630.351    498.753    524.941    498.753
 92.870    680.246    678.580      1.665    498.576    648.613    498.576    528.474    498.576
 92.970    683.000    700.719    -17.719    498.397    666.927    498.397    532.113    498.397
 93.070    777.360    722.215     55.145    498.217    684.636    498.217    535.717    498.217
 93.170    780.000    742.261     37.739    498.036    701.110    498.036    539.106    498.036
 93.270    738.487    760.206    -21.719    497.854    715.909    497.854    542.067    497.854
 93.370    832.091    775.663     56.428    497.671    728.877    497.671    544.374    497.671
 93.470    764.000    788.548    -24.548    497.487    740.143    497.487    545.810    497.487
 93.570    796.000    799.038     -3.038    497.302    750.041    497.302    546.219    497.302
 93.670    838.000    807.494     30.506    497.115    758.991    497.115    545.540    497.115
 93.770    867.000    814.394     52.606    496.928    767.418    496.928    543.829    496.928
 93.870    781.286    820.306    -39.020    496.740    775.733    496.740    541.240    496.740
 93.970    853.052    825.878     27.174    496.550    784.373    496.550    537.985    496.550
 94.070    891.000    831.806     59.194    496.360    793.805    496.360    534.294    496.360
 94.170    839.597    838.738      0.859    496.168    804.462    496.168    530.379    496.168
 94.270    863.000    847.105     15.895    495.976    816.596    495.976    526.422    495.976
 94.370    808.512    856.957    -48.445    495.783    830.114    495.783    522.564    495.783
 94.470    932.000    867.848     64.152    495.588    844.463    495.588    518.915    495.588
 94.570    858.538    878.830    -20.292    495.393    858.615    495.393    515.553    495.393
 94.670    866.410    888.510    -22.100    495.197    871.133    495.197    512.523    495.197
 94.770    956.517    895.220     61.298    494.999    880.328    494.999    509.847    494.999
 94.870    901.778    897.269      4.509    494.801    884.509    494.801    507.525    494.801
 94.970    903.828    893.277     10.551    494.602    882.309    494.602    505.542    494.602
 95.070    907.000    882.516     24.484    494.402    873.029    494.402    503.872    494.402
 95.170    882.120    865.120     17.001    494.201    856.833    494.201    502.479    494.201
 95.270    823.000    842.056    -19.056    493.999    834.727    493.999    501.327    493.999
 95.370    799.835    814.907    -15.072    493.797    808.332    493.797    500.377    493.797
 95.470    814.000    785.605     28.395    493.593    779.614    493.593    499.593    493.593
 95.570    804.597    756.200     48.397    493.389    750.657    493.389    498.943    493.389
 95.670    757.000    728.651     28.349    493.183    723.447    493.183    498.399    493.183
 95.770    679.613    704.768    -25.155    492.977    699.817    492.977    497.937    492.977
 95.870    684.744    686.159     -1.415    492.770    681.394    492.770    497.540    492.770
 95.970    687.000    674.202     12.798    492.563    669.572    492.563    497.193    492.563
 96.070    675.000    670.061      4.939    492.354    665.523    492.354    496.884    492.354
 96.170    682.000    674.693      7.307    492.145    670.215    492.145    496.606    492.145
 96.270    645.434    688.864    -43.430    491.935    684.420    491.935    496.352    491.935
 96.370    749.000    713.143     35.857    491.724    708.711    491.724    496.119    491.724
 96.470    779.897    747.856     32.041    491.512    743.417    491.512    495.902    491.512
 96.570    833.551    793.015     40.535    491.300    788.552    491.300    495.701    491.300
 96.670    844.000    848.215     -4.215    491.087    843.713    491.087    495.514    491.087
 96.770    904.000    912.522     -8.522    490.873    907.967    490.873    495.340    490.873
 96.870    979.399    984.372     -4.973    490.659    979.754    490.659    495.179    490.659
 96.970    949.000   1061.506   -112.506    490.444   1056.813    490.444    495.030    490.444
 97.070   1159.865   1140.939     18.926    490.228   1136.161    490.228    494.894    490.228
 97.170   1266.443   1219.014     47.429    490.012   1214.141    490.012    494.770    490.012
 97.270   1351.000   1291.512     59.488    489.795   1286.535    489.795    494.660    489.795
 97.370   1340.683   1353.900    -13.217    489.577   1348.812    489.577    494.563    489.577
 97.470   1356.205   1401.771    -45.566    489.359   1396.559    489.359    494.481    489.359
 97.570   1469.687   1431.447     38.240    489.140   1426.101    489.140    494.415    489.140
 97.670   1461.694   1440.654     21.040    488.920   1435.160    488.920    494.365    488.920
 97.770   1427.000   1428.984     -1.984    488.700   1423.323    488.700    494.334    488.700
 97.870   1452.485   1397.927     54.558    488.480   1392.077    488.480    494.324    488.480
 97.970   1330.000   1350.480    -20.480    488.259   1344.415    488.259    494.338    488.259
 98.070   1361.915   1290.559     71.356    488.037   1284.247    488.037    494.379    488.037
 98.170   1268.000   1222.445     45.555    487.815   1215.848    487.815    494.453    487.815
 98.270   1128.000   1150.383    -22.383    487.592   1143.458    487.592    494.566    487.592
 98.370   1081.000   1078.323      2.677    487.369   1071.016    487.369    494.728    487.369
 98.470   1016.087   1009.757      6.331    487.146   1002.001    487.146    494.951    487.146
 98.570   1000.000    947.636     52.364    486.922    939.352    486.922    495.252    486.922
 98.670    895.000    894.361      0.639    486.697    885.445    486.697    495.653    486.697
 98.770    855.000    851.808      3.192    486.473    842.129    486.473    496.183    486.473
 98.870    878.514    821.396     57.119    486.247    810.786    486.247    496.880    486.247
 98.970    729.000    804.157    -75.157    486.022    792.402    486.022    497.789    486.022
 99.070    841.555    800.822     40.733    485.796    787.650    485.796    498.970    485.796
 99.170    795.000    811.922    -16.922    485.570    796.991    485.570    500.494    485.570
 99.270    801.000    837.741    -36.741    485.343    820.627    485.343    502.442    485.343
 99.370    869.000    878.370     -9.370    485.116    858.554    485.116    504.909    485.116
 99.470    893.000    933.649    -40.649    484.889    910.511    484.889    508.000    484.889
 99.570    939.508   1003.096    -63.589    484.661    975.903    484.661    511.824    484.661
 99.670   1150.937   1085.805     65.132    484.434   1053.715    484.434    516.492    484.434
 99.770   1184.108   1180.354      3.754    484.206   1142.421    484.206    522.109    484.206
 99.870   1297.000   1284.711     12.289    483.978   1239.900    483.978    528.765    483.978
 99.970   1434.007   1396.180     37.826    483.749   1343.391    483.749    536.525    483.749
100.070   1547.767   1511.386     36.381    483.521   1449.490    483.521    545.417    483.521
100.170   1586.458   1626.358    -39.900    483.292   1554.243    483.292    555.424    483.292
100.270   1756.000   1736.732     19.268    483.063   1653.359    483.063    566.474    483.063
100.370   1812.755   1838.096    -25.341    482.834   1742.566    482.834    578.425    482.834
100.470   1998.000   1926.401     71.599    482.605   1818.026    482.605    591.066    482.605
100.570   2025.000   1998.301     26.699    482.376   1876.685    482.376    604.102    482.376
100.670   2135.911   2051.284     84.627    482.147   1916.409    482.147    617.154    482.147
100.770   2157.000   2083.600     73.400    481.917   1935.914    481.917    629.756    481.917
100.870   2136.384   2094.142     42.242    481.688   1934.639    481.688    641.361    481.688
100.970   2145.680   2082.475     63.205    481.459   1912.755    481.459    651.362    481.459
101.070   1978.070   2049.084    -71.014    481.229   1871.366    481.229    659.139    481.229
101.170   1926.000   1995.680    -69.680    481.000   1812.740    481.000    664.135    481.000
101.270   1888.375   1925.334    -36.958    480.771   1740.352    480.771    665.947    480.771
101.370   1858.000   1842.277     15.723    480.541   1658.598    480.541    664.410    480.541
101.470   1787.146   1751.408     35.738    480.312   1572.269    480.312    659.633    480.312
101.570   1668.000   1657.706     10.294    480.083   1485.985    480.083    651.974    480.083
101.670   1525.000   1565.714    -40.714    479.855   1403.761    479.855    641.964    479.855
101.770   1540.000   1479.186     60.814    479.626   1328.737    479.626    630.218    479.626
101.870   1462.000   1400.892     61.108    479.397   1263.070    479.397    617.347    479.397
101.970   1374.000   1332.542     41.458    479.169   1207.910    479.169    603.915    479.169
102.070   1188.000   1274.806    -86.806    478.941   1163.443    478.941    590.406    478.941
102.170   1171.000   1227.384    -56.384    478.713   1128.971    478.713    577.218    478.713
102.270   1186.679   1189.132     -2.452    478.486   1103.039    478.486    564.662    478.486
102.370   1094.000   1158.223    -64.223    478.258   1083.591    478.258    552.969    478.258
102.470   1149.000   1132.357     16.643    478.031   1068.170    478.031    542.294    478.031
102.570   1163.277   1109.019     54.258    477.805   1054.175    477.805    532.724    477.805
102.670   1117.000   1085.790     31.210    477.578   1039.158    477.578    524.287    477.578
102.770   1086.016   1060.666     25.350    477.352   1021.132    477.352    516.963    477.352
102.870   1002.000   1032.312    -30.312    477.127    998.821    477.127    510.696    477.127
102.970    990.000   1000.174    -10.174    476.902    971.755    476.902    505.398    476.902
103.070    970.000    964.417      5.583    476.677    940.202    476.677    500.969    476.677
103.170    926.484    925.743      0.742    476.453    904.973    476.453    497.298    476.453
103.270    917.000    885.170     31.830    476.229    867.197    476.229    494.274    476.229
103.370    843.000    843.847     -0.847    476.006    828.129    476.006    491.791    476.006
103.470    797.142    802.911     -5.768    475.783    789.001    475.783    489.754    475.783
103.570    767.321    763.398      3.923    475.561    750.939    475.561    488.076    475.561
103.670    764.253    726.187     38.066    475.340    714.890    475.340    486.685    475.340
103.770    662.000    691.955    -29.955    475.119    681.597    475.119    485.520    475.119
103.870    656.000    661.165     -5.165    474.899    651.569    474.899    484.531    474.899
103.970    647.000    634.073     12.927    474.679    625.103    474.679    483.679    474.679
104.070    600.440    610.729    -10.289    474.460    602.280    474.460    482.934    474.460
104.170    563.733    591.016    -27.283    474.242    583.007    474.242    482.271    474.242
104.270    601.000    574.691     26.309    474.025    567.057    474.025    481.674    474.025
104.370    560.110    561.435     -1.325    473.808    554.127    473.808    481.128    473.808
104.470    556.151    550.867      5.284    473.592    543.843    473.592    480.625    473.592
104.570    528.741    542.599    -13.858    473.377    535.827    473.377    480.156    473.377
104.670    574.000    536.259     37.741    473.163    529.710    473.163    479.716    473.163
104.770    531.182    531.511     -0.328    472.949    525.162    472.949    479.300    472.949
104.870    521.824    528.066     -6.242    472.737    521.897    472.737    478.907    472.737
104.970    545.000    525.691     19.309    472.526    519.683    472.526    478.533    472.526
105.070    561.104    524.208     36.897    472.315    518.344    472.315    478.176    472.315
105.170    547.000    523.492     23.508    472.105    517.758    472.105    477.836    472.105
105.270    554.000    523.470     30.530    471.897    517.853    471.897    477.509    471.897
105.370    508.000    524.114    -16.114    471.689    518.601    471.689    477.197    471.689
105.470    479.155    525.436    -46.281    471.483    520.015    471.483    476.896    471.483
105.570    539.728    527.482     12.246    471.277    522.142    471.277    476.608    471.277
105.670    545.000    530.326     14.674    471.073    525.058    471.073    476.331    471.073
105.770    522.000    534.061    -12.061    470.870    528.854    470.870    476.064    470.870
105.870    584.000    538.785     45.215    470.668    533.630    470.668    475.807    470.668
105.970    574.000    544.594     29.406    470.467    539.482    470.467    475.560    470.467
106.070    527.000    551.558    -24.558    470.268    546.483    470.268    475.322    470.268
106.170    543.422    559.717    -16.295    470.069    554.669    470.069    475.093    470.069
106.270    601.000    569.057     31.943    469.872    564.030    469.872    474.872    469.872
106.370    607.000    579.508     27.492    469.677    574.493    469.677    474.659    469.677
106.470    558.369    590.929    -32.560    469.482    585.921    469.482    474.455    469.482
106.570    602.000    603.115     -1.115    469.289    598.107    469.289    474.259    469.289
106.670    595.000    615.786    -20.786    469.098    610.772    469.098    474.070    469.098
106.770    569.000    628.600    -59.600    468.908    623.576    468.908    473.886    468.908
106.870    610.000    641.164    -31.164    468.719    636.127    468.719    473.708    468.719
106.970    695.776    653.056     42.720    468.532    647.997    468.532    473.542    468.532
107.070    714.040    663.835     50.205    468.346    658.748    468.346    473.383    468.346
107.170    695.519    673.091     22.428    468.162    667.972    468.162    473.232    468.162
107.270    600.000    680.490    -80.490    467.980    675.333    467.980    473.089    467.980
107.370    620.000    685.826    -65.826    467.799    680.626    467.799    472.953    467.799
107.470    657.000    689.066    -32.066    467.620    683.819    467.620    472.824    467.620
107.570    685.036    690.364     -5.328    467.442    685.064    467.442    472.704    467.442
107.670    657.542    690.035    -32.493    467.266    684.677    467.266    472.591    467.266
107.770    738.805    688.506     50.299    467.092    683.089    467.092    472.481    467.092
107.870    670.000    686.257    -16.257    466.920    680.776    466.920    472.376    466.920
107.970    648.000    683.760    -35.760    466.749    678.203    466.749    472.287    466.749
108.070    681.789    681.412      0.376    466.581    675.771    466.581    472.208    466.581
108.170    729.949    679.522     50.427    466.414    673.788    466.414    472.137    466.414
108.270    690.000    678.282     11.718    466.249    672.449    466.249    472.076    466.249
108.370    646.026    677.760    -31.734    466.086    671.820    466.086    472.024    466.086
108.470    674.000    677.894     -3.894    465.925    671.839    465.925    471.982    465.925
108.570    658.000    678.500    -20.500    465.767    672.322    465.767    471.950    465.767
108.670    675.000    679.286     -4.286    465.610    672.975    465.610    471.928    465.610
108.770    706.415    679.877     26.538    465.455    673.425    465.455    471.918    465.455
108.870    633.258    679.855    -46.597    465.302    673.252    465.302    471.918    465.302
108.970    722.287    678.808     43.479    465.152    672.044    465.152    471.931    465.152
109.070    704.000    676.387     27.613    465.003    669.451    465.003    471.957    465.003
109.170    694.763    672.358     22.405    464.857    665.239    464.857    471.996    464.857
109.270    634.000    666.633    -32.633    464.713    659.318    464.713    472.049    464.713
109.370    637.000    659.276    -22.276    464.572    651.753    464.572    472.116    464.572
109.470    666.000    650.480     15.520    464.433    642.735    464.433    472.199    464.433
109.570    601.000    640.531    -39.531    464.296    632.549    464.296    472.299    464.296
109.670    627.000    629.760     -2.760    464.161    621.525    464.161    472.416    464.161
109.770    597.000    618.484    -21.484    464.029    609.980    464.029    472.552    464.029
109.870    612.000    607.121      4.879    463.899    598.330    463.899    472.708    463.899
109.970    602.000    595.956      6.044    463.772    586.859    463.772    472.886    463.772
110.070    647.000    585.257     61.743    463.648    575.832    463.648    473.087    463.648
110.170    546.000    575.252    -29.252    463.526    565.477    463.526    473.314    463.526
110.270    555.351    566.120    -10.770    463.406    555.969    463.406    473.568    463.406
110.370    568.309    557.987     10.322    463.290    547.432    463.290    473.854    463.290
110.470    522.712    550.928    -28.216    463.176    539.937    463.176    474.174    463.176
110.570    579.000    544.976     34.024    463.064    533.512    463.064    474.533    463.064
110.670    579.554    540.120     39.434    462.956    528.141    462.956    474.938    462.956
110.770    561.000    536.323     24.677    462.850    523.780    462.850    475.395    462.850
110.870    514.743    533.521    -18.778    462.747    520.356    462.747    475.912    462.747
110.970    525.451    531.638     -6.186    462.647    517.781    462.647    476.503    462.647
111.070    536.000    530.591      5.409    462.550    515.958    462.550    477.180    462.550
111.170    499.511    530.297    -30.786    462.456    514.788    462.456    477.962    462.456
111.270    535.348    530.682      4.666    462.365    514.172    462.365    478.871    462.365
111.370    541.000    531.681      9.319    462.277    514.017    462.277    479.935    462.277
111.470    557.289    533.242     24.047    462.192    514.240    462.192    481.187    462.192
111.570    511.000    535.334    -24.334    462.110    514.766    462.110    482.670    462.110
111.670    537.000    537.940     -0.940    462.031    515.532    462.031    484.432    462.031
111.770    560.000    541.068     18.932    461.955    516.484    461.955    486.532    461.955
111.870    506.000    544.744    -38.744    461.883    517.580    461.883    489.038    461.883
111.970    528.000    549.015    -21.015    461.814    518.789    461.814    492.031    461.814
112.070    565.000    553.953     11.047    461.748    520.093    461.748    495.599    461.748
112.170    528.000    559.647    -31.647    461.686    521.482    461.686    499.841    461.686
112.270    581.000    566.210     14.790    461.627    522.960    461.627    504.867    461.627
112.370    618.000    573.769     44.231    461.571    524.538    461.571    510.792    461.571
112.470    593.000    582.464     10.536    461.519    526.237    461.519    517.736    461.519
112.570    553.959    592.447    -38.488    461.470    528.085    461.470    525.821    461.470
112.670    605.000    603.871      1.129    461.425    530.119    461.425    535.165    461.425
112.770    647.000    616.891     30.109    461.384    532.387    461.384    545.876    461.384
112.870    668.262    631.659     36.603    461.346    534.945    461.346    558.048    461.346
112.970    665.000    648.321     16.679    461.312    537.868    461.312    571.752    461.312
113.070    652.000    667.014    -15.014    461.282    541.251    461.282    587.030    461.282
113.170    678.000    687.870     -9.870    461.255    545.219    461.255    603.891    461.255
113.270    736.000    711.016     24.984    461.233    549.936    461.233    622.296    461.233
113.370    732.000    736.583     -4.583    461.214    555.618    461.214    642.160    461.214
113.470    786.000    764.713     21.287    461.199    562.551    461.199    663.340    461.199
113.570    814.000    795.580     18.420    461.188    571.110    461.188    685.634    461.188
113.670    787.597    829.401    -41.804    461.181    581.781    461.181    708.774    461.181
113.770    884.000    866.467     17.533    461.178    595.190    461.178    732.424    461.178
113.870    968.634    907.163     61.471    461.179    612.128    461.179    756.177    461.179
113.970    972.000    951.999     20.001    461.184    633.584    461.184    779.554    461.184
114.070   1026.000   1001.643     24.357    461.194    660.776    461.194    802.008    461.194
114.170   1015.613   1056.956    -41.343    461.207    695.169    461.207    822.930    461.207
114.270   1221.000   1119.023    101.977    461.225    738.502    461.225    841.669    461.225
114.370   1123.830   1189.196    -65.367    461.248    792.788    461.248    857.561    461.248
114.470   1258.000   1269.129    -11.129    461.274    860.313    461.274    869.975    461.274
114.570   1372.687   1360.803     11.883    461.305    943.599    461.305    878.370    461.305
114.670   1499.000   1466.536     32.464    461.341   1045.356    461.341    882.352    461.341
114.770   1552.791   1588.948    -36.157    461.381   1168.398    461.381    881.728    461.381
114.870   1777.000   1730.873     46.127    461.425   1315.526    461.425    876.532    461.425
114.970   1886.908   1895.213     -8.305    461.474   1489.386    461.474    867.017    461.474
115.070   2169.000   2084.725     84.275    461.528   1692.297    461.528    853.625    461.528
115.170   2429.000   2301.779    127.221    461.587   1926.053    461.587    836.930    461.587
115.270   2478.692   2548.079    -69.386    461.650   2191.717    461.650    817.577    461.650
115.370   2796.879   2824.408    -27.529    461.718   2489.407    461.718    796.231    461.718
115.470   3168.000   3130.386     37.614    461.790   2818.105    461.790    773.531    461.790
115.570   3304.000   3464.278   -160.278    461.868   3175.486    461.868    750.071    461.868
115.670   3904.815   3822.851     81.964    461.951   3557.789    461.951    726.379    461.951
115.770   3946.000   4201.301   -255.301    462.038   3959.755    462.038    702.913    462.038
115.870   4517.000   4593.244    -76.244    462.131   4374.616    462.131    680.061    462.131
115.970   4875.000   4990.788   -115.788    462.229   4794.165    462.229    658.140    462.229
116.070   5298.000   5384.671    -86.671    462.332   5208.894    462.332    637.397    462.332
116.170   5500.000   5764.494   -264.494    462.440   5608.221    462.440    618.018    462.440
116.270   6116.000   6119.033     -3.033    462.553   5980.796    462.553    600.128    462.553
116.370   6372.000   6436.660    -64.660    462.671   6314.923    462.671    583.800    462.671
116.470   6887.000   6705.904    181.096    462.795   6599.105    462.795    569.057    462.795
116.570   6910.226   6916.144     -5.918    462.924   6822.736    462.924    555.882    462.924
116.670   7092.004   7058.413     33.592    463.059   6976.900    463.059    544.222    463.059
116.770   7212.000   7126.214     85.786    463.199   7055.174    463.199    534.001    463.199
116.870   7208.000   7116.265     91.735    463.345   7054.368    463.345    525.119    463.345
116.970   6875.766   7028.808   -153.042    463.496   6974.832    463.496    517.464    463.496
117.070   7053.000   6867.568    185.432    463.653   6820.404    463.653    510.919    463.653
117.170   6584.000   6639.334    -55.334    463.816   6597.989    463.816    505.360    463.816
117.270   6338.000   6353.222    -15.222    463.984   6316.821    463.984    500.669    463.984
117.370   5864.000   6019.857   -155.857    464.158   5987.636    464.158    496.732    464.158
117.470   5412.000   5650.585   -238.585    464.338   5621.885    464.338    493.443    464.338
117.570   5147.000   5256.821   -109.821    464.524   5231.079    464.524    490.706    464.524
117.670   4775.000   4849.529    -74.529    464.716   4826.271    464.716    488.433    464.716
117.770   4445.887   4438.836      7.052    464.913   4417.663    464.913    486.550    464.913
117.870   4210.000   4033.739    176.261    465.117   4014.322    465.117    484.990    465.117
117.970   3886.000   3641.913    244.087    465.327   3623.979    465.327    483.697    465.327
118.070   3345.000   3269.591     75.409    465.544   3252.917    465.544    482.625    465.544
118.170   3106.000   2921.530    184.470    465.766   2905.934    465.766    481.734    465.766
118.270   2621.549   2601.042     20.507    465.995   2586.377    465.995    480.993    465.995
118.370   2324.000   2310.096     13.904    466.230   2296.243    466.230    480.376    466.230
118.470   2114.000   2049.459     64.541    466.471   2036.320    466.471    479.862    466.471
118.570   1807.000   1818.873    -11.873    466.719   1806.370    466.719    479.434    466.719
118.670   1631.348   1617.251     14.096    466.973   1605.321    466.973    479.079    466.973
118.770   1441.840   1442.868     -1.028    467.234   1431.458    467.234    478.786    467.234
118.870   1278.000   1293.555    -15.555    467.502   1282.620    467.502    478.547    467.502
118.970   1135.000   1166.867    -31.867    467.776   1156.371    467.776    478.356    467.776
119.070    993.000   1060.241    -67.241    468.057   1050.153    468.057    478.208    468.057
119.170    980.000    971.121      8.879    468.345    961.413    468.345    478.098    468.345
119.270    902.000    897.058      4.942    468.639    887.705    468.639    478.023    468.639
119.370    820.000    835.780    -15.780    468.941    826.760    468.941    477.981    468.941
119.470    725.000    785.238    -60.238    469.249    776.530    469.249    477.970    469.249
119.570    720.000    743.628    -23.628    469.565    735.211    469.565    477.988    469.565
119.670    669.000    709.395    -40.395    469.887    701.251    469.887    478.035    469.887
119.770    651.000    681.224    -30.224    470.217    673.334    470.217    478.108    470.217
119.870    666.014    658.019      7.995    470.554    650.364    470.554    478.208    470.554
119.970    611.000    638.882    -27.882    470.898    631.445    470.898    478.334    470.898
120.070    620.246    623.085     -2.839    471.250    615.847    471.250    478.487    471.250
120.170    580.000    610.043    -30.043    471.608    602.986    471.608    478.665    471.608
120.270    573.222    599.292    -26.070    471.975    592.396    471.975    478.870    471.975
120.370    561.847    590.465    -28.618    472.348    583.712    472.348    479.102    472.348
120.470    578.000    583.274     -5.274    472.730    576.644    472.730    479.361    472.730
120.570    588.000    577.493     10.507    473.118    570.965    473.118    479.648    473.118
120.670    580.000    572.946      7.054    473.515    566.500    473.515    479.964    473.515
120.770    558.000    569.497    -11.497    473.919    563.110    473.919    480.310    473.919
120.870    540.000    567.039    -27.039    474.331    560.688    474.331    480.687    474.331
120.970    543.000    565.486    -22.486    474.751    559.147    474.751    481.095    474.751
121.070    520.848    564.772    -43.924    475.179    558.421    475.179    481.536    475.179
121.170    514.000    564.840    -50.840    475.615    558.451    475.615    482.011    475.615
121.270    566.000    565.643      0.357    476.059    559.190    476.059    482.520    476.059
121.370    539.000    567.135    -28.135    476.511    560.592    476.511    483.063    476.511
121.470    594.000    569.271     24.729    476.971    562.611    476.971    483.642    476.971
121.570    587.372    572.004     15.368    477.440    565.201    477.440    484.255    477.440
121.670    551.000    575.282    -24.282    477.916    568.310    477.916    484.903    477.916
121.770    567.957    579.045    -11.088    478.401    571.878    478.401    485.585    478.401
121.870    606.000    583.226     22.774    478.895    575.841    478.895    486.299    478.895
121.970    618.000    587.746     30.254    479.397    580.121    479.397    487.044    479.397
122.070    584.801    592.520     -7.719    479.907    584.635    479.907    487.816    479.907
122.170    591.050    597.451     -6.401    480.427    589.291    480.427    488.614    480.427
122.270    611.000    602.434      8.566    480.954    593.985    480.954    489.433    480.954
122.370    588.000    607.357    -19.357    481.491    598.611    481.491    490.270    481.491
122.470    600.000    612.100    -12.100    482.036    603.054    482.036    491.118    482.036
122.570    638.000    616.544     21.456    482.591    607.199    482.591    491.973    482.591
122.670    615.000    620.567     -5.567    483.154    610.933    483.154    492.828    483.154
122.770    661.000    624.058     36.942    483.726    614.149    483.726    493.677    483.726
122.870    596.449    626.914    -30.465    484.307    616.754    484.307    494.512    484.307
122.970    612.000    629.052    -17.052    484.898    618.670    484.898    495.326    484.898
123.070    634.276    630.413      3.864    485.497    619.846    485.497    496.111    485.497
123.170    655.069    630.962     24.107    486.106    620.256    486.106    496.860    486.106
123.270    603.000    630.696    -27.696    486.725    619.902    486.725    497.567    486.725
123.370    662.000    629.636     32.364    487.352    618.810    487.352    498.226    487.352
123.470    598.823    627.828    -29.006    487.989    617.029    487.989    498.835    487.989
123.570    613.715    625.337    -11.622    488.636    614.626    488.636    499.392    488.636
123.670    644.000    622.241     21.759    489.293    611.677    489.293    499.899    489.293
123.770    601.000    618.626    -17.626    489.959    608.267    489.959    500.359    489.959
123.870    634.000    614.583     19.417    490.634    604.482    490.634    500.773    490.634
123.970    618.000    610.210      7.790    491.320    600.411    491.320    501.155    491.320
124.070    593.402    605.597    -12.195    492.015    596.138    492.015    501.507    492.015
124.170    624.860    600.832     24.027    492.721    591.744    492.721    501.839    492.721
124.270    609.000    595.996     13.004    493.436    587.302    493.436    502.157    493.436
124.370    610.039    591.160     18.879    494.162    582.877    494.162    502.468    494.162
124.470    610.000    586.387     23.613    494.898    578.527    494.898    502.779    494.898
124.570    634.000    581.731     52.269    495.644    574.296    495.644    503.097    495.644
124.670    539.688    577.234    -37.545    496.400    570.223    496.400    503.427    496.400
124.770    550.000    572.928    -22.928    497.167    566.335    497.167    503.773    497.167
124.870    595.000    568.839     26.161    497.944    562.654    497.944    504.140    497.944
124.970    582.000    564.983     17.017    498.732    559.192    498.732    504.532    498.732
