neutron_powder_diffraction_0194
R_wp: 4.043
Temperature (K): 1074.100
Counts: 83725.00
Wavelength (Ã…): 2.52098
COMMENTS
Test file for demonstrating the .xyy file format in Reel1.0
END OF HEADER
   tth       Y_obs     Y_calc      Y_res    Background    Phase_1_Nuc    Phase_1_Mag    Phase_2_Nuc    Phase_2_Mag
  9.970    607.360    568.625     38.736    567.968    568.565    567.968    568.027    567.968
 10.070    582.000    568.741     13.259    568.030    568.681    568.030    568.089    568.030
 10.170    582.644    568.875     13.769    568.086    568.815    568.086    568.145    568.086
 10.270    593.000    569.000     24.000    568.137    568.939    568.137    568.197    568.137
 10.370    532.462    569.128    -36.666    568.182    569.067    568.182    568.243    568.182
 10.470    588.362    569.265     19.097    568.223    569.203    568.223    568.284    568.223
 10.570    562.000    569.414     -7.414    568.259    569.352    568.259    568.320    568.259
 10.670    558.893    569.581    -10.687    568.290    569.518    568.290    568.351    568.290
 10.770    593.000    569.770     23.230    568.315    569.707    568.315    568.377    568.315
 10.870    573.000    569.991      3.009    568.336    569.928    568.336    568.399    568.336
 10.970    588.000    570.255     17.745    568.353    570.192    568.353    568.415    568.353
 11.070    616.000    570.579     45.421    568.364    570.515    568.364    568.427    568.364
 11.170    570.000    570.986     -0.986    568.371    570.922    568.371    568.434    568.371
 11.270    614.725    571.515     43.210    568.372    571.450    568.372    568.436    568.372
 11.370    540.782    572.229    -31.447    568.370    572.163    568.370    568.433    568.370
 11.470    599.064    573.267     25.797    568.362    573.201    568.362    568.426    568.362
 11.570    565.000    575.021    -10.021    568.351    574.953    568.351    568.415    568.351
 11.670    607.720    578.627     29.092    568.334    578.557    568.334    568.399    568.334
 11.770    547.149    586.799    -39.650    568.314    586.724    568.314    568.378    568.314
 11.870    598.000    604.017     -6.017    568.288    603.932    568.288    568.353    568.288
 11.970    602.141    633.883    -31.741    568.259    633.780    568.259    568.324    568.259
 12.070    635.618    672.627    -37.009    568.225    672.502    568.225    568.291    568.225
 12.170    656.000    703.211    -47.211    568.187    703.069    568.187    568.253    568.187
 12.270    687.000    704.165    -17.165    568.145    704.021    568.145    568.211    568.145
 12.370    678.000    674.585      3.415    568.098    674.458    568.098    568.165    568.098
 12.470    646.358    635.572     10.786    568.048    635.467    568.048    568.114    568.048
 12.570    577.217    604.931    -27.714    567.993    604.843    567.993    568.060    567.993
 12.670    597.484    587.029     10.455    567.934    586.950    567.934    568.002    567.934
 12.770    545.000    578.442    -33.442    567.871    578.366    567.871    567.941    567.871
 12.870    602.209    574.613     27.595    567.805    574.540    567.805    567.875    567.805
 12.970    558.000    572.727    -14.727    567.734    572.654    567.734    567.804    567.734
 13.070    559.334    571.587    -12.254    567.659    571.514    567.659    567.730    567.659
 13.170    601.229    570.783     30.446    567.581    570.710    567.581    567.652    567.581
 13.270    530.461    570.169    -39.707    567.499    570.096    567.499    567.570    567.499
 13.370    576.006    569.679      6.326    567.413    569.606    567.413    567.485    567.413
 13.470    591.000    569.276     21.724    567.324    569.203    567.324    567.396    567.324
 13.570    559.311    568.935     -9.623    567.231    568.861    567.231    567.303    567.231
 13.670    544.000    568.638    -24.638    567.134    568.565    567.134    567.206    567.134
 13.770    569.176    568.375      0.800    567.033    568.301    567.033    567.106    567.033
 13.870    530.268    568.137    -37.869    566.929    568.063    566.929    567.003    566.929
 13.970    603.988    567.918     36.071    566.822    567.843    566.822    566.896    566.822
 14.070    532.764    567.713    -34.948    566.711    567.638    566.711    566.786    566.711
 14.170    540.129    567.518    -27.389    566.597    567.443    566.597    566.672    566.597
 14.270    592.920    567.332     25.588    566.479    567.257    566.479    566.554    566.479
 14.370    550.000    567.152    -17.152    566.359    567.076    566.359    566.434    566.359
 14.470    556.000    566.977    -10.977    566.234    566.901    566.234    566.310    566.234
 14.570    561.000    566.805     -5.805    566.107    566.728    566.107    566.183    566.107
 14.670    576.143    566.635      9.508    565.976    566.558    565.976    566.053    565.976
 14.770    529.000    566.468    -37.468    565.842    566.390    565.842    565.920    565.842
 14.870    557.000    566.303     -9.303    565.706    566.226    565.706    565.783    565.706
 14.970    585.143    566.138     19.005    565.566    566.060    565.566    565.643    565.566
 15.070    592.737    565.971     26.766    565.422    565.893    565.422    565.501    565.422
 15.170    552.000    565.804    -13.804    565.276    565.725    565.276    565.355    565.276
 15.270    551.000    565.637    -14.637    565.127    565.557    565.127    565.207    565.127
 15.370    570.000    565.469      4.531    564.975    565.389    564.975    565.055    564.975
 15.470    560.000    565.301     -5.301    564.821    565.220    564.821    564.901    564.821
 15.570    549.000    565.130    -16.130    564.663    565.049    564.663    564.744    564.663
 15.670    525.142    564.957    -39.816    564.502    564.876    564.502    564.584    564.502
 15.770    602.000    564.788     37.212    564.339    564.701    564.339    564.426    564.339
 15.870    594.229    564.614     29.615    564.173    564.525    564.173    564.262    564.173
 15.970    574.000    564.437      9.563    564.004    564.347    564.004    564.094    564.004
 16.070    520.000    564.257    -44.257    563.833    564.168    563.833    563.923    563.833
 16.170    557.000    564.077     -7.077    563.659    563.986    563.659    563.749    563.659
 16.270    578.000    563.894     14.106    563.482    563.803    563.482    563.573    563.482
 16.370    575.000    563.709     11.291    563.303    563.618    563.303    563.395    563.303
 16.470    555.000    563.523     -8.523    563.122    563.431    563.122    563.214    563.122
 16.570    608.000    563.334     44.666    562.938    563.242    562.938    563.030    562.938
 16.670    532.000    563.144    -31.144    562.751    563.051    562.751    562.844    562.751
 16.770    546.000    562.952    -16.952    562.562    562.858    562.562    562.656    562.562
 16.870    575.154    562.758     12.396    562.371    562.664    562.371    562.465    562.371
 16.970    561.699    562.562     -0.863    562.177    562.467    562.177    562.272    562.177
 17.070    533.000    562.364    -29.364    561.981    562.269    561.981    562.076    561.981
 17.170    523.000    562.165    -39.165    561.783    562.068    561.783    561.879    561.783
 17.270    525.000    561.963    -36.963    561.582    561.867    561.582    561.679    561.582
 17.370    584.000    561.760     22.240    561.380    561.663    561.380    561.477    561.380
 17.470    550.000    561.557    -11.557    561.175    561.459    561.175    561.273    561.175
 17.570    534.000    561.351    -27.351    560.968    561.252    560.968    561.066    560.968
 17.670    507.000    561.142    -54.142    560.759    561.043    560.759    560.858    560.759
 17.770    573.230    560.931     12.298    560.548    560.832    560.548    560.647    560.548
 17.870    518.438    560.719    -42.281    560.334    560.619    560.334    560.435    560.334
 17.970    523.344    560.505    -37.161    560.119    560.404    560.119    560.221    560.119
 18.070    547.542    560.290    -12.748    559.902    560.188    559.902    560.004    559.902
 18.170    524.394    560.072    -35.678    559.683    559.970    559.683    559.786    559.683
 18.270    592.557    559.853     32.703    559.462    559.750    559.462    559.566    559.462
 18.370    559.991    559.633      0.358    559.239    559.529    559.239    559.344    559.239
 18.470    535.000    559.411    -24.411    559.015    559.306    559.015    559.120    559.015
 18.570    569.000    559.188      9.812    558.788    559.082    558.788    558.894    558.788
 18.670    601.000    558.963     42.037    558.560    558.857    558.560    558.667    558.560
 18.770    552.000    558.737     -6.737    558.330    558.630    558.330    558.438    558.330
 18.870    608.000    558.510     49.490    558.099    558.402    558.099    558.207    558.099
 18.970    577.000    558.282     18.718    557.865    558.173    557.865    557.974    557.865
 19.070    525.000    558.051    -33.051    557.631    557.941    557.631    557.740    557.631
 19.170    541.860    557.819    -15.959    557.394    557.709    557.394    557.505    557.394
 19.270    546.000    557.586    -11.586    557.156    557.474    557.156    557.267    557.156
 19.370    582.000    557.352     24.648    556.916    557.239    556.916    557.029    556.916
 19.470    599.000    557.116     41.884    556.675    557.003    556.675    556.789    556.675
 19.570    539.000    556.879    -17.879    556.433    556.765    556.433    556.547    556.433
 19.670    513.496    556.641    -43.146    556.188    556.526    556.188    556.304    556.188
 19.770    576.000    556.402     19.598    555.943    556.286    555.943    556.059    555.943
 19.870    597.238    556.162     41.076    555.696    556.045    555.696    555.813    555.696
 19.970    586.468    555.923     30.545    555.448    555.804    555.448    555.566    555.448
 20.070    551.000    555.694     -4.694    555.198    555.575    555.198    555.318    555.198
 20.170    507.552    555.461    -47.910    554.947    555.341    554.947    555.068    554.947
 20.270    546.704    555.219     -8.515    554.695    555.097    554.695    554.817    554.695
 20.370    584.000    554.975     29.025    554.442    554.852    554.442    554.565    554.442
 20.470    549.000    554.732     -5.732    554.187    554.606    554.187    554.313    554.187
 20.570    598.619    554.488     44.131    553.931    554.360    553.931    554.060    553.931
 20.670    535.000    554.242    -19.242    553.674    554.112    553.674    553.804    553.674
 20.770    538.000    553.996    -15.996    553.416    553.865    553.416    553.547    553.416
 20.870    494.000    553.749    -59.749    553.157    553.617    553.157    553.289    553.157
 20.970    584.000    553.502     30.498    552.897    553.368    552.897    553.030    552.897
 21.070    580.483    553.254     27.228    552.636    553.120    552.636    552.770    552.636
 21.170    599.410    553.007     46.403    552.373    552.871    552.373    552.509    552.373
 21.270    595.000    552.760     42.240    552.110    552.622    552.110    552.248    552.110
 21.370    531.275    552.521    -21.246    551.846    552.382    551.846    551.985    551.846
 21.470    574.507    552.357     22.150    551.580    552.216    551.580    551.721    551.580
 21.570    596.197    552.132     44.065    551.314    551.990    551.314    551.456    551.314
 21.670    579.094    551.888     27.207    551.047    551.744    551.047    551.191    551.047
 21.770    553.000    551.642      1.358    550.779    551.497    550.779    550.925    550.779
 21.870    582.000    551.398     30.602    550.511    551.251    550.511    550.658    550.511
 21.970    535.000    551.156    -16.156    550.241    551.007    550.241    550.390    550.241
 22.070    544.000    550.916     -6.916    549.971    550.765    549.971    550.122    549.971
 22.170    553.000    550.697      2.303    549.700    550.545    549.700    549.853    549.700
 22.270    525.000    550.487    -25.487    549.428    550.333    549.428    549.583    549.428
 22.370    564.020    550.258     13.762    549.156    550.101    549.156    549.312    549.156
 22.470    552.000    550.031      1.969    548.883    549.872    548.883    549.041    548.883
 22.570    538.510    549.804    -11.294    548.609    549.643    548.609    548.770    548.609
 22.670    504.984    549.586    -44.603    548.334    549.423    548.334    548.497    548.334
 22.770    555.000    549.414      5.586    548.059    549.249    548.059    548.225    548.059
 22.870    559.260    549.223     10.038    547.784    549.055    547.784    547.951    547.784
 22.970    535.000    549.024    -14.024    547.508    548.854    547.508    547.678    547.508
 23.070    532.950    548.835    -15.885    547.231    548.663    547.231    547.404    547.231
 23.170    563.000    548.662     14.338    546.954    548.487    546.954    547.129    546.954
 23.270    503.232    548.503    -45.270    546.676    548.325    546.676    546.854    546.676
 23.370    568.000    548.365     19.635    546.398    548.184    546.398    546.579    546.398
 23.470    539.559    548.255     -8.696    546.119    548.072    546.119    546.304    546.119
 23.570    504.935    548.182    -43.247    545.840    547.995    545.840    546.028    545.840
 23.670    530.000    548.158    -18.158    545.561    547.968    545.561    545.752    545.561
 23.770    547.000    548.202     -1.202    545.281    548.009    545.281    545.475    545.281
 23.870    570.000    548.343     21.657    545.001    548.147    545.001    545.199    545.001
 23.970    504.592    548.636    -44.044    544.721    548.436    544.721    544.922    544.721
 24.070    549.000    549.207     -0.207    544.440    549.004    544.440    544.646    544.440
 24.170    571.000    550.423     20.577    544.159    550.217    544.159    544.369    544.159
 24.270    515.000    553.262    -38.262    543.878    553.054    543.878    544.092    543.878
 24.370    551.000    559.775     -8.775    543.597    559.567    543.597    543.815    543.597
 24.470    614.000    572.792     41.208    543.315    572.589    543.315    543.538    543.315
 24.570    585.638    593.694     -8.056    543.034    593.501    543.034    543.262    543.034
 24.670    577.000    618.360    -41.360    542.752    618.179    542.752    542.985    542.752
 24.770    593.000    634.669    -41.669    542.469    634.494    542.469    542.709    542.469
 24.870    614.000    630.688    -16.688    542.187    630.505    542.187    542.432    542.187
 24.970    576.000    609.661    -33.661    541.905    609.457    541.905    542.156    541.905
 25.070    559.056    585.007    -25.950    541.623    584.778    541.623    541.881    541.623
 25.170    557.000    566.198     -9.198    541.340    565.950    541.340    541.605    541.340
 25.270    519.000    555.096    -36.096    541.058    554.832    541.058    541.330    541.058
 25.370    576.000    549.567     26.433    540.775    549.291    540.775    541.056    540.775
 25.470    577.009    546.929     30.080    540.493    546.643    540.493    540.782    540.493
 25.570    622.000    545.516     76.484    540.210    545.220    540.210    540.509    540.210
 25.670    588.099    544.606     43.494    539.928    544.299    539.928    540.236    539.928
 25.770    521.000    543.931    -22.931    539.646    543.614    539.646    539.964    539.646
 25.870    540.000    543.401     -3.401    539.363    543.072    539.363    539.694    539.363
 25.970    542.000    542.971     -0.971    539.081    542.629    539.081    539.424    539.081
 26.070    553.837    542.610     11.227    538.799    542.255    538.799    539.155    538.799
 26.170    587.000    542.310     44.690    538.517    541.941    538.517    538.887    538.517
 26.270    552.000    542.063      9.937    538.236    541.678    538.236    538.621    538.236
 26.370    522.000    541.865    -19.865    537.954    541.463    537.954    538.356    537.954
 26.470    525.828    541.715    -15.887    537.673    541.295    537.673    538.093    537.673
 26.570    636.000    541.617     94.383    537.392    541.176    537.392    537.832    537.392
 26.670    545.451    541.598      3.853    537.111    541.135    537.111    537.573    537.111
 26.770    535.000    541.639     -6.639    536.830    541.152    536.830    537.317    536.830
 26.870    537.000    541.739     -4.739    536.550    541.225    536.550    537.063    536.550
 26.970    496.605    541.938    -45.333    536.270    541.395    536.270    536.813    536.270
 27.070    581.630    542.244     39.386    535.990    541.668    535.990    536.566    535.990
 27.170    500.000    542.694    -42.694    535.710    542.081    535.710    536.323    535.710
 27.270    583.000    543.348     39.652    535.431    542.694    535.431    536.085    535.431
 27.370    535.000    544.289     -9.289    535.153    543.588    535.153    535.853    535.153
 27.470    567.000    545.675     21.325    534.874    544.921    534.874    535.627    534.874
 27.570    564.000    547.896     16.104    534.596    547.082    534.596    535.408    534.596
 27.670    600.722    552.295     48.427    534.319    551.411    534.319    535.199    534.319
 27.770    607.000    563.563     43.437    534.042    562.596    534.042    535.001    534.042
 27.870    595.000    593.531      1.469    533.765    592.464    533.765    534.816    533.765
 27.970    692.000    660.555     31.445    533.489    659.359    533.489    534.646    533.489
 28.070    740.557    772.666    -32.109    533.213    771.313    533.213    534.496    533.213
 28.170    864.000    897.984    -33.984    532.938    896.454    532.938    534.371    532.938
 28.270    922.000    959.728    -37.728    532.663    958.021    532.663    534.276    532.663
 28.370    908.000    907.357      0.643    532.389    905.466    532.389    534.221    532.389
 28.470    821.729    794.621     27.108    532.116    792.493    532.116    534.220    532.116
 28.570    693.000    707.552    -14.552    531.842    705.090    531.842    534.294    531.842
 28.670    710.027    690.594     19.433    531.570    687.670    531.570    534.481    531.570
 28.770    747.000    738.768      8.232    531.298    735.207    531.298    534.840    531.298
 28.870    814.000    810.707      3.293    531.027    806.248    531.027    535.473    531.027
 28.970    840.179    844.806     -4.626    530.756    839.037    530.756    536.529    530.756
 29.070    818.485    804.756     13.729    530.486    797.055    530.486    538.201    530.486
 29.170    686.000    722.519    -36.519    530.217    712.048    530.217    540.701    530.217
 29.270    665.145    647.418     17.727    529.948    633.185    529.948    544.189    529.948
 29.370    609.000    601.564      7.436    529.680    582.604    529.680    548.643    529.680
 29.470    637.000    581.748     55.252    529.413    557.545    529.413    553.615    529.413
 29.570    646.000    575.647     70.353    529.146    546.880    529.146    557.912    529.146
 29.670    632.000    573.071     58.929    528.880    542.228    528.880    559.722    528.880
 29.770    623.000    569.093     53.907    528.615    539.746    528.615    557.961    528.615
 29.870    602.000    563.233     38.767    528.350    538.132    528.350    553.450    528.350
 29.970    578.000    556.889     21.111    528.087    536.997    528.087    547.978    528.087
 30.070    554.699    551.257      3.442    527.824    536.216    527.824    542.864    527.824
 30.170    550.164    546.869      3.295    527.562    535.762    527.562    538.667    527.562
 30.270    551.905    543.908      7.996    527.300    535.737    527.300    535.469    527.300
 30.370    638.000    542.663     95.337    527.040    536.567    527.040    533.132    527.040
 30.470    540.000    544.080     -4.080    526.780    539.404    526.780    531.450    526.780
 30.570    561.000    550.159     10.841    526.521    546.445    526.521    530.223    526.521
 30.670    585.000    563.214     21.786    526.263    560.162    526.263    529.293    526.263
 30.770    598.228    583.157     15.072    526.006    580.573    526.006    528.552    526.006
 30.870    609.700    603.980      5.720    525.750    601.745    525.750    527.933    525.750
 30.970    663.000    613.496     49.504    525.495    611.540    525.495    527.395    525.495
 31.070    544.000    603.658    -59.658    525.240    601.939    525.240    526.914    525.240
 31.170    621.151    581.928     39.223    524.987    580.410    524.987    526.476    524.987
 31.270    565.000    560.485      4.515    524.734    559.133    524.734    526.070    524.734
 31.370    500.921    545.583    -44.662    524.483    544.367    524.483    525.691    524.483
 31.470    531.758    537.417     -5.659    524.232    536.313    524.232    525.332    524.232
 31.570    489.204    533.560    -44.356    523.982    532.550    523.982    524.990    523.982
 31.670    538.000    531.760      6.240    523.733    530.830    523.733    524.662    523.733
 31.770    497.599    530.792    -33.193    523.486    529.930    523.486    524.346    523.486
 31.870    569.000    530.171     38.829    523.239    529.369    523.239    524.040    523.239
 31.970    513.000    529.739    -16.739    522.993    528.989    522.993    523.742    522.993
 32.070    549.000    529.436     19.564    522.748    528.732    522.748    523.452    522.748
 32.170    559.000    529.242     29.758    522.504    528.578    522.504    523.168    522.504
 32.270    544.000    529.150     14.850    522.262    528.522    522.262    522.889    522.262
 32.370    575.000    529.162     45.838    522.020    528.565    522.020    522.616    522.020
 32.470    486.640    529.285    -42.645    521.779    528.716    521.779    522.347    521.779
 32.570    569.294    529.535     39.760    521.540    528.992    521.540    522.082    521.540
 32.670    581.000    529.936     51.064    521.301    529.415    521.301    521.821    521.301
 32.770    562.000    530.524     31.476    521.064    530.024    521.064    521.563    521.064
 32.870    550.802    531.352     19.450    520.828    530.871    520.828    521.308    520.828
 32.970    538.261    532.498      5.763    520.593    532.033    520.593    521.056    520.593
 33.070    530.358    534.083     -3.725    520.359    533.633    520.359    520.807    520.359
 33.170    525.000    536.323    -11.323    520.126    535.886    520.126    520.560    520.126
 33.270    497.000    539.721    -42.721    519.894    539.296    519.894    520.316    519.894
 33.370    500.500    545.668    -45.168    519.663    545.254    519.663    520.074    519.663
 33.470    519.081    557.923    -38.842    519.434    557.517    519.434    519.834    519.434
 33.570    580.000    584.858     -4.858    519.205    584.457    519.205    519.596    519.205
 33.670    636.463    640.058     -3.595    518.978    639.655    518.978    519.360    518.978
 33.770    724.000    736.224    -12.224    518.752    735.813    518.752    519.126    518.752
 33.870    873.000    869.960      3.040    518.527    869.538    518.527    518.894    518.527
 33.970    964.152   1004.627    -40.475    518.304   1004.201    518.304    518.664    518.304
 34.070   1088.395   1070.694     17.701    518.081   1070.284    518.081    518.435    518.081
 34.170   1071.000   1021.053     49.947    517.860   1020.676    517.860    518.208    517.860
 34.270    885.000    892.635     -7.635    517.640    892.288    517.640    517.983    517.640
 34.370    734.000    755.409    -21.409    517.421    755.079    517.421    517.760    517.421
 34.470    663.083    651.876     11.207    517.204    651.551    517.204    517.538    517.204
 34.570    559.644    589.972    -30.329    516.988    589.648    516.988    517.318    516.988
 34.670    558.000    558.647     -0.647    516.773    558.323    516.773    517.099    516.773
 34.770    537.000    543.984     -6.984    516.559    543.661    516.559    516.882    516.559
 34.870    545.000    536.735      8.265    516.346    536.415    516.346    516.667    516.346
 34.970    542.000    532.506      9.494    516.135    532.188    516.135    516.453    516.135
 35.070    553.188    529.604     23.584    515.925    529.288    515.925    516.241    515.925
 35.170    500.472    527.418    -26.945    515.716    527.104    515.716    516.030    515.716
 35.270    537.000    525.693     11.307    515.509    525.381    515.509    515.821    515.509
 35.370    490.307    524.296    -33.989    515.303    523.986    515.303    515.613    515.303
 35.470    482.000    523.141    -41.141    515.098    522.832    515.098    515.406    515.098
 35.570    533.000    522.168     10.832    514.895    521.861    514.895    515.202    514.895
 35.670    513.020    521.336     -8.316    514.693    521.030    514.693    514.998    514.693
 35.770    493.000    520.616    -27.616    514.492    520.311    514.492    514.797    514.492
 35.870    503.000    519.984    -16.984    514.292    519.680    514.292    514.596    514.292
 35.970    537.000    519.425     17.575    514.094    519.121    514.094    514.398    514.094
 36.070    504.101    518.925    -14.825    513.897    518.622    513.897    514.200    513.897
 36.170    515.000    518.477     -3.477    513.702    518.174    513.702    514.004    513.702
 36.270    520.000    518.072      1.928    513.508    517.769    513.508    513.810    513.508
 36.370    492.000    517.706    -25.706    513.315    517.404    513.315    513.617    513.315
 36.470    552.217    517.377     34.841    513.124    517.074    513.124    513.426    513.124
 36.570    521.003    517.082      3.921    512.933    516.779    512.933    513.236    512.933
 36.670    526.000    516.824      9.176    512.745    516.521    512.745    513.048    512.745
 36.770    529.000    516.608     12.392    512.558    516.304    512.558    512.861    512.558
 36.870    540.840    516.453     24.387    512.372    516.149    512.372    512.676    512.372
 36.970    509.000    516.411     -7.411    512.187    516.107    512.187    512.492    512.187
 37.070    502.413    516.606    -14.193    512.004    516.301    512.004    512.309    512.004
 37.170    528.000    517.271     10.729    511.822    516.965    511.822    512.128    511.822
 37.270    501.000    518.737    -17.737    511.642    518.430    511.642    511.949    511.642
 37.370    565.300    521.273     44.028    511.463    520.966    511.463    511.771    511.463
 37.470    555.000    524.779     30.221    511.286    524.471    511.286    511.595    511.286
 37.570    535.000    528.452      6.548    511.109    528.144    511.109    511.420    511.109
 37.670    556.229    530.768     25.461    510.935    530.460    510.935    511.247    510.935
 37.770    507.000    530.460    -23.460    510.762    530.153    510.762    511.075    510.762
 37.870    532.000    527.849      4.151    510.590    527.543    510.590    510.905    510.590
 37.970    517.000    524.311     -7.311    510.419    524.005    510.419    510.736    510.419
 38.070    506.405    520.926    -14.520    510.250    520.618    510.250    510.569    510.250
 38.170    476.812    518.134    -41.321    510.083    517.823    510.083    510.403    510.083
 38.270    512.000    516.051     -4.051    509.917    515.736    509.917    510.239    509.917
 38.370    538.000    514.617     23.383    509.752    514.297    509.752    510.076    509.752
 38.470    488.000    513.674    -25.674    509.589    513.351    509.589    509.915    509.589
 38.570    554.948    513.061     41.887    509.427    512.734    509.427    509.756    509.427
 38.670    514.022    512.648      1.374    509.267    512.318    509.267    509.598    509.267
 38.770    515.105    512.344      2.761    509.108    512.011    509.108    509.441    509.108
 38.870    494.000    512.098    -18.098    508.951    511.763    508.951    509.286    508.951
 38.970    512.000    511.885      0.115    508.795    511.547    508.795    509.133    508.795
 39.070    485.000    511.691    -26.691    508.640    511.351    508.640    508.981    508.640
 39.170    485.000    511.513    -26.513    508.487    511.169    508.487    508.831    508.487
 39.270    494.000    511.346    -17.346    508.336    511.000    508.336    508.682    508.336
 39.370    489.000    511.190    -22.190    508.186    510.840    508.186    508.535    508.186
 39.470    502.000    511.042     -9.042    508.037    510.690    508.037    508.390    508.037
 39.570    555.000    510.903     44.097    507.890    510.547    507.890    508.246    507.890
 39.670    520.000    510.772      9.228    507.744    510.413    507.744    508.104    507.744
 39.770    531.579    510.648     20.931    507.600    510.286    507.600    507.963    507.600
 39.870    542.000    510.532     31.468    507.457    510.166    507.457    507.824    507.457
 39.970    461.000    510.424    -49.424    507.316    510.054    507.316    507.686    507.316
 40.070    534.000    510.323     23.677    507.177    509.950    507.177    507.550    507.177
 40.170    529.000    510.231     18.769    507.038    509.853    507.038    507.416    507.038
 40.270    474.000    510.147    -36.147    506.902    509.766    506.902    507.283    506.902
 40.370    475.000    510.073    -35.073    506.766    509.687    506.766    507.152    506.766
 40.470    493.000    510.009    -17.009    506.633    509.619    506.633    507.023    506.633
 40.570    503.000    509.957     -6.957    506.500    509.563    506.500    506.895    506.500
 40.670    483.870    509.919    -26.049    506.369    509.520    506.369    506.769    506.369
 40.770    502.000    509.896     -7.896    506.240    509.492    506.240    506.644    506.240
 40.870    499.000    509.891    -10.891    506.112    509.483    506.112    506.521    506.112
 40.970    510.000    509.907      0.093    505.986    509.494    505.986    506.400    505.986
 41.070    488.000    509.949    -21.949    505.861    509.531    505.861    506.280    505.861
 41.170    524.313    510.023     14.290    505.738    509.600    505.738    506.162    505.738
 41.270    493.608    510.137    -16.529    505.616    509.708    505.616    506.046    505.616
 41.370    484.860    510.301    -25.440    505.496    509.866    505.496    505.931    505.496
 41.470    436.000    510.530    -74.530    505.377    510.089    505.377    505.818    505.377
 41.570    477.047    510.848    -33.800    505.259    510.401    505.259    505.707    505.259
 41.670    523.000    511.298     11.702    505.144    510.845    505.144    505.598    505.144
 41.770    501.000    511.977    -10.977    505.029    511.518    505.029    505.490    505.029
 41.870    516.000    513.119      2.881    504.916    512.655    504.916    505.384    504.916
 41.970    480.000    515.278    -35.278    504.805    514.807    504.805    505.279    504.805
 42.070    510.600    519.568     -8.968    504.695    519.092    504.695    505.177    504.695
 42.170    502.000    527.796    -25.796    504.587    527.316    504.587    505.076    504.587
 42.270    543.000    542.053      0.947    504.480    541.572    504.480    504.977    504.480
 42.370    533.234    563.454    -30.220    504.374    562.975    504.374    504.879    504.374
 42.470    577.000    590.227    -13.227    504.270    589.753    504.270    504.784    504.270
 42.570    557.000    616.098    -59.098    504.168    615.629    504.168    504.690    504.168
 42.670    620.000    630.895    -10.895    504.067    630.429    504.067    504.598    504.067
 42.770    608.000    626.884    -18.884    503.967    626.410    503.967    504.508    503.967
 42.870    615.000    606.422      8.578    503.869    605.930    503.869    504.419    503.869
 42.970    585.000    579.175      5.825    503.773    578.658    503.773    504.333    503.773
 43.070    561.000    554.005      6.995    503.678    553.464    503.678    504.248    503.678
 43.170    526.000    535.300     -9.300    503.584    534.737    503.584    504.166    503.584
 43.270    546.442    523.487     22.955    503.492    522.904    503.492    504.085    503.492
 43.370    493.593    516.893    -23.300    503.402    516.294    503.402    504.006    503.402
 43.470    523.000    513.464      9.536    503.313    512.851    503.313    503.930    503.313
 43.570    542.000    511.666     30.334    503.225    511.039    503.225    503.855    503.225
 43.670    537.000    510.630     26.370    503.139    509.989    503.139    503.782    503.139
 43.770    550.000    509.949     40.051    503.054    509.293    503.054    503.712    503.054
 43.870    550.538    509.454     41.084    502.971    508.783    502.971    503.643    502.971
 43.970    474.811    509.073    -34.262    502.889    508.387    502.889    503.577    502.889
 44.070    484.000    508.774    -24.774    502.809    508.072    502.809    503.513    502.809
 44.170    486.713    508.536    -21.824    502.730    507.817    502.730    503.451    502.730
 44.270    500.000    508.347     -8.347    502.653    507.610    502.653    503.391    502.653
 44.370    490.000    508.197    -18.197    502.577    507.441    502.577    503.334    502.577
 44.470    502.000    508.079     -6.079    502.503    507.304    502.503    503.279    502.503
 44.570    519.000    507.989     11.011    502.430    507.193    502.430    503.227    502.430
 44.670    548.059    507.924     40.135    502.358    507.106    502.358    503.177    502.358
 44.770    530.594    507.879     22.715    502.288    507.038    502.288    503.130    502.288
 44.870    520.000    507.855     12.145    502.220    506.989    502.220    503.085    502.220
 44.970    523.000    507.848     15.152    502.152    506.957    502.152    503.044    502.152
 45.070    480.253    507.858    -27.606    502.087    506.940    502.087    503.005    502.087
 45.170    487.175    507.886    -20.711    502.023    506.938    502.023    502.970    502.023
 45.270    513.000    507.929      5.071    501.960    506.951    501.960    502.938    501.960
 45.370    501.565    507.990     -6.424    501.898    506.979    501.898    502.909    501.898
 45.470    502.000    508.067     -6.067    501.838    507.022    501.838    502.884    501.838
 45.570    492.728    508.162    -15.434    501.780    507.080    501.780    502.862    501.780
 45.670    527.902    508.276     19.625    501.723    507.154    501.723    502.845    501.723
 45.770    505.000    508.411     -3.411    501.667    507.246    501.667    502.832    501.667
 45.870    538.885    508.567     30.318    501.613    507.356    501.613    502.823    501.613
 45.970    478.000    508.747    -30.747    501.560    507.487    501.560    502.819    501.560
 46.070    500.000    508.954     -8.954    501.508    507.641    501.508    502.821    501.508
 46.170    479.609    509.192    -29.583    501.458    507.822    501.458    502.828    501.458
 46.270    532.437    509.465     22.972    501.410    508.032    501.410    502.842    501.410
 46.370    530.614    509.778     20.836    501.362    508.278    501.362    502.862    501.362
 46.470    513.000    510.140      2.860    501.316    508.566    501.316    502.889    501.316
 46.570    535.000    510.561     24.439    501.272    508.907    501.272    502.925    501.272
 46.670    484.266    511.055    -26.789    501.229    509.313    501.229    502.970    501.229
 46.770    480.272    511.649    -31.377    501.187    509.810    501.187    503.025    501.187
 46.870    498.000    512.398    -14.398    501.147    510.452    501.147    503.091    501.147
 46.970    475.636    513.424    -37.788    501.108    511.359    501.108    503.171    501.108
 47.070    525.978    514.993     10.985    501.070    512.796    501.070    503.264    501.070
 47.170    470.000    517.625    -47.625    501.034    515.279    501.034    503.375    501.034
 47.270    530.000    522.164      7.836    500.999    519.650    500.999    503.504    500.999
 47.370    513.748    529.682    -15.934    500.966    526.978    500.966    503.656    500.966
 47.470    584.000    541.046     42.954    500.934    538.124    500.934    503.833    500.934
 47.570    579.000    556.167     22.833    500.903    552.995    500.903    504.041    500.903
 47.670    600.000    573.208     26.792    500.873    569.752    500.873    504.285    500.873
 47.770    633.000    588.151     44.849    500.845    584.369    500.845    504.573    500.845
 47.870    622.000    595.690     26.310    500.818    591.537    500.818    504.913    500.818
 47.970    560.000    592.680    -32.680    500.793    588.101    500.793    505.319    500.793
 48.070    535.265    581.265    -45.999    500.769    576.183    500.769    505.807    500.769
 48.170    581.044    566.643     14.401    500.746    560.951    500.746    506.407    500.746
 48.270    525.894    553.336    -27.442    500.724    546.880    500.724    507.159    500.724
 48.370    530.000    543.803    -13.803    500.704    536.359    500.704    508.136    500.704
 48.470    566.192    538.658     27.534    500.685    529.885    500.685    509.450    500.685
 48.570    522.483    537.434    -14.951    500.668    526.814    500.668    511.283    500.668
 48.670    537.000    539.401     -2.401    500.651    526.150    500.651    513.899    500.651
 48.770    510.698    544.088    -33.390    500.636    527.063    500.636    517.658    500.636
 48.870    558.000    551.443      6.557    500.622    529.074    500.622    522.988    500.622
 48.970    542.000    561.747    -19.747    500.610    532.034    500.610    530.320    500.610
 49.070    559.000    575.469    -16.469    500.599    536.104    500.599    539.959    500.599
 49.170    639.908    593.243     46.665    500.589    541.919    500.589    551.908    500.589
 49.270    587.000    616.266    -29.266    500.580    551.234    500.580    565.605    500.580
 49.370    640.000    647.508     -7.508    500.573    568.470    500.573    579.598    500.573
 49.470    675.670    694.209    -18.539    500.567    603.461    500.567    591.291    500.567
 49.570    797.000    771.519     25.481    500.562    674.605    500.562    597.433    500.562
 49.670    862.032    904.684    -42.652    500.558    809.291    500.558    595.877    500.558
 49.770   1069.360   1123.272    -53.911    500.555   1036.478    500.555    587.233    500.555
 49.870   1490.000   1442.331     47.669    500.554   1368.403    500.554    574.328    500.554
 49.970   1813.000   1836.534    -23.534    500.554   1776.664    500.554    560.257    500.554
 50.070   2143.970   2223.918    -79.948    500.555   2177.188    500.555    547.156    500.555
 50.170   2450.752   2479.213    -28.461    500.558   2443.642    500.558    536.093    500.558
 50.270   2590.120   2494.147     95.973    500.561   2467.410    500.561    527.383    500.561
 50.370   2311.000   2258.093     52.907    500.566   2237.950    500.566    520.883    500.566
 50.470   1891.085   1868.620     22.464    500.572   1853.172    500.572    516.224    500.572
 50.570   1371.000   1455.675    -84.675    500.579   1443.473    500.579    512.965    500.579
 50.670   1008.000   1112.711   -104.711    500.587   1102.738    500.587    510.701    500.587
 50.770    850.000    876.506    -26.506    500.597    868.090    500.597    509.109    500.597
 50.870    710.426    738.625    -28.199    500.607    731.340    500.607    507.957    500.607
 50.970    689.000    668.918     20.082    500.619    662.490    500.619    507.095    500.619
 51.070    629.000    635.787     -6.787    500.632    630.033    500.632    506.426    500.632
 51.170    572.445    616.747    -44.302    500.646    611.536    500.646    505.892    500.646
 51.270    602.000    600.696      1.304    500.661    595.929    500.661    505.457    500.661
 51.370    619.014    584.911     34.103    500.677    580.513    500.677    505.099    500.677
 51.470    584.000    570.288     13.712    500.695    566.199    500.695    504.801    500.695
 51.570    576.000    558.147     17.853    500.713    554.320    500.713    504.552    500.713
 51.670    541.000    549.120     -8.120    500.733    545.516    500.733    504.345    500.733
 51.770    569.357    543.081     26.276    500.754    539.669    500.754    504.172    500.754
 51.870    522.979    539.458    -16.479    500.776    536.210    500.776    504.028    500.776
 51.970    556.000    537.588     18.412    500.798    534.480    500.798    503.909    500.798
 52.070    545.899    536.948      8.951    500.822    533.962    500.822    503.812    500.822
 52.170    492.000    537.247    -45.247    500.847    534.363    500.847    503.733    500.847
 52.270    548.000    538.428      9.572    500.874    535.631    500.874    503.672    500.874
 52.370    592.000    540.700     51.300    500.901    537.977    500.901    503.625    500.901
 52.470    543.000    544.705     -1.705    500.929    542.043    500.929    503.592    500.929
 52.570    564.000    551.865     12.135    500.958    549.253    500.958    503.570    500.958
 52.670    581.849    564.930     16.919    500.988    562.358    500.988    503.560    500.988
 52.770    607.000    588.492     18.508    501.020    585.950    501.020    503.560    501.020
 52.870    655.817    628.931     26.886    501.052    626.411    501.052    503.569    501.052
 52.970    644.972    693.078    -48.105    501.085    690.572    501.085    503.586    501.085
 53.070    826.000    785.147     40.853    501.120    782.648    501.120    503.612    501.120
 53.170    877.000    902.474    -25.474    501.155    899.977    501.155    503.646    501.155
 53.270   1064.000   1031.507     32.493    501.191   1029.008    501.191    503.687    501.191
 53.370   1169.064   1146.081     22.983    501.229   1143.579    501.229    503.736    501.229
 53.470   1174.000   1212.246    -38.246    501.267   1209.739    501.267    503.791    501.267
 53.570   1184.000   1205.216    -21.216    501.306   1202.698    501.306    503.854    501.306
 53.670   1051.000   1128.126    -77.126    501.346   1125.585    501.346    503.924    501.346
 53.770    984.000   1009.133    -25.133    501.387   1006.557    501.387    504.000    501.387
 53.870    846.000    881.404    -35.404    501.429    878.782    501.429    504.084    501.429
 53.970    768.000    768.776     -0.776    501.472    766.099    501.472    504.174    501.472
 54.070    654.442    682.553    -28.111    501.516    679.815    501.516    504.272    501.516
 54.170    622.951    623.807     -0.856    501.561    621.002    501.561    504.378    501.561
 54.270    632.447    587.566     44.881    501.607    584.689    501.607    504.491    501.607
 54.370    554.000    566.933    -12.933    501.653    563.979    501.653    504.612    501.653
 54.470    551.000    555.824     -4.824    501.701    552.785    501.701    504.742    501.701
 54.570    546.000    550.014     -4.014    501.749    546.884    501.749    504.881    501.749
 54.670    528.968    547.035    -18.067    501.798    543.806    501.798    505.029    501.798
 54.770    584.000    545.629     38.371    501.848    542.292    501.848    505.187    501.848
 54.870    534.000    545.217    -11.217    501.899    541.762    501.899    505.356    501.899
 54.970    516.878    545.556    -28.679    501.951    541.973    501.951    505.536    501.951
 55.070    563.000    546.558     16.442    502.004    542.834    502.004    505.729    502.004
 55.170    576.000    548.209     27.791    502.057    544.332    502.057    505.935    502.057
 55.270    586.000    550.548     35.452    502.112    546.504    502.112    506.157    502.112
 55.370    603.000    553.661     49.339    502.167    549.435    502.167    506.394    502.167
 55.470    552.000    557.709     -5.709    502.223    553.284    502.223    506.649    502.223
 55.570    588.000    562.999     25.001    502.279    558.356    502.279    506.923    502.279
 55.670    570.000    570.174     -0.174    502.337    565.292    502.337    507.220    502.337
 55.770    594.000    580.638     13.362    502.395    575.493    502.395    507.540    502.395
 55.870    560.137    597.391    -37.254    502.454    591.956    502.454    507.887    502.454
 55.970    635.192    626.361      8.831    502.514    620.606    502.514    508.264    502.514
 56.070    658.000    677.982    -19.982    502.575    671.870    502.575    508.675    502.575
 56.170    809.396    768.052     41.344    502.636    761.541    502.636    509.125    502.636
 56.270    824.000    916.149    -92.149    502.698    909.193    502.698    509.619    502.698
 56.370   1020.000   1139.889   -119.889    502.761   1132.436    502.761    510.162    502.761
 56.470   1366.000   1444.918    -78.918    502.824   1436.917    502.824    510.763    502.824
 56.570   1797.000   1813.418    -16.418    502.888   1804.818    502.888    511.431    502.888
 56.670   2184.000   2195.867    -11.867    502.953   2186.614    502.953    512.175    502.953
 56.770   2378.000   2511.566   -133.566    503.019   2501.602    503.019    513.010    503.019
 56.870   2684.000   2668.538     15.462    503.085   2657.782    503.085    513.951    503.085
 56.970   2641.795   2611.716     30.080    503.152   2600.043    503.152    515.018    503.152
 57.070   2300.562   2363.609    -63.046    503.219   2350.839    503.219    516.238    503.219
 57.170   2067.000   2005.529     61.471    503.288   1991.429    503.288    517.646    503.288
 57.270   1669.000   1626.816     42.184    503.357   1611.111    503.357    519.291    503.357
 57.370   1377.000   1292.409     84.591    503.426   1274.768    503.426    521.250    503.426
 57.470   1050.000   1034.606     15.394    503.496   1014.594    503.496    523.639    503.496
 57.570    829.350    857.871    -28.521    503.567    834.876    503.567    526.647    503.567
 57.670    759.000    749.535      9.465    503.638    722.656    503.638    530.568    503.638
 57.770    666.583    691.148    -24.565    503.710    659.036    503.710    535.850    503.710
 57.870    706.839    666.580     40.259    503.783    627.233    503.783    543.142    503.783
 57.970    666.918    665.642      1.276    503.856    616.187    503.856    553.312    503.856
 58.070    659.636    684.241    -24.605    503.930    620.740    503.930    567.423    503.930
 58.170    693.876    722.741    -28.864    504.004    640.101    504.004    586.626    504.004
 58.270    790.000    783.495      6.505    504.079    675.586    504.079    611.960    504.079
 58.370    907.190    868.417     38.773    504.154    728.473    504.154    644.060    504.154
 58.470    941.227    976.715    -35.487    504.230    798.116    504.230    682.783    504.230
 58.570   1084.000   1103.074    -19.074    504.307    880.577    504.307    726.755    504.307
 58.670   1239.000   1236.766      2.234    504.383    968.306    504.383    772.800    504.383
 58.770   1352.994   1362.732     -9.738    504.461   1051.813    504.461    815.347    504.461
 58.870   1514.041   1464.636     49.404    504.539   1122.611    504.539    846.550    504.539
 58.970   1543.000   1527.722     15.278    504.617   1173.802    504.617    858.543    504.617
 59.070   1617.000   1541.558     75.442    504.696   1198.511    504.696    847.770    504.696
 59.170   1570.000   1504.843     65.157    504.776   1192.154    504.776    817.506    504.776
 59.270   1517.000   1428.833     88.167    504.855   1158.227    504.855    775.506    504.855
 59.370   1306.000   1333.762    -27.762    504.936   1109.057    504.936    729.672    504.936
 59.470   1238.359   1240.876     -2.517    505.016   1060.205    505.016    685.692    505.016
 59.570   1126.660   1168.205    -41.545    505.097   1026.423    505.097    646.847    505.097
 59.670   1115.321   1130.975    -15.654    505.179   1021.491    505.179    614.586    505.179
 59.770   1191.000   1140.693     50.307    505.261   1056.720    505.261    589.103    505.261
 59.870   1223.000   1200.457     22.543    505.343   1135.818    505.343    569.795    505.343
 59.970   1350.000   1300.333     49.667    505.426   1249.883    505.426    555.636    505.426
 60.070   1439.000   1416.023     22.977    505.509   1375.778    505.509    545.475    505.509
 60.170   1451.940   1511.689    -59.749    505.593   1478.746    505.593    538.244    505.593
 60.270   1545.996   1549.505     -3.509    505.677   1521.848    505.677    533.066    505.677
 60.370   1469.000   1507.477    -38.477    505.761   1483.739    505.761    529.283    505.761
 60.470   1415.000   1392.725     22.275    505.845   1371.977    505.845    526.443    505.845
 60.570   1228.000   1234.513     -6.513    505.930   1216.105    505.930    524.248    505.930
 60.670   1042.000   1066.655    -24.655    506.015   1050.111    506.015    522.513    506.015
 60.770    892.707    915.477    -22.770    506.101    900.432    506.101    521.127    506.101
 60.870    800.000    795.711      4.289    506.187    781.868    506.187    520.024    506.187
 60.970    727.000    711.328     15.672    506.273    698.433    506.273    519.165    506.273
 61.070    667.000    659.172      7.828    506.359    647.000    506.359    518.527    506.359
 61.170    605.924    633.520    -27.596    506.446    621.862    506.446    518.094    506.446
 61.270    677.000    629.860     47.140    506.533    618.525    506.533    517.849    506.533
 61.370    680.000    646.967     33.033    506.620    635.784    506.620    517.772    506.620
 61.470    668.000    687.059    -19.059    506.708    675.890    506.708    517.829    506.708
 61.570    733.000    754.230    -21.230    506.795    742.984    506.795    517.970    506.795
 61.670    837.000    851.485    -14.485    506.883    840.148    506.883    518.119    506.883
 61.770    918.040    977.100    -59.060    506.971    965.758    506.971    518.181    506.971
 61.870   1084.000   1121.390    -37.390    507.060   1110.229    507.060    518.059    507.060
 61.970   1195.000   1265.116    -70.116    507.148   1254.383    507.148    517.702    507.148
 62.070   1361.000   1380.786    -19.786    507.237   1370.717    507.237    517.129    507.237
 62.170   1369.000   1439.243    -70.243    507.326   1429.999    507.326    516.417    507.326
 62.270   1473.042   1422.830     50.212    507.415   1414.480    507.415    515.653    507.415
 62.370   1388.539   1336.387     52.152    507.504   1328.914    507.504    514.911    507.504
 62.470   1195.000   1203.798     -8.798    507.593   1197.127    507.593    514.235    507.593
 62.570    996.000   1054.613    -58.613    507.683   1048.643    507.683    513.650    507.683
 62.670    877.000    913.386    -36.386    507.772    908.006    507.772    513.163    507.772
 62.770    755.339    795.386    -40.047    507.862    790.491    507.862    512.771    507.862
 62.870    719.514    706.489     13.025    507.952    701.990    507.952    512.464    507.952
 62.970    635.000    645.361    -10.361    508.042    641.183    508.042    512.228    508.042
 63.070    581.000    606.638    -25.638    508.132    602.723    508.132    512.050    508.132
 63.170    600.274    583.877     16.397    508.222    580.181    508.222    511.918    508.222
 63.270    568.820    571.511     -2.691    508.312    568.001    508.312    511.820    508.312
 63.370    607.000    565.693     41.307    508.402    562.343    508.402    511.747    508.402
 63.470    592.413    564.378     28.035    508.492    561.168    508.492    511.695    508.492
 63.570    571.365    567.084      4.282    508.583    563.998    508.583    511.659    508.583
 63.670    586.000    574.614     11.386    508.673    571.639    508.673    511.635    508.673
 63.770    613.058    588.794     24.264    508.763    585.916    508.763    511.621    508.763
 63.870    626.000    612.104     13.896    508.854    609.311    508.854    511.617    508.854
 63.970    670.800    647.063     23.738    508.944    644.343    508.944    511.620    508.944
 64.070    755.000    695.294     59.706    509.034    692.637    509.034    511.630    509.034
 64.170    796.000    756.393     39.607    509.125    753.789    509.125    511.646    509.125
 64.270    850.000    826.857     23.143    509.215    824.300    509.215    511.669    509.215
 64.370    939.722    899.430     40.292    509.305    896.918    509.305    511.696    509.305
 64.470   1016.561    963.371     53.190    509.395    960.907    509.395    511.728    509.395
 64.570    991.000   1006.733    -15.733    509.485   1004.325    509.485    511.764    509.485
 64.670   1003.310   1021.019    -17.710    509.575   1018.675    509.575    511.805    509.575
 64.770   1043.410   1004.978     38.432    509.665   1002.703    509.665    511.849    509.665
 64.870    987.000    964.129     22.871    509.755    961.924    509.755    511.897    509.755
 64.970    972.000    907.789     64.211    509.845    905.651    509.845    511.948    509.845
 65.070    848.000    846.016      1.984    509.935    843.938    509.935    512.002    509.935
 65.170    802.000    786.910     15.090    510.024    784.882    510.024    512.059    510.024
 65.270    762.000    735.105     26.895    510.113    733.119    510.113    512.119    510.113
 65.370    630.000    692.018    -62.018    510.203    690.064    510.203    512.181    510.203
 65.470    674.438    657.207     17.232    510.292    655.278    510.292    512.245    510.292
 65.570    644.000    629.656     14.344    510.381    627.746    510.381    512.312    510.381
 65.670    591.000    608.308    -17.308    510.470    606.413    510.470    512.382    510.470
 65.770    568.000    592.150    -24.150    510.558    590.268    510.558    512.453    510.558
 65.870    598.000    580.270     17.730    510.647    578.397    510.647    512.527    510.647
 65.970    593.000    571.891     21.109    510.735    570.028    510.735    512.602    510.735
 66.070    538.822    566.369    -27.547    510.823    564.513    510.823    512.680    510.823
 66.170    568.000    563.166      4.834    510.911    561.318    510.911    512.759    510.911
 66.270    557.145    561.844     -4.699    510.998    560.002    510.998    512.840    510.998
 66.370    552.000    562.074    -10.074    511.085    560.236    511.085    512.923    511.085
 66.470    502.000    563.675    -61.675    511.172    561.839    511.172    513.008    511.172
 66.570    548.000    566.679    -18.679    511.259    564.843    511.259    513.095    511.259
 66.670    566.000    571.439     -5.439    511.346    569.602    511.346    513.184    511.346
 66.770    551.000    578.842    -27.842    511.432    577.000    511.432    513.274    511.432
 66.870    564.000    590.640    -26.640    511.518    588.791    511.518    513.367    511.518
 66.970    646.898    609.936     36.962    511.604    608.078    511.604    513.461    511.604
 67.070    623.709    641.703    -17.994    511.689    639.831    511.689    513.557    511.689
 67.170    687.000    693.110     -6.110    511.774    691.220    511.774    513.656    511.774
 67.270    756.000    773.263    -17.263    511.859    771.352    511.859    513.756    511.859
 67.370    849.954    891.927    -41.973    511.943    889.993    511.943    513.859    511.943
 67.470   1031.000   1056.969    -25.969    512.027   1055.013    512.027    513.963    512.027
 67.570   1279.000   1270.763      8.237    512.111   1268.788    512.111    514.070    512.111
 67.670   1551.000   1526.352     24.648    512.194   1524.368    512.194    514.180    512.194
 67.770   1879.547   1804.557     74.990    512.277   1802.575    512.277    514.292    512.277
 67.870   2067.000   2073.115     -6.115    512.360   2071.149    512.360    514.407    512.360
 67.970   2240.000   2289.333    -49.333    512.442   2287.395    512.442    514.525    512.442
 68.070   2438.000   2409.132     28.868    512.524   2407.226    512.524    514.646    512.524
 68.170   2449.845   2403.689     46.156    512.605   2401.804    512.605    514.771    512.605
 68.270   2230.522   2274.493    -43.972    512.686   2272.600    512.686    514.899    512.686
 68.370   2114.000   2052.421     61.579    512.767   2050.483    512.767    515.030    512.767
 68.470   1811.000   1781.927     29.073    512.847   1779.911    512.847    515.167    512.847
 68.570   1550.744   1505.007     45.737    512.927   1502.888    512.927    515.307    512.927
 68.670   1272.000   1252.833     19.167    513.006   1250.596    513.006    515.453    513.006
 68.770   1052.000   1043.470      8.530    513.084   1041.109    513.084    515.604    513.084
 68.870    849.462    882.944    -33.483    513.163    880.459    513.163    515.761    513.163
 68.970    747.000    768.268    -21.268    513.240    765.660    513.240    515.925    513.240
 69.070    655.736    691.288    -35.553    513.318    688.561    513.318    516.096    513.318
 69.170    633.000    642.224     -9.224    513.395    639.376    513.395    516.274    513.395
 69.270    621.000    612.098      8.902    513.471    609.129    513.471    516.460    513.471
 69.370    596.000    593.924      2.076    513.547    590.827    513.547    516.658    513.547
 69.470    571.161    582.887    -11.725    513.622    579.652    513.622    516.866    513.622
 69.570    599.000    575.981     23.019    513.696    572.598    513.696    517.086    513.696
 69.670    584.555    571.485     13.070    513.771    567.940    513.771    517.321    513.771
 69.770    590.000    568.471     21.529    513.844    564.749    513.844    517.570    513.844
 69.870    609.432    566.468     42.965    513.917    562.550    513.917    517.837    513.917
 69.970    595.036    565.242     29.794    513.990    561.110    513.990    518.123    513.990
 70.070    581.000    564.686     16.314    514.061    560.317    514.061    518.432    514.061
 70.170    530.000    564.770    -34.770    514.133    560.136    514.133    518.766    514.133
 70.270    573.000    565.522      7.478    514.203    560.595    514.203    519.129    514.203
 70.370    596.000    567.055     28.945    514.273    561.800    514.273    519.526    514.273
 70.470    562.000    569.616     -7.616    514.343    563.994    514.343    519.962    514.343
 70.570    571.000    573.690     -2.690    514.412    567.653    514.412    520.444    514.412
 70.670    590.000    580.171      9.829    514.480    573.664    514.480    520.979    514.480
 70.770    596.872    590.584      6.287    514.547    583.540    514.547    521.580    514.547
 70.870    594.000    607.361    -13.361    514.614    599.695    514.614    522.262    514.614
 70.970    633.000    634.066     -1.066    514.680    625.670    514.680    523.049    514.680
 71.070    628.859    675.436    -46.577    514.746    666.165    514.746    523.976    514.746
 71.170    703.000    737.039    -34.039    514.811    726.690    514.811    525.099    514.811
 71.270    831.000    824.384      6.616    514.875    812.669    514.875    526.505    514.875
 71.370    891.000    941.444    -50.444    514.938    927.939    514.938    528.328    514.938
 71.470   1125.947   1088.783     37.164    515.001   1072.870    515.001    530.768    515.001
 71.570   1239.000   1261.712    -22.712    515.063   1242.492    515.063    534.107    515.063
 71.670   1352.000   1448.980    -96.980    515.124   1425.180    515.124    538.724    515.124
 71.770   1631.000   1632.476     -1.476    515.185   1602.351    515.185    545.097    515.185
 71.870   1761.337   1788.509    -27.172    515.245   1749.774    515.245    553.771    515.245
 71.970   1884.000   1891.918     -7.918    515.304   1841.729    515.304    565.305    515.304
 72.070   1919.000   1923.940     -4.940    515.362   1858.969    515.362    580.181    515.362
 72.170   1935.266   1880.817     54.449    515.420   1797.455    515.420    598.670    515.420
 72.270   1793.971   1775.903     18.069    515.477   1670.605    515.477    620.701    515.477
 72.370   1629.000   1632.828     -3.828    515.533   1502.612    515.533    645.706    515.533
 72.470   1466.265   1476.112     -9.847    515.588   1319.193    515.588    672.487    515.588
 72.570   1369.000   1325.127     43.873    515.642   1141.673    515.642    699.089    515.642
 72.670   1141.047   1191.758    -50.711    515.696    984.690    515.696    722.764    515.696
 72.770   1049.648   1080.390    -30.742    515.749    855.936    515.749    740.204    515.749
 72.870    943.703    989.643    -45.941    515.801    757.113    515.801    748.333    515.801
 72.970    927.356    915.284     12.072    515.852    685.625    515.852    745.512    515.852
 73.070    829.000    852.979    -23.979    515.902    636.523    515.902    732.359    515.902
 73.170    679.000    799.659   -120.659    515.952    604.204    515.952    711.407    515.952
 73.270    700.000    753.543    -53.543    516.000    583.576    516.000    685.968    516.000
 73.370    692.000    713.682    -21.682    516.048    570.628    516.048    659.104    516.048
 73.470    709.660    679.599     30.061    516.095    562.539    516.095    633.156    516.095
 73.570    633.470    651.050    -17.580    516.141    557.515    516.141    609.680    516.141
 73.670    604.046    627.854    -23.808    516.186    554.513    516.186    589.532    516.186
 73.770    642.358    609.756     32.603    516.231    552.983    516.231    573.011    516.231
 73.870    579.000    596.354    -17.354    516.274    552.644    516.274    559.994    516.274
 73.970    594.090    587.088      7.002    516.316    553.333    516.316    550.086    516.316
 74.070    593.000    581.266     11.734    516.358    554.891    516.358    542.753    516.358
 74.170    596.989    578.104     18.885    516.399    557.094    516.399    537.434    516.399
 74.270    626.449    576.768     49.681    516.438    559.622    516.438    533.616    516.438
 74.370    534.642    576.406    -41.763    516.477    562.050    516.477    530.870    516.477
 74.470    639.000    576.193     62.807    516.515    563.882    516.515    528.867    516.515
 74.570    587.484    575.419     12.066    516.552    564.645    516.552    527.370    516.552
 74.670    525.778    573.623    -47.845    516.588    564.041    516.588    526.215    516.588
 74.770    655.000    570.712     84.288    516.623    562.083    516.623    525.294    516.623
 74.870    628.000    566.937     61.063    516.657    559.095    516.657    524.537    516.657
 74.970    688.000    562.763    125.237    516.690    555.585    516.690    523.901    516.690
 75.070    575.046    558.715     16.331    516.722    552.108    516.722    523.355    516.722
 75.170    572.000    555.307     16.693    516.753    549.198    516.753    522.882    516.753
 75.270    584.000    553.027     30.973    516.783    547.356    516.783    522.467    516.783
 75.370    582.000    552.353     29.647    516.812    547.071    516.812    522.102    516.812
 75.470    573.000    553.781     19.219    516.840    548.845    516.840    521.778    516.840
 75.570    583.000    557.834     25.166    516.867    553.208    516.867    521.489    516.867
 75.670    543.526    565.036    -21.511    516.893    560.688    516.893    521.231    516.893
 75.770    602.413    575.831     26.581    516.918    571.732    516.918    521.000    516.918
 75.870    609.304    590.445     18.859    516.942    586.570    516.942    520.792    516.942
 75.970    594.000    608.714    -14.714    516.965    605.041    516.965    520.605    516.965
 76.070    593.000    629.922    -36.922    516.986    626.432    516.986    520.435    516.986
 76.170    672.000    652.694     19.306    517.007    649.370    517.007    520.280    517.007
 76.270    694.213    674.969     19.244    517.027    671.797    517.027    520.140    517.027
 76.370    702.000    694.107      7.893    517.045    691.077    517.045    520.011    517.045
 76.470    703.000    707.231     -4.231    517.063    704.335    517.063    519.894    517.063
 76.570    701.000    711.936    -10.936    517.079    709.167    517.079    519.786    517.079
 76.670    690.013    707.221    -17.207    517.095    704.573    517.095    519.686    517.095
 76.770    708.000    693.969     14.031    517.109    691.436    517.109    519.594    517.109
 76.870    645.000    674.512    -29.512    517.122    672.086    517.122    519.509    517.122
 76.970    608.000    651.705    -43.705    517.134    649.380    517.134    519.429    517.134
 77.070    653.082    628.193     24.889    517.145    625.961    517.145    519.355    517.145
 77.170    650.459    606.047     44.412    517.155    603.901    517.155    519.286    517.155
 77.270    525.000    586.643    -61.643    517.164    584.575    517.164    519.221    517.164
 77.370    520.000    570.670    -50.670    517.171    568.675    517.171    519.160    517.171
 77.470    536.259    558.237    -21.978    517.178    556.308    517.178    519.103    517.178
 77.570    585.032    549.035     35.997    517.183    547.167    517.183    519.048    517.183
 77.670    552.000    542.518      9.482    517.187    540.707    517.187    518.996    517.187
 77.770    534.995    538.068     -3.074    517.190    536.310    517.190    518.947    517.190
 77.870    490.560    535.111    -44.551    517.192    533.402    517.192    518.900    517.192
 77.970    565.000    533.170     31.830    517.193    531.508    517.193    518.854    517.193
 78.070    556.616    531.894     24.722    517.192    530.274    517.192    518.811    517.192
 78.170    520.000    531.038    -11.038    517.191    529.459    517.191    518.769    517.191
 78.270    522.574    530.430     -7.856    517.188    528.889    517.188    518.729    517.188
 78.370    519.000    529.991    -10.991    517.184    528.485    517.184    518.689    517.184
 78.470    488.934    529.705    -40.771    517.179    528.232    517.179    518.651    517.179
 78.570    531.000    529.527      1.473    517.172    528.084    517.172    518.614    517.172
 78.670    548.000    529.449     18.551    517.165    528.035    517.165    518.579    517.165
 78.770    537.000    529.480      7.520    517.156    528.092    517.156    518.544    517.156
 78.870    492.000    529.638    -37.638    517.146    528.272    517.146    518.511    517.146
 78.970    517.000    529.946    -12.946    517.135    528.600    517.135    518.480    517.135
 79.070    497.027    530.434    -33.406    517.122    529.104    517.122    518.450    517.122
 79.170    573.796    531.131     42.665    517.109    529.814    517.109    518.423    517.109
 79.270    582.000    532.067     49.933    517.094    530.759    517.094    518.400    517.094
 79.370    569.000    533.270     35.730    517.078    531.965    517.078    518.380    517.078
 79.470    501.953    534.769    -32.815    517.060    533.460    517.060    518.365    517.060
 79.570    504.304    536.597    -32.293    517.042    535.278    517.042    518.356    517.042
 79.670    483.000    538.811    -55.811    517.022    537.475    517.022    518.354    517.022
 79.770    528.000    541.502    -13.502    517.001    540.140    517.001    518.358    517.001
 79.870    503.000    544.820    -41.820    516.978    543.423    516.978    518.370    516.978
 79.970    578.000    548.997     29.003    516.955    547.558    516.955    518.389    516.955
 80.070    556.258    554.370      1.888    516.930    552.882    516.930    518.413    516.930
 80.170    566.000    561.378      4.622    516.904    559.838    516.904    518.442    516.904
 80.270    575.108    570.514      4.594    516.876    568.919    516.876    518.471    516.876
 80.370    574.822    582.224     -7.402    516.848    580.577    516.848    518.497    516.848
 80.470    577.233    596.793    -19.560    516.818    595.103    516.818    518.513    516.818
 80.570    660.628    614.234     46.394    516.787    612.516    516.787    518.514    516.787
 80.670    647.000    634.203     12.797    516.754    632.476    516.754    518.495    516.754
 80.770    627.209    655.953    -28.744    516.720    654.242    516.720    518.451    516.720
 80.870    668.000    678.359    -10.359    516.685    676.688    516.685    518.382    516.685
 80.970    682.000    700.035    -18.035    516.649    698.425    516.649    518.292    516.649
 81.070    727.000    719.534      7.466    516.611    717.998    516.611    518.187    516.611
 81.170    715.000    735.537    -20.537    516.572    734.084    516.572    518.072    516.572
 81.270    723.000    746.979    -23.979    516.532    745.611    516.532    517.954    516.532
 81.370    748.000    753.135     -5.135    516.491    751.849    516.491    517.836    516.491
 81.470    706.000    753.700    -47.700    516.448    752.491    516.448    517.721    516.448
 81.570    783.000    748.813     34.187    516.403    747.672    516.403    517.612    516.403
 81.670    796.000    738.996     57.004    516.358    737.914    516.358    517.509    516.358
 81.770    755.000    725.126     29.874    516.311    724.094    516.311    517.412    516.311
 81.870    733.000    708.390     24.610    516.263    707.399    516.263    517.322    516.263
 81.970    687.000    690.127     -3.127    516.214    689.168    516.214    517.239    516.214
 82.070    722.052    671.546     50.506    516.163    670.612    516.163    517.160    516.163
 82.170    647.696    653.516     -5.820    516.111    652.601    516.111    517.085    516.111
 82.270    685.709    636.517     49.192    516.057    635.616    516.057    517.013    516.057
 82.370    640.689    620.747     19.942    516.002    619.856    516.002    516.943    516.002
 82.470    577.137    606.296    -29.159    515.946    605.412    515.946    516.875    515.946
 82.570    590.000    593.275     -3.275    515.889    592.395    515.889    516.808    515.889
 82.670    561.000    581.843    -20.843    515.830    580.964    515.830    516.741    515.830
 82.770    571.000    572.171     -1.171    515.770    571.293    515.770    516.674    515.770
 82.870    581.019    564.411     16.608    515.709    563.532    515.709    516.607    515.709
 82.970    533.000    558.678    -25.678    515.646    557.797    515.646    516.539    515.646
 83.070    532.000    555.036    -23.036    515.582    554.151    515.582    516.471    515.582
 83.170    553.000    553.476     -0.476    515.516    552.587    515.516    516.402    515.516
 83.270    528.000    553.901    -25.901    515.449    553.008    515.449    516.332    515.449
 83.370    582.000    556.100     25.900    515.381    555.202    515.381    516.261    515.381
 83.470    569.000    559.736      9.264    515.312    558.833    515.312    516.190    515.312
 83.570    527.136    564.353    -37.217    515.241    563.444    515.241    516.117    515.241
 83.670    569.000    569.375     -0.375    515.169    568.463    515.169    516.044    515.169
 83.770    579.189    574.150      5.039    515.095    573.233    515.095    515.969    515.095
 83.870    554.000    577.989    -23.989    515.020    577.070    515.020    515.894    515.020
 83.970    533.000    580.266    -47.266    514.944    579.346    514.944    515.817    514.944
 84.070    578.000    580.540     -2.540    514.866    579.621    514.866    515.740    514.866
 84.170    518.000    578.680    -60.680    514.787    577.763    514.787    515.661    514.787
 84.270    607.000    574.893     32.107    514.707    573.979    514.707    515.582    514.707
 84.370    573.000    569.641      3.359    514.625    568.731    514.625    515.501    514.625
 84.470    533.000    563.500    -30.500    514.542    562.594    514.542    515.420    514.542
 84.570    568.604    557.036     11.568    514.458    556.133    514.458    515.337    514.458
 84.670    561.148    550.733     10.415    514.372    549.833    514.372    515.253    514.372
 84.770    559.133    544.958     14.175    514.285    544.059    514.285    515.169    514.285
 84.870    529.000    539.946    -10.946    514.196    539.048    514.196    515.083    514.196
 84.970    519.000    535.808    -16.808    514.106    534.910    514.106    514.996    514.106
 85.070    533.457    532.553      0.904    514.015    531.652    514.015    514.908    514.015
 85.170    566.000    530.113     35.887    513.922    529.211    513.922    514.819    513.922
 85.270    504.108    528.382    -24.274    513.828    527.476    513.828    514.730    513.828
 85.370    527.000    527.238     -0.238    513.733    526.328    513.733    514.639    513.733
 85.470    518.778    526.572     -7.795    513.636    525.658    513.636    514.547    513.636
 85.570    550.000    526.301     23.699    513.538    525.381    513.538    514.454    513.538
 85.670    517.000    526.377     -9.377    513.439    525.451    513.439    514.360    513.439
 85.770    516.841    526.795     -9.954    513.338    525.862    513.338    514.265    513.338
 85.870    515.000    527.592    -12.592    513.236    526.652    513.236    514.169    513.236
 85.970    502.000    528.850    -26.850    513.133    527.901    513.133    514.072    513.133
 86.070    540.643    530.693      9.950    513.028    529.735    513.028    513.974    513.028
 86.170    547.000    533.282     13.718    512.922    532.314    512.922    513.875    512.922
 86.270    533.000    536.802     -3.802    512.814    535.820    512.814    513.775    512.814
 86.370    582.830    541.440     41.390    512.706    540.445    512.706    513.675    512.706
 86.470    549.837    547.362      2.475    512.595    546.351    512.595    513.573    512.595
 86.570    591.745    554.673     37.071    512.484    553.644    512.484    513.470    512.484
 86.670    557.000    563.376     -6.376    512.371    562.327    512.371    513.367    512.371
 86.770    638.000    573.330     64.670    512.257    572.259    512.257    513.263    512.257
 86.870    576.000    584.222     -8.222    512.141    583.129    512.141    513.157    512.141
 86.970    575.000    595.539    -20.539    512.024    594.423    512.024    513.051    512.024
 87.070    608.000    606.611      1.389    511.906    605.473    511.906    512.945    511.906
 87.170    630.000    616.603     13.397    511.786    615.444    511.786    512.837    511.786
 87.270    658.705    624.594     34.111    511.666    623.417    511.666    512.729    511.666
 87.370    665.371    629.736     35.635    511.543    628.544    511.543    512.620    511.543
 87.470    643.589    631.446     12.143    511.420    630.243    511.420    512.510    511.420
 87.570    599.334    629.575    -30.241    511.295    628.364    511.295    512.400    511.295
 87.670    604.412    624.454    -20.042    511.169    623.237    511.169    512.289    511.169
 87.770    688.000    616.791     71.209    511.041    615.571    511.041    512.178    511.041
 87.870    632.000    607.498     24.502    510.912    606.274    510.912    512.066    510.912
 87.970    597.000    597.540     -0.540    510.782    596.312    510.782    511.953    510.782
 88.070    593.241    587.831      5.409    510.651    586.598    510.651    511.841    510.651
 88.170    602.000    579.163     22.837    510.518    577.922    510.518    511.728    510.518
 88.270    620.000    572.161     47.839    510.384    570.909    510.384    511.614    510.384
 88.370    565.679    567.257     -1.578    510.248    565.993    510.248    511.501    510.248
 88.470    580.000    564.682     15.318    510.112    563.405    510.112    511.387    510.112
 88.570    544.000    564.471    -20.471    509.974    563.177    509.974    511.273    509.974
 88.670    584.775    566.469     18.306    509.834    565.158    509.834    511.160    509.834
 88.770    615.000    570.355     44.645    509.694    569.025    509.694    511.046    509.694
 88.870    604.000    575.659     28.341    509.552    574.307    509.552    510.933    509.552
 88.970    586.000    581.785      4.215    509.409    580.411    509.409    510.820    509.409
 89.070    582.000    588.047     -6.047    509.265    586.649    509.265    510.708    509.265
 89.170    597.000    593.704      3.296    509.119    592.278    509.119    510.596    509.119
 89.270    633.500    598.025     35.475    508.972    596.569    508.972    510.485    508.972
 89.370    598.278    600.384     -2.106    508.824    598.894    508.824    510.375    508.824
 89.470    642.770    600.382     42.387    508.674    598.854    508.674    510.267    508.674
 89.570    608.235    597.936     10.300    508.524    596.364    508.524    510.160    508.524
 89.670    546.000    593.286    -47.286    508.372    591.666    508.372    510.054    508.372
 89.770    556.000    586.916    -30.916    508.219    585.242    508.219    509.951    508.219
 89.870    566.852    579.422    -12.571    508.064    577.689    508.064    509.850    508.064
 89.970    536.000    571.408    -35.408    507.908    569.611    507.908    509.751    507.908
 90.070    517.000    563.408    -46.408    507.752    561.542    507.752    509.656    507.752
 90.170    533.000    555.855    -22.855    507.594    553.916    507.594    509.565    507.594
 90.270    564.000    549.059     14.941    507.434    547.042    507.434    509.478    507.434
 90.370    519.185    543.212    -24.027    507.274    541.110    507.274    509.396    507.274
 90.470    497.728    538.389    -40.661    507.112    536.196    507.112    509.320    507.112
 90.570    512.000    534.579    -22.579    506.949    532.287    506.949    509.252    506.949
 90.670    542.377    531.707     10.670    506.785    529.306    506.785    509.194    506.785
 90.770    523.000    529.660     -6.660    506.620    527.138    506.620    509.147    506.620
 90.870    531.000    528.315      2.685    506.453    525.656    506.453    509.116    506.453
 90.970    550.000    527.556     22.444    506.285    524.739    506.285    509.104    506.285
 91.070    476.000    527.259    -51.259    506.117    524.259    506.117    509.117    506.117
 91.170    543.000    527.439     15.561    505.947    524.220    505.947    509.165    505.947
 91.270    526.000    528.074     -2.074    505.775    524.592    505.775    509.256    505.775
 91.370    474.000    529.187    -55.187    505.603    525.383    505.603    509.404    505.603
 91.470    499.330    530.857    -31.527    505.430    526.657    505.430    509.626    505.430
 91.570    564.261    533.213     31.047    505.255    528.524    505.255    509.939    505.255
 91.670    569.943    536.435     33.508    505.079    531.138    505.079    510.369    505.079
 91.770    519.000    540.741    -21.741    504.903    534.692    504.903    510.942    504.903
 91.870    556.620    546.373     10.247    504.725    539.400    504.725    511.685    504.725
 91.970    545.000    553.587     -8.587    504.546    545.488    504.546    512.629    504.546
 92.070    530.000    562.630    -32.630    504.365    553.175    504.365    513.800    504.365
 92.170    570.000    573.710     -3.710    504.184    562.644    504.184    515.224    504.184
 92.270    574.000    586.964    -12.964    504.002    574.016    504.002    516.918    504.002
 92.370    584.000    602.433    -18.433    503.819    587.322    503.819    518.891    503.819
 92.470    622.000    620.027      1.973    503.634    602.476    503.634    521.139    503.634
 92.570    611.000    639.505    -28.505    503.449    619.260    503.449    523.640    503.449
 92.670    612.683    660.463    -47.781    503.262    637.309    503.262    526.356    503.262
 92.770    683.000    682.327      0.673    503.074    656.111    503.074    529.224    503.074
 92.870    732.000    704.371     27.629    502.886    675.030    502.886    532.155    502.886
 92.970    781.000    725.779     55.221    502.696    693.366    502.696    535.033    502.696
 93.070    692.098    745.745    -53.647    502.505    710.459    502.505    537.713    502.505
 93.170    792.537    763.587     28.950    502.314    725.798    502.314    540.023    502.314
 93.270    819.108    778.884     40.224    502.121    739.144    502.121    541.782    502.121
 93.370    809.000    791.512     17.488    501.927    750.538    501.927    542.823    501.927
 93.470    786.000    801.605    -15.605    501.733    760.234    501.733    543.028    501.733
 93.570    845.018    809.477     35.540    501.537    768.583    501.537    542.358    501.537
 93.670    869.000    815.559     53.441    501.340    775.964    501.340    540.866    501.340
 93.770    851.127    820.380     30.747    501.143    782.778    501.143    538.676    501.143
 93.870    882.000    824.572     57.428    500.944    789.489    500.944    535.962    500.944
 93.970    824.721    828.853     -4.132    500.745    796.630    500.745    532.905    500.745
 94.070    855.000    833.921     21.079    500.545    804.733    500.545    529.672    500.545
 94.170    851.000    840.293     10.707    500.344    814.172    500.344    526.406    500.344
 94.270    905.282    848.129     57.153    500.141    824.995    500.141    523.218    500.141
 94.370    896.000    857.125     38.875    499.938    836.815    499.938    520.194    499.938
 94.470    836.327    866.490    -30.163    499.734    848.782    499.734    517.393    499.734
 94.570    913.000    875.006     37.994    499.530    859.640    499.530    514.851    499.530
 94.670    908.000    881.169     26.831    499.324    867.868    499.324    512.586    499.324
 94.770    911.000    883.407     27.593    499.118    871.891    499.118    510.601    499.118
 94.870    848.182    880.380    -32.198    498.910    870.380    498.910    508.886    498.910
 94.970    847.000    871.293    -24.293    498.702    862.557    498.702    507.422    498.702
 95.070    905.941    856.112     49.829    498.493    848.414    498.493    506.184    498.493
 95.170    904.000    835.585     68.415    498.283    828.725    498.283    505.144    498.283
 95.270    765.469    811.077    -45.608    498.073    804.883    498.073    504.272    498.073
 95.370    831.000    784.319     46.681    497.862    778.649    497.862    503.541    497.862
 95.470    721.381    757.179    -35.798    497.650    751.914    497.650    502.926    497.650
 95.570    739.000    731.554      7.446    497.437    726.599    497.437    502.403    497.437
 95.670    707.000    709.198     -2.198    497.223    704.476    497.223    501.953    497.223
 95.770    703.000    691.697     11.303    497.009    687.149    497.009    501.562    497.009
 95.870    668.000    680.452    -12.452    496.794    676.029    496.794    501.217    496.794
 95.970    670.342    676.665     -6.323    496.578    672.329    496.578    500.907    496.578
 96.070    681.130    681.342     -0.212    496.362    677.062    496.362    500.627    496.362
 96.170    703.000    695.295      7.705    496.145    691.046    496.145    500.369    496.145
 96.270    808.000    719.125     88.875    495.927    714.885    495.927    500.131    495.927
 96.370    765.000    753.177     11.823    495.709    748.928    495.709    499.910    495.709
 96.470    847.000    797.464     49.536    495.489    793.192    495.489    499.704    495.489
 96.570    855.676    851.576      4.100    495.270    847.265    495.270    499.511    495.270
 96.670    875.000    914.568    -39.568    495.050    910.206    495.050    499.331    495.050
 96.770    995.240    984.875     10.364    494.829    980.451    494.829    499.162    494.829
 96.870   1093.749   1060.258     33.491    494.607   1055.763    494.607    499.004    494.607
 96.970   1117.000   1137.777    -20.777    494.385   1133.200    494.385    498.859    494.385
 97.070   1261.000   1213.841     47.159    494.163   1209.173    494.163    498.727    494.163
 97.170   1232.000   1284.332    -52.332    493.939   1279.564    493.939    498.608    493.939
 97.270   1364.000   1344.854     19.146    493.716   1339.977    493.716    498.503    493.716
 97.370   1402.609   1391.148     11.461    493.492   1386.152    493.492    498.412    493.492
 97.470   1425.000   1419.688      5.312    493.267   1414.561    493.267    498.336    493.267
 97.570   1460.000   1428.316     31.684    493.042   1423.044    493.042    498.277    493.042
 97.670   1441.860   1416.677     25.183    492.816   1411.241    492.816    498.236    492.816
 97.770   1456.000   1386.238     69.762    492.590   1380.617    492.590    498.216    492.590
 97.870   1375.154   1339.905     35.249    492.364   1334.072    492.364    498.220    492.364
 97.970   1336.413   1281.457     54.956    492.137   1275.380    492.137    498.252    492.137
 98.070   1263.091   1215.023     48.068    491.909   1208.664    491.909    498.317    491.909
 98.170   1080.012   1144.705    -64.693    491.682   1138.018    491.682    498.423    491.682
 98.270   1083.000   1074.331      8.669    491.454   1067.262    491.454    498.578    491.454
 98.370    953.749   1007.307    -53.558    491.225    999.791    491.225    498.797    491.225
 98.470    976.000    946.539     29.461    490.996    938.491    490.996    499.094    490.996
 98.570    880.724    894.406    -13.682    490.767    885.723    490.767    499.493    490.767
 98.670    879.000    852.784     26.216    490.538    843.337    490.538    500.021    490.538
 98.770    824.000    823.101      0.899    490.308    812.723    490.308    500.712    490.308
 98.870    780.000    806.403    -26.403    490.078    794.887    490.078    501.610    490.078
 98.970    763.000    803.435    -40.435    489.848    790.522    489.848    502.767    489.848
 99.070    793.000    814.693    -21.693    489.618    800.064    489.618    504.244    489.618
 99.170    825.000    840.503    -15.503    489.387    823.768    489.387    506.111    489.387
 99.270    909.000    880.959     28.041    489.156    861.650    489.156    508.448    489.156
 99.370    913.000    935.899    -22.899    488.925    913.465    488.925    511.337    488.925
 99.470   1020.000   1004.842     15.158    488.694    978.645    488.694    514.865    488.694
 99.570   1110.000   1086.890     23.110    488.462   1056.211    488.462    519.117    488.462
 99.670   1175.000   1180.631     -5.631    488.231   1144.674    488.231    524.166    488.231
 99.770   1306.000   1284.049     21.951    487.999   1241.959    487.999    530.075    487.999
 99.870   1408.460   1394.463     13.997    487.767   1345.346    487.767    536.880    487.767
 99.970   1483.000   1508.513    -25.513    487.535   1451.470    487.535    544.589    487.535
100.070   1661.000   1622.238     38.762    487.303   1556.403    487.303    553.170    487.303
100.170   1793.000   1731.270     61.730    487.071   1655.851    487.071    562.544    487.071
100.270   1799.000   1831.156    -32.156    486.839   1745.492    486.839    572.581    486.839
100.370   1888.328   1917.759    -29.431    486.607   1821.379    486.607    583.092    486.607
100.470   1997.000   1987.595      9.405    486.375   1880.280    486.375    593.821    486.375
100.570   2046.000   2037.992      8.008    486.143   1919.846    486.143    604.445    486.143
100.670   2123.721   2067.082     56.639    485.912   1938.601    485.912    614.569    485.912
100.770   2061.273   2073.756    -12.483    485.680   1935.893    485.680    623.738    485.680
100.870   2109.002   2057.763     51.239    485.448   1911.965    485.448    631.455    485.448
100.970   2068.203   2019.949     48.254    485.216   1868.157    485.216    637.225    485.216
101.070   2026.711   1962.497     64.214    484.985   1807.077    484.985    640.625    484.985
101.170   1847.142   1888.937    -41.796    484.754   1732.535    484.754    641.373    484.754
101.270   1789.828   1803.838    -14.010    484.522   1649.181    484.522    639.390    484.522
101.370   1677.650   1712.263    -34.614    484.291   1561.935    484.291    634.818    484.291
101.470   1635.000   1619.190     15.810    484.061   1475.449    484.061    627.986    484.061
101.570   1563.902   1529.039     34.863    483.830   1393.690    483.830    619.348    483.830
101.670   1415.000   1445.363    -30.363    483.600   1319.710    483.600    609.404    483.600
101.770   1425.000   1370.683     54.317    483.370   1255.545    483.370    598.644    483.370
101.870   1316.000   1306.444      9.556    483.140   1202.198    483.140    587.507    483.140
101.970   1200.403   1253.045    -52.642    482.911   1159.696    482.911    576.368    482.911
102.070   1168.476   1209.927    -41.451    482.682   1127.176    482.682    565.530    482.682
102.170   1094.000   1175.714    -81.714    482.453   1103.029    482.453    555.227    482.453
102.270   1163.000   1148.390     14.610    482.225   1085.066    482.225    545.633    482.225
102.370   1110.000   1125.524    -15.524    481.997   1070.741    481.997    536.862    481.997
102.470   1151.082   1104.540     46.542    481.770   1057.415    481.770    528.977    481.770
102.570   1096.000   1083.037     12.963    481.543   1042.664    481.543    521.997    481.543
102.670   1068.123   1059.089      9.034    481.316   1024.582    481.316    515.907    481.316
102.770   1048.248   1031.484     16.764    481.091   1001.998    481.091    510.660    481.091
102.870   1047.783    999.797     47.986    480.865    974.554    480.865    506.192    480.865
102.970    959.000    964.306     -5.306    480.640    942.606    480.640    502.424    480.640
103.070    908.000    925.800    -17.800    480.416    907.026    480.416    499.270    480.416
103.170    831.000    885.357    -54.357    480.192    868.981    480.192    496.645    480.192
103.270    806.000    844.164    -38.164    479.969    829.740    479.969    494.466    479.969
103.370    793.000    803.385    -10.385    479.747    790.542    479.747    492.656    479.747
103.470    777.000    764.068     12.932    479.525    752.504    479.525    491.148    479.525
103.570    741.000    727.092     13.908    479.304    716.565    479.304    489.884    479.304
103.670    736.173    693.132     43.041    479.083    683.448    479.083    488.813    479.083
103.770    693.000    662.638     30.362    478.864    653.645    478.864    487.896    478.864
103.870    636.605    635.851      0.754    478.645    627.429    478.645    487.099    478.645
103.970    652.000    612.811     39.189    478.427    604.867    478.427    486.398    478.427
104.070    668.000    593.387     74.613    478.209    585.848    478.209    485.771    478.209
104.170    600.000    577.340     22.660    477.993    570.148    477.993    485.203    477.993
104.270    596.000    564.334     31.666    477.777    557.442    477.777    484.683    477.777
104.370    554.000    553.988      0.012    477.563    547.359    477.563    484.201    477.563
104.470    571.492    545.917     25.575    477.349    539.521    477.349    483.752    477.349
104.570    519.764    539.750    -19.986    477.136    533.561    477.136    483.330    477.136
104.670    513.677    535.157    -21.480    476.924    529.152    476.924    482.932    476.924
104.770    509.374    531.853    -22.480    476.714    526.015    476.714    482.553    476.714
104.870    532.000    529.612      2.388    476.504    523.922    476.504    482.193    476.504
104.970    554.000    528.262     25.738    476.295    522.706    476.295    481.850    476.295
105.070    544.000    527.686     16.314    476.087    522.249    476.087    481.521    476.087
105.170    558.000    527.817     30.183    475.881    522.487    475.881    481.206    475.881
105.270    542.000    528.635     13.365    475.675    523.400    475.675    480.904    475.675
105.370    538.000    530.160      7.840    475.471    525.010    475.471    480.613    475.471
105.470    570.000    532.448     37.552    475.268    527.372    475.268    480.334    475.268
105.570    551.000    535.578     15.422    475.066    530.567    475.066    480.066    475.066
105.670    514.925    539.649    -24.723    474.865    534.693    474.865    479.807    474.865
105.770    530.000    544.762    -14.762    474.666    539.853    474.666    479.558    474.666
105.870    594.000    551.009     42.991    474.468    546.139    474.468    479.318    474.468
105.970    550.441    558.457     -8.015    474.271    553.619    474.271    479.087    474.271
106.070    560.000    567.133     -7.133    474.076    562.318    474.076    478.865    474.076
106.170    563.000    577.011    -14.011    473.882    572.214    473.882    478.650    473.882
106.270    579.821    588.004     -8.184    473.689    583.218    473.689    478.444    473.689
106.370    594.000    599.960     -5.960    473.498    595.178    473.498    478.245    473.498
106.470    609.000    612.652     -3.652    473.308    607.868    473.308    478.054    473.308
106.570    619.364    625.787     -6.423    473.120    620.995    473.120    477.871    473.120
106.670    589.651    639.012    -49.361    472.934    634.207    472.934    477.694    472.934
106.770    620.000    651.924    -31.924    472.748    647.101    472.748    477.526    472.748
106.870    642.000    664.090    -22.090    472.565    659.245    472.565    477.364    472.565
106.970    662.000    675.073    -13.073    472.383    670.200    472.383    477.210    472.383
107.070    640.000    684.473    -44.473    472.203    679.567    472.203    477.064    472.203
107.170    665.000    691.971    -26.971    472.024    687.029    472.024    476.924    472.024
107.270    651.000    697.389    -46.389    471.848    692.404    471.848    476.792    471.848
107.370    713.956    700.721     13.235    471.673    695.688    471.673    476.668    471.673
107.470    694.831    702.145     -7.314    471.499    697.061    471.499    476.551    471.499
107.570    674.000    701.999    -27.999    471.328    696.856    471.328    476.442    471.328
107.670    661.000    700.717    -39.717    471.158    695.510    471.158    476.341    471.158
107.770    663.000    698.770    -35.770    470.990    693.492    470.990    476.248    470.990
107.870    706.000    696.600      9.400    470.825    691.246    470.825    476.163    470.825
107.970    653.000    694.583    -41.583    470.661    689.145    470.661    476.087    470.661
108.070    687.000    692.990     -5.990    470.499    687.462    470.499    476.019    470.499
108.170    668.000    691.972    -23.972    470.339    686.347    470.339    475.960    470.339
108.270    646.494    691.555    -45.061    470.181    685.825    470.181    475.911    470.181
108.370    648.000    691.633    -43.633    470.025    685.790    470.025    475.871    470.025
108.470    669.000    691.983    -22.983    469.871    686.019    469.871    475.842    469.871
108.570    681.000    692.281    -11.281    469.720    686.188    469.720    475.823    469.720
108.670    652.000    692.135    -40.135    469.570    685.904    469.570    475.814    469.570
108.770    685.000    691.131     -6.131    469.423    684.752    469.423    475.817    469.423
108.870    698.000    688.886      9.114    469.278    682.350    469.278    475.832    469.278
108.970    633.228    685.106    -51.879    469.135    678.402    469.135    475.860    469.135
109.070    634.000    679.635    -45.635    468.995    672.752    468.995    475.900    468.995
109.170    648.000    672.466    -24.466    468.857    665.397    468.857    475.949    468.857
109.270    693.000    663.750     29.250    468.721    656.477    468.721    476.017    468.721
109.370    605.000    653.740    -48.740    468.588    646.249    468.588    476.102    468.588
109.470    650.000    642.757      7.243    468.457    635.034    468.457    476.203    468.457
109.570    667.248    631.137     36.111    468.329    623.166    468.329    476.321    468.329
109.670    641.000    619.264     21.736    468.203    611.029    468.203    476.458    468.203
109.770    585.363    607.491    -22.128    468.079    598.974    468.079    476.615    468.079
109.870    608.000    596.099     11.901    467.959    587.280    467.959    476.794    467.959
109.970    649.000    585.340     63.660    467.840    576.198    467.840    476.997    467.840
110.070    602.809    575.419     27.390    467.725    565.931    467.725    477.225    467.725
110.170    562.000    566.486     -4.486    467.612    556.627    467.612    477.482    467.612
110.270    601.000    558.632     42.368    467.502    548.382    467.502    477.761    467.502
110.370    558.000    551.922      6.078    467.395    541.239    467.395    478.085    467.395
110.470    589.000    546.356     42.644    467.291    535.200    467.291    478.451    467.291
110.570    514.706    541.901    -27.195    467.189    530.228    467.189    478.865    467.189
110.670    570.164    538.501     31.663    467.090    526.258    467.090    479.334    467.090
110.770    563.000    536.079     26.921    466.994    523.205    466.994    479.869    466.994
110.870    533.095    534.549     -1.454    466.901    520.969    466.901    480.480    466.901
110.970    493.423    533.824    -40.401    466.812    519.448    466.812    481.185    466.812
111.070    537.000    533.819      3.181    466.725    518.540    466.725    482.000    466.725
111.170    546.000    534.458     11.542    466.641    518.145    466.641    482.950    466.641
111.270    525.000    535.681    -10.681    466.560    518.174    466.560    484.062    466.560
111.370    544.927    537.439      7.488    466.483    518.546    466.483    485.369    466.483
111.470    509.000    539.703    -30.703    466.409    519.192    466.409    486.913    466.409
111.570    563.000    542.462     20.538    466.337    520.052    466.337    488.740    466.337
111.670    535.000    545.722    -10.722    466.270    521.080    466.270    490.904    466.270
111.770    527.387    549.510    -22.123    466.205    522.237    466.205    493.470    466.205
111.870    531.884    553.870    -21.986    466.144    523.499    466.144    496.506    466.144
111.970    520.000    558.867    -38.867    466.086    524.852    466.086    500.093    466.086
112.070    533.000    564.580    -31.580    466.032    526.290    466.032    504.313    466.032
112.170    578.000    571.108      6.892    465.981    527.821    465.981    509.259    465.981
112.270    585.000    578.559      6.441    465.933    529.459    465.933    515.024    465.933
112.370    655.000    587.052     67.948    465.890    531.229    465.890    521.703    465.890
112.470    555.214    596.709    -41.496    465.849    533.163    465.849    529.387    465.849
112.570    606.607    607.658     -1.051    465.813    535.300    465.813    538.162    465.813
112.670    630.000    620.024      9.976    465.780    537.693    465.780    548.101    465.780
112.770    654.000    633.928     20.072    465.751    540.405    465.751    559.264    465.751
112.870    675.000    649.490     25.510    465.725    543.519    465.725    571.686    465.725
112.970    637.350    666.827    -29.477    465.703    547.142    465.703    585.378    465.703
113.070    705.624    686.057     19.566    465.686    551.415    465.686    600.317    465.686
113.170    743.951    707.305     36.646    465.672    556.520    465.672    616.444    465.672
113.270    687.083    730.711    -43.628    465.662    562.699    465.662    633.659    465.662
113.370    774.000    756.444     17.556    465.655    570.270    465.655    651.815    465.655
113.470    743.000    784.720    -41.720    465.653    579.642    465.653    670.714    465.653
113.570    793.000    815.816    -22.816    465.655    591.344    465.655    690.108    465.655
113.670    857.000    850.100      6.900    465.661    606.048    465.661    709.690    465.661
113.770    834.682    888.050    -53.368    465.672    624.597    465.672    729.096    465.672
113.870    981.752    930.285     51.467    465.686    648.030    465.686    747.905    465.686
113.970    959.679    977.594    -17.915    465.705    677.612    465.705    765.642    465.705
114.070   1017.771   1030.966    -13.195    465.728    714.848    465.728    781.791    465.728
114.170   1022.000   1091.625    -69.625    465.755    761.499    465.755    795.811    465.755
114.270   1050.000   1161.057   -111.057    465.787    819.582    465.787    807.176    465.787
114.370   1258.000   1241.042     16.958    465.823    891.351    465.823    815.408    465.823
114.470   1361.000   1333.663     27.337    465.863    979.260    465.863    820.136    465.863
114.570   1416.000   1441.286    -25.286    465.908   1085.903    465.908    821.133    465.908
114.670   1533.000   1566.507    -33.507    465.958   1213.920    465.958    818.353    465.958
114.770   1671.000   1712.036    -41.036    466.012   1365.886    466.012    811.933    466.012
114.870   1916.000   1880.537     35.463    466.070   1544.159    466.070    802.177    466.070
114.970   2114.000   2074.417     39.583    466.134   1750.719    466.134    789.514    466.134
115.070   2372.729   2295.593     77.135    466.202   1986.975    466.202    774.454    466.202
115.170   2578.000   2545.256     32.744    466.275   2253.579    466.275    757.534    466.275
115.270   2855.000   2823.637     31.363    466.353   2550.232    466.353    739.287    466.353
115.370   3133.000   3129.815      3.185    466.436   2875.518    466.436    720.212    466.436
115.470   3492.000   3461.562     30.438    466.523   3226.760    466.523    700.757    466.523
115.570   3723.000   3815.235    -92.235    466.616   3599.925    466.616    681.315    466.616
115.670   4199.435   4185.736     13.699    466.713   3989.581    466.713    662.222    466.713
115.770   4423.000   4566.530   -143.530    466.816   4388.919    466.816    643.755    466.816
115.870   4783.000   4949.729   -166.729    466.924   4789.829    466.924    626.138    466.924
115.970   5212.000   5326.248   -114.248    467.037   5183.058    467.037    609.542    467.037
116.070   5486.000   5686.038   -200.038    467.155   5558.433    467.155    594.090    467.155
116.170   5944.734   6018.396    -73.662    467.278   5905.174    467.278    579.863    467.278
116.270   6220.000   6312.390    -92.390    467.407   6212.309    467.407    566.900    467.407
116.370   6545.361   6557.401    -12.040    467.541   6469.214    467.541    555.207    467.541
116.470   6607.840   6743.805   -135.965    467.680   6666.286    467.680    544.760    467.680
116.570   6845.000   6863.724    -18.724    467.825   6795.693    467.825    535.512    467.825
116.670   6844.205   6911.797    -67.592    467.976   6852.138    467.976    527.395    467.976
116.770   6952.034   6885.788     66.246    468.132   6833.459    468.132    520.330    468.132
116.870   6813.703   6786.746     26.956    468.293   6740.790    468.293    514.227    468.293
116.970   6687.000   6618.938     68.062    468.461   6578.486    468.461    508.993    468.461
117.070   6428.000   6389.328     38.672    468.634   6353.602    468.634    504.533    468.634
117.170   6149.000   6106.864     42.136    468.812   6075.175    468.812    500.755    468.812
117.270   5727.000   5781.712    -54.712    468.997   5753.458    468.997    497.571    468.997
117.370   5322.000   5424.557   -102.557    469.187   5399.215    469.187    494.899    469.187
117.470   5103.000   5046.025     56.975    469.384   5023.148    469.384    492.665    469.384
117.570   4653.000   4656.242     -3.242    469.586   4635.450    469.586    490.802    469.586
117.670   4185.935   4264.496    -78.561    469.794   4245.469    469.794    489.252    469.794
117.770   3926.579   3878.997     47.582    470.009   3861.467    470.009    487.963    470.009
117.870   3472.845   3506.711    -33.866    470.229   3490.456    470.229    486.892    470.229
117.970   3241.000   3153.274     87.726    470.456   3138.111    470.456    486.003    470.456
118.070   2944.000   2822.969    121.031    470.689   2808.746    470.689    485.264    470.689
118.170   2573.000   2518.766     54.234    470.928   2505.361    470.928    484.651    470.928
118.270   2321.290   2242.418     78.871    471.174   2229.730    471.174    484.143    471.174
118.370   2047.000   1994.594     52.406    471.426   1982.541    471.426    483.722    471.426
118.470   1742.000   1775.033    -33.033    471.684   1763.547    471.684    483.377    471.684
118.570   1600.000   1582.718     17.282    471.949   1571.744    471.949    483.095    471.949
118.670   1405.000   1416.051    -11.051    472.221   1405.544    472.221    482.869    472.221
118.770   1243.000   1273.025    -30.025    472.499   1262.946    472.499    482.691    472.499
118.870   1089.000   1151.379    -62.379    472.784   1141.695    472.784    482.556    472.784
118.970   1062.000   1048.736     13.264    473.075   1039.419    473.075    482.459    473.075
119.070    993.000    962.726     30.274    473.374    953.752    473.374    482.398    473.374
119.170    873.569    891.071    -17.501    473.679    882.417    473.679    482.369    473.679
119.270    778.245    831.652    -53.407    473.991    823.298    473.991    482.371    473.991
119.370    786.008    782.554      3.454    474.310    774.480    474.310    482.401    474.310
119.470    723.748    742.082    -18.334    474.636    734.270    474.636    482.459    474.636
119.570    704.112    708.767     -4.655    474.969    701.200    474.969    482.544    474.969
119.670    663.000    681.363    -18.363    475.309    674.023    475.309    482.654    475.309
119.770    632.767    658.823    -26.056    475.657    651.694    475.657    482.789    475.657
119.870    615.850    640.285    -24.435    476.011    633.349    476.011    482.949    476.011
119.970    635.000    625.045      9.955    476.373    618.285    476.373    483.135    476.373
120.070    646.489    612.535     33.954    476.742    605.934    476.742    483.345    476.742
120.170    556.826    602.299    -45.473    477.119    595.840    477.119    483.580    477.119
120.270    576.000    593.978    -17.978    477.503    587.642    477.503    483.841    477.503
120.370    634.713    587.284     47.428    477.895    581.054    477.895    484.128    477.895
120.470    558.000    581.996    -23.996    478.294    575.852    478.294    484.441    478.294
120.570    548.155    577.937    -29.782    478.701    571.859    478.701    484.782    478.701
120.670    588.000    574.970     13.030    479.116    568.940    479.116    485.151    479.116
120.770    575.000    572.989      2.011    479.538    566.985    479.538    485.548    479.538
120.870    555.425    571.909    -16.483    479.968    565.909    479.968    485.974    479.968
120.970    585.000    571.661     13.339    480.407    565.644    480.407    486.430    480.407
121.070    580.000    572.188      7.812    480.853    566.132    480.853    486.916    480.853
121.170    574.074    573.439      0.635    481.307    567.321    481.307    487.433    481.307
121.270    580.000    575.367      4.633    481.769    569.166    481.769    487.981    481.769
121.370    569.936    577.923     -7.987    482.239    571.616    482.239    488.559    482.239
121.470    623.742    581.056     42.686    482.718    574.621    482.718    489.167    482.718
121.570    559.000    584.708    -25.708    483.204    578.124    483.204    489.804    483.204
121.670    583.000    588.814     -5.814    483.699    582.062    483.699    490.470    483.699
121.770    590.000    593.302     -3.302    484.203    586.364    484.203    491.162    484.203
121.870    554.000    598.091    -44.091    484.715    590.949    484.715    491.879    484.715
121.970    589.000    603.088    -14.088    485.235    595.730    485.235    492.619    485.235
122.070    613.418    608.193      5.225    485.764    600.609    485.764    493.377    485.764
122.170    621.000    613.300      7.700    486.302    605.482    486.302    494.152    486.302
122.270    617.000    618.294     -1.294    486.848    610.239    486.848    494.938    486.848
122.370    591.000    623.059    -32.059    487.403    614.767    487.403    495.732    487.403
122.470    617.000    627.475    -10.475    487.967    618.955    487.967    496.528    487.967
122.570    656.000    631.431     24.569    488.540    622.692    488.540    497.320    488.540
122.670    620.000    634.821    -14.821    489.121    625.883    489.121    498.104    489.121
122.770    636.000    637.557     -1.557    489.712    628.443    489.712    498.872    489.712
122.870    629.000    639.572    -10.572    490.312    630.313    490.312    499.619    490.312
122.970    696.000    640.824     55.176    490.921    631.455    490.921    500.338    490.921
123.070    672.000    641.299     30.701    491.539    631.862    491.539    501.024    491.539
123.170    658.000    641.010     16.990    492.166    631.551    492.166    501.674    492.166
123.270    646.000    639.998      6.002    492.803    630.565    492.803    502.283    492.803
123.370    621.000    638.320    -17.320    493.449    628.963    493.449    502.853    493.449
123.470    608.813    636.052    -27.239    494.105    626.819    494.105    503.382    494.105
123.570    673.557    633.277     40.280    494.770    624.216    494.770    503.874    494.770
123.670    653.752    630.085     23.667    495.445    621.238    495.445    504.332    495.445
123.770    612.000    626.566    -14.566    496.129    617.970    496.129    504.763    496.129
123.870    654.000    622.807     31.193    496.824    614.495    496.824    505.170    496.824
123.970    563.000    618.891    -55.891    497.528    610.888    497.528    505.561    497.528
124.070    639.000    614.891     24.109    498.242    607.218    498.242    505.942    498.242
124.170    572.624    610.871    -38.248    498.965    603.543    498.965    506.319    498.965
124.270    660.000    606.886     53.114    499.699    599.911    499.699    506.696    499.699
124.370    602.299    602.976     -0.677    500.443    596.358    500.443    507.080    500.443
124.470    648.711    599.172     49.538    501.197    592.911    501.197    507.475    501.197
124.570    572.000    595.494    -23.494    501.962    589.585    501.962    507.885    501.962
124.670    601.000    591.952      9.048    502.736    586.387    502.736    508.313    502.736
124.770    625.323    588.548     36.775    503.521    583.317    503.521    508.762    503.521
124.870    564.000    585.281    -21.281    504.317    580.371    504.317    509.235    504.317
124.970    568.000    582.141    -14.141    505.123    577.537    505.123    509.733    505.123
