neutron_powder_diffraction_0171
R_wp: 3.713
Temperature (K): 1074.000
Counts: 84290.00
Wavelength (Ã…): 2.52098
COMMENTS
Test file for demonstrating the .xyy file format in Reel1.0
END OF HEADER
   tth       Y_obs     Y_calc      Y_res    Background    Phase_1_Nuc    Phase_1_Mag    Phase_2_Nuc    Phase_2_Mag
  9.970    605.417    573.983     31.434    573.322    573.924    573.322    573.380    573.322
 10.070    604.000    574.051     29.949    573.335    573.991    573.335    573.394    573.335
 10.170    607.000    574.122     32.878    573.344    574.063    573.344    573.403    573.344
 10.270    578.000    574.214      3.786    573.347    574.154    573.347    573.407    573.347
 10.370    634.000    574.299     59.701    573.346    574.239    573.346    573.406    573.346
 10.470    568.139    574.390     -6.251    573.340    574.329    573.340    573.400    573.340
 10.570    600.000    574.494     25.506    573.329    574.433    573.329    573.389    573.329
 10.670    545.035    574.615    -29.580    573.313    574.554    573.313    573.373    573.313
 10.770    628.000    574.760     53.240    573.292    574.698    573.292    573.353    573.292
 10.870    580.000    574.937      5.063    573.267    574.875    573.267    573.328    573.267
 10.970    610.000    575.157     34.843    573.237    575.095    573.237    573.298    573.237
 11.070    578.200    575.439      2.762    573.203    575.376    573.203    573.264    573.203
 11.170    585.000    575.805      9.195    573.164    575.742    573.164    573.225    573.164
 11.270    533.080    576.294    -43.215    573.120    576.231    573.120    573.182    573.120
 11.370    555.000    576.971    -21.971    573.072    576.907    573.072    573.134    573.072
 11.470    543.688    577.977    -34.289    573.020    577.912    573.020    573.082    573.020
 11.570    615.608    579.703     35.905    572.963    579.636    572.963    573.026    572.963
 11.670    625.000    583.291     41.709    572.902    583.222    572.902    572.965    572.902
 11.770    596.728    591.462      5.266    572.836    591.388    572.836    572.900    572.836
 11.870    643.000    608.709     34.291    572.767    608.625    572.767    572.830    572.767
 11.970    682.000    638.646     43.354    572.693    638.544    572.693    572.757    572.693
 12.070    663.616    677.505    -13.889    572.615    677.382    572.615    572.679    572.615
 12.170    697.000    708.188    -11.188    572.533    708.046    572.533    572.597    572.533
 12.270    685.000    709.108    -24.108    572.447    708.966    572.447    572.512    572.447
 12.370    653.898    679.353    -25.456    572.357    679.227    572.357    572.422    572.357
 12.470    614.000    640.134    -26.134    572.263    640.030    572.263    572.328    572.263
 12.570    636.510    609.326     27.184    572.165    609.239    572.165    572.230    572.165
 12.670    581.000    591.301    -10.301    572.063    591.224    572.063    572.129    572.063
 12.770    625.513    582.623     42.890    571.957    582.551    571.957    572.024    571.957
 12.870    607.000    578.724     28.276    571.848    578.653    571.848    571.914    571.848
 12.970    555.000    576.777    -21.777    571.734    576.707    571.734    571.802    571.734
 13.070    592.000    575.584     16.416    571.618    575.514    571.618    571.685    571.618
 13.170    558.937    574.729    -15.791    571.497    574.659    571.497    571.565    571.497
 13.270    583.962    574.067      9.895    571.373    573.997    571.373    571.441    571.373
 13.370    537.000    573.534    -36.534    571.245    573.460    571.245    571.318    571.245
 13.470    549.000    573.087    -24.087    571.114    573.012    571.114    571.189    571.114
 13.570    533.000    572.702    -39.702    570.979    572.626    570.979    571.054    570.979
 13.670    566.000    572.362     -6.362    570.841    572.286    570.841    570.917    570.841
 13.770    554.000    572.056    -18.056    570.700    571.979    570.700    570.775    570.700
 13.870    533.346    571.775    -38.429    570.555    571.698    570.555    570.631    570.555
 13.970    557.000    571.513    -14.513    570.407    571.436    570.407    570.483    570.407
 14.070    598.641    571.267     27.374    570.255    571.189    570.255    570.332    570.255
 14.170    579.000    571.031      7.969    570.100    570.953    570.100    570.178    570.100
 14.270    546.000    570.804    -24.804    569.942    570.725    569.942    570.020    569.942
 14.370    579.000    570.583      8.417    569.781    570.504    569.781    569.859    569.781
 14.470    560.000    570.367    -10.367    569.617    570.288    569.617    569.696    569.617
 14.570    548.000    570.154    -22.154    569.450    570.075    569.450    569.529    569.450
 14.670    569.000    569.945     -0.945    569.280    569.865    569.280    569.359    569.280
 14.770    593.508    569.737     23.772    569.106    569.657    569.106    569.186    569.106
 14.870    534.183    569.530    -35.347    568.930    569.449    568.930    569.010    568.930
 14.970    550.972    569.324    -18.352    568.751    569.243    568.751    568.832    568.751
 15.070    525.000    569.118    -44.118    568.569    569.036    568.569    568.650    568.569
 15.170    604.415    568.914     35.501    568.384    568.833    568.384    568.466    568.384
 15.270    542.000    568.709    -26.709    568.196    568.627    568.196    568.278    568.196
 15.370    543.000    568.502    -25.502    568.006    568.419    568.006    568.088    568.006
 15.470    589.000    568.293     20.707    567.813    568.210    567.813    567.896    567.813
 15.570    595.000    568.084     26.916    567.617    568.000    567.617    567.700    567.617
 15.670    559.000    567.873     -8.873    567.418    567.789    567.418    567.502    567.418
 15.770    534.879    567.661    -32.781    567.217    567.576    567.217    567.302    567.217
 15.870    563.000    567.447     -4.447    567.014    567.362    567.014    567.098    567.014
 15.970    598.000    567.232     30.768    566.807    567.147    566.807    566.893    566.807
 16.070    558.127    567.016     -8.889    566.599    566.930    566.599    566.685    566.599
 16.170    584.740    566.797     17.942    566.388    566.711    566.388    566.474    566.388
 16.270    560.973    566.577     -5.605    566.174    566.491    566.174    566.261    566.174
 16.370    582.750    566.356     16.394    565.958    566.268    565.958    566.045    565.958
 16.470    525.000    566.132    -41.132    565.740    566.045    565.740    565.828    565.740
 16.570    536.000    565.907    -29.907    565.519    565.819    565.519    565.607    565.519
 16.670    566.000    565.681      0.319    565.296    565.592    565.296    565.385    565.296
 16.770    588.000    565.452     22.548    565.071    565.363    565.071    565.160    565.071
 16.870    587.276    565.223     22.053    564.844    565.133    564.844    564.934    564.844
 16.970    534.892    564.993    -30.100    564.614    564.902    564.614    564.705    564.614
 17.070    538.000    564.759    -26.759    564.382    564.668    564.382    564.474    564.382
 17.170    547.000    564.524    -17.524    564.149    564.433    564.149    564.240    564.149
 17.270    546.937    564.287    -17.350    563.913    564.195    563.913    564.005    563.913
 17.370    580.295    564.049     16.246    563.675    563.956    563.675    563.768    563.675
 17.470    566.000    563.808      2.192    563.435    563.715    563.435    563.529    563.435
 17.570    595.744    563.566     32.178    563.193    563.472    563.193    563.287    563.193
 17.670    569.000    563.323      5.677    562.949    563.228    562.949    563.044    562.949
 17.770    574.000    563.078     10.922    562.704    562.982    562.704    562.799    562.704
 17.870    574.000    562.833     11.167    562.456    562.737    562.456    562.552    562.456
 17.970    563.643    562.585      1.058    562.207    562.488    562.207    562.303    562.207
 18.070    529.368    562.335    -32.967    561.956    562.238    561.956    562.053    561.956
 18.170    534.949    562.084    -27.135    561.703    561.986    561.703    561.801    561.703
 18.270    548.998    561.832    -12.834    561.448    561.733    561.448    561.547    561.448
 18.370    520.030    561.578    -41.547    561.192    561.478    561.192    561.291    561.192
 18.470    553.000    561.322     -8.322    560.933    561.222    560.933    561.034    560.933
 18.570    543.000    561.067    -18.067    560.674    560.964    560.674    560.777    560.674
 18.670    566.000    560.810      5.190    560.412    560.705    560.412    560.517    560.412
 18.770    551.000    560.550     -9.550    560.150    560.445    560.150    560.255    560.150
 18.870    521.000    560.289    -39.289    559.885    560.183    559.885    559.991    559.885
 18.970    562.751    560.027      2.724    559.619    559.920    559.619    559.726    559.619
 19.070    589.000    559.764     29.236    559.352    559.656    559.352    559.460    559.352
 19.170    556.507    559.500     -2.993    559.083    559.391    559.083    559.192    559.083
 19.270    601.000    559.234     41.766    558.813    559.125    558.813    558.922    558.813
 19.370    554.000    558.968     -4.968    558.541    558.857    558.541    558.651    558.541
 19.470    539.000    558.700    -19.700    558.268    558.588    558.268    558.379    558.268
 19.570    550.000    558.431     -8.431    557.994    558.319    557.994    558.106    557.994
 19.670    551.000    558.162     -7.162    557.718    558.049    557.718    557.831    557.718
 19.770    544.000    557.893    -13.893    557.441    557.779    557.441    557.555    557.441
 19.870    585.000    557.622     27.378    557.163    557.507    557.163    557.278    557.163
 19.970    552.000    557.349     -5.349    556.884    557.233    556.884    557.000    556.884
 20.070    573.000    557.076     15.924    556.603    556.959    556.603    556.720    556.603
 20.170    553.000    556.803     -3.803    556.321    556.685    556.321    556.440    556.321
 20.270    571.000    556.528     14.472    556.039    556.409    556.039    556.158    556.039
 20.370    533.801    556.253    -22.453    555.755    556.133    555.755    555.875    555.755
 20.470    543.000    555.979    -12.979    555.470    555.858    555.470    555.591    555.470
 20.570    590.000    555.717     34.283    555.184    555.594    555.184    555.306    555.184
 20.670    520.000    555.450    -35.450    554.897    555.326    554.897    555.021    554.897
 20.770    555.000    555.174     -0.174    554.609    555.050    554.609    554.734    554.609
 20.870    570.000    554.898     15.102    554.320    554.772    554.320    554.446    554.320
 20.970    588.112    554.621     33.491    554.030    554.493    554.030    554.158    554.030
 21.070    537.000    554.352    -17.352    553.739    554.223    553.739    553.868    553.739
 21.170    538.000    554.158    -16.158    553.448    554.028    553.448    553.578    553.448
 21.270    555.000    553.903      1.097    553.155    553.771    553.155    553.287    553.155
 21.370    504.000    553.628    -49.628    552.862    553.495    552.862    552.995    552.862
 21.470    560.813    553.352      7.462    552.568    553.218    552.568    552.702    552.568
 21.570    523.000    553.076    -30.076    552.273    552.941    552.273    552.409    552.273
 21.670    542.000    552.802    -10.802    551.978    552.664    551.978    552.115    551.978
 21.770    545.000    552.528     -7.528    551.682    552.389    551.682    551.821    551.682
 21.870    553.000    552.255      0.745    551.385    552.115    551.385    551.525    551.385
 21.970    545.929    551.984     -6.055    551.087    551.842    551.087    551.229    551.087
 22.070    529.348    551.714    -22.366    550.789    551.570    550.789    550.933    550.789
 22.170    584.265    551.448     32.817    550.490    551.302    550.490    550.636    550.490
 22.270    513.000    551.203    -38.203    550.191    551.056    550.191    550.338    550.191
 22.370    564.000    550.967     13.033    549.891    550.818    549.891    550.040    549.891
 22.470    529.785    550.711    -20.926    549.590    550.560    549.590    549.742    549.590
 22.570    561.314    550.456     10.858    549.289    550.303    549.289    549.443    549.289
 22.670    564.000    550.211     13.789    548.988    550.055    548.988    549.144    548.988
 22.770    568.967    550.010     18.957    548.686    549.853    548.686    548.844    548.686
 22.870    552.744    549.791      2.952    548.384    549.631    548.384    548.544    548.384
 22.970    563.422    549.565     13.857    548.081    549.403    548.081    548.244    548.081
 23.070    537.000    549.350    -12.350    547.778    549.185    547.778    547.943    547.778
 23.170    538.786    549.150    -10.364    547.474    548.983    547.474    547.642    547.474
 23.270    535.000    548.963    -13.963    547.170    548.793    547.170    547.341    547.170
 23.370    535.511    548.798    -13.287    546.866    548.625    546.866    547.040    546.866
 23.470    553.000    548.660      4.340    546.562    548.485    546.562    546.738    546.562
 23.570    507.629    548.559    -40.930    546.257    548.381    546.257    546.436    546.257
 23.670    590.095    548.507     41.588    545.952    548.325    545.952    546.135    545.952
 23.770    570.587    548.522     22.065    545.647    548.338    545.647    545.833    545.647
 23.870    547.000    548.634     -1.634    545.342    548.447    545.342    545.531    545.342
 23.970    545.815    548.895     -3.081    545.036    548.704    545.036    545.229    545.036
 24.070    542.873    549.429     -6.556    544.731    549.235    544.731    544.927    544.731
 24.170    536.000    550.590    -14.590    544.425    550.393    544.425    544.625    544.425
 24.270    564.000    553.347     10.653    544.119    553.149    544.119    544.324    544.119
 24.370    557.000    559.773     -2.773    543.813    559.574    543.813    544.022    543.813
 24.470    563.000    572.813     -9.813    543.507    572.619    543.507    543.721    543.507
 24.570    628.914    594.011     34.903    543.201    593.828    543.201    543.419    543.201
 24.670    661.329    619.250     42.078    542.895    619.080    542.895    543.118    542.895
 24.770    653.000    636.023     16.977    542.589    635.860    542.589    542.818    542.589
 24.870    647.024    631.904     15.120    542.283    631.732    542.283    542.517    542.283
 24.970    587.435    610.275    -22.840    541.977    610.082    541.977    542.217    541.977
 25.070    626.000    585.072     40.928    541.671    584.855    541.671    541.918    541.671
 25.170    545.045    566.011    -20.966    541.365    565.773    541.365    541.619    541.365
 25.270    557.000    554.887      2.113    541.059    554.634    541.059    541.320    541.059
 25.370    511.628    549.394    -37.766    540.754    549.130    540.754    541.022    540.754
 25.470    566.000    546.778     19.222    540.448    546.504    540.448    540.725    540.448
 25.570    543.000    545.363     -2.363    540.143    545.079    540.143    540.429    540.143
 25.670    506.323    544.437    -38.114    539.838    544.143    539.838    540.133    539.838
 25.770    557.631    543.741     13.891    539.533    543.437    539.533    539.838    539.533
 25.870    519.635    543.186    -23.551    539.228    542.870    539.228    539.544    539.228
 25.970    563.000    542.730     20.270    538.923    542.403    538.923    539.251    538.923
 26.070    540.000    542.347     -2.347    538.619    542.007    538.619    538.960    538.619
 26.170    532.000    542.022    -10.022    538.315    541.668    538.315    538.669    538.315
 26.270    565.000    541.748     23.252    538.012    541.380    538.012    538.381    538.012
 26.370    519.000    541.522    -22.522    537.708    541.138    537.708    538.093    537.708
 26.470    545.000    541.344      3.656    537.405    540.941    537.405    537.808    537.405
 26.570    563.986    541.216     22.770    537.103    540.794    537.103    537.524    537.103
 26.670    545.000    541.166      3.834    536.800    540.723    536.800    537.243    536.800
 26.770    543.000    541.173      1.827    536.499    540.707    536.499    536.964    536.499
 26.870    594.000    541.234     52.766    536.197    540.742    536.197    536.689    536.197
 26.970    589.000    541.384     47.616    535.896    540.864    535.896    536.416    535.896
 27.070    576.000    541.640     34.360    535.596    541.089    535.596    536.147    535.596
 27.170    516.000    542.042    -26.042    535.295    541.456    535.295    535.882    535.295
 27.270    563.000    542.641     20.359    534.996    542.015    534.996    535.621    534.996
 27.370    534.910    543.517     -8.606    534.697    542.846    534.697    535.366    534.697
 27.470    548.000    544.823      3.177    534.398    544.102    534.398    535.118    534.398
 27.570    553.000    546.943      6.057    534.100    546.164    534.100    534.876    534.100
 27.670    557.000    551.203      5.797    533.802    550.358    533.802    534.644    533.802
 27.770    552.000    562.291    -10.291    533.505    561.367    533.505    534.422    533.505
 27.870    637.499    592.234     45.266    533.209    591.213    533.209    534.212    533.209
 27.970    679.000    659.893     19.107    532.913    658.750    532.913    534.018    532.913
 28.070    798.000    773.719     24.281    532.618    772.423    532.618    533.842    532.618
 28.170    909.000    901.173      7.827    532.324    899.707    532.324    533.689    532.324
 28.270    879.000    963.871    -84.871    532.030    962.237    532.030    533.566    532.030
 28.370    876.000    910.450    -34.450    531.736    908.645    531.736    533.481    531.736
 28.470    810.000    795.441     14.559    531.444    793.414    531.444    533.447    531.444
 28.570    704.000    706.542     -2.542    531.152    704.197    531.152    533.486    531.152
 28.670    729.000    689.074     39.926    530.861    686.288    530.861    533.632    530.861
 28.770    748.165    737.773     10.392    530.570    734.384    530.570    533.940    530.570
 28.870    830.000    810.468     19.532    530.280    806.243    530.280    534.492    530.280
 28.970    825.000    844.838    -19.838    529.992    839.429    529.992    535.403    529.992
 29.070    761.000    804.309    -43.309    529.703    797.216    529.703    536.810    529.703
 29.170    719.349    720.971     -1.622    529.416    711.548    529.416    538.853    529.416
 29.270    663.000    644.566     18.434    529.129    632.081    529.129    541.622    529.129
 29.370    566.203    597.469    -31.266    528.843    581.248    528.843    545.067    528.843
 29.470    573.835    576.451     -2.616    528.558    556.194    528.558    548.815    528.558
 29.570    597.000    569.296     27.704    528.274    545.607    528.274    551.962    528.274
 29.670    608.000    566.247     41.753    527.991    541.021    527.991    553.216    527.991
 29.770    565.000    562.703      2.297    527.708    538.579    527.708    551.830    527.708
 29.870    548.182    557.933     -9.750    527.427    536.990    527.427    548.368    527.427
 29.970    568.291    552.819     15.471    527.146    535.870    527.146    544.094    527.146
 30.070    563.000    548.229     14.771    526.866    535.094    526.866    540.000    526.866
 30.170    591.000    544.593     46.407    526.587    534.641    526.587    536.538    526.587
 30.270    584.000    542.113     41.887    526.309    534.616    526.309    533.805    526.309
 30.370    543.000    541.148      1.852    526.032    535.449    526.032    531.728    526.032
 30.470    546.953    542.738      4.215    525.756    538.314    525.756    530.174    525.756
 30.570    566.000    548.990     17.010    525.481    545.458    525.481    529.001    525.481
 30.670    535.282    562.322    -27.040    525.207    559.414    525.207    528.092    525.207
 30.770    640.000    582.671     57.329    524.934    580.209    524.934    527.358    524.934
 30.870    606.000    603.906      2.094    524.662    601.776    524.662    526.740    524.662
 30.970    613.000    613.613     -0.613    524.391    611.747    524.391    526.200    524.391
 31.070    633.004    603.609     29.395    524.121    601.968    524.121    525.715    524.121
 31.170    562.730    581.478    -18.748    523.852    580.029    523.852    525.271    523.852
 31.270    547.000    559.632    -12.632    523.584    558.341    523.584    524.858    523.584
 31.370    575.000    544.462     30.538    523.317    543.302    523.317    524.470    523.317
 31.470    532.562    536.169     -3.607    523.051    535.115    523.051    524.101    523.051
 31.570    546.000    532.264     13.736    522.786    531.299    522.786    523.749    522.786
 31.670    562.000    530.445     31.555    522.522    529.556    522.522    523.410    522.522
 31.770    546.488    529.468     17.020    522.260    528.644    522.260    523.082    522.260
 31.870    572.000    528.838     43.162    521.998    528.071    521.998    522.764    521.998
 31.970    548.000    528.391     19.609    521.738    527.673    521.738    522.454    521.738
 32.070    557.000    528.073     28.927    521.479    527.399    521.479    522.152    521.479
 32.170    499.945    527.865    -27.920    521.221    527.229    521.221    521.855    521.221
 32.270    537.000    527.758      9.242    520.964    527.157    520.964    521.564    520.964
 32.370    504.277    527.755    -23.478    520.708    527.184    520.708    521.278    520.708
 32.470    508.000    527.862    -19.862    520.454    527.318    520.454    520.997    520.454
 32.570    554.000    528.094     25.906    520.200    527.574    520.200    520.719    520.200
 32.670    523.563    528.477     -4.913    519.948    527.979    519.948    520.445    519.948
 32.770    562.000    529.045     32.955    519.697    528.566    519.697    520.175    519.697
 32.870    539.000    529.851      9.149    519.447    529.390    519.447    519.907    519.447
 32.970    577.000    530.972     46.028    519.199    530.527    519.199    519.643    519.199
 33.070    524.000    532.527     -8.527    518.952    532.097    518.952    519.381    518.952
 33.170    552.000    534.733     17.267    518.705    534.315    518.705    519.121    518.705
 33.270    530.859    538.086     -7.227    518.461    537.679    518.461    518.865    518.461
 33.370    538.000    543.972     -5.972    518.217    543.576    518.217    518.610    518.217
 33.470    577.000    556.155     20.845    517.975    555.766    517.975    518.358    517.975
 33.570    609.000    583.058     25.942    517.734    582.674    517.734    518.108    517.734
 33.670    631.000    638.419     -7.419    517.494    638.032    517.494    517.860    517.494
 33.770    687.168    735.138    -47.970    517.256    734.743    517.256    517.614    517.256
 33.870    840.978    869.866    -28.888    517.019    869.460    517.019    517.370    517.019
 33.970    971.216   1005.618    -34.402    516.783   1005.207    516.783    517.127    516.783
 34.070   1029.542   1072.235    -42.692    516.548   1071.839    516.548    516.887    516.548
 34.170   1015.000   1022.211     -7.211    516.315   1021.848    516.315    516.648    516.315
 34.270    866.000    892.755    -26.755    516.083    892.422    516.083    516.412    516.083
 34.370    791.436    754.460     36.976    515.853    754.144    515.853    516.177    515.853
 34.470    639.000    650.254    -11.254    515.624    649.943    515.624    515.944    515.624
 34.570    561.000    588.096    -27.096    515.396    587.785    515.396    515.712    515.396
 34.670    561.000    556.745      4.255    515.170    556.435    515.170    515.482    515.170
 34.770    526.000    542.123    -16.123    514.945    541.814    514.945    515.254    514.945
 34.870    529.512    534.912     -5.400    514.721    534.605    514.721    515.028    514.721
 34.970    539.000    530.706      8.294    514.499    530.402    514.499    514.803    514.499
 35.070    539.000    527.817     11.183    514.278    527.515    514.278    514.580    514.278
 35.170    491.450    525.637    -34.187    514.058    525.337    514.058    514.358    514.058
 35.270    489.825    523.916    -34.091    513.840    523.617    513.840    514.138    513.840
 35.370    531.000    522.518      8.482    513.624    522.222    513.624    513.920    513.624
 35.470    534.000    521.361     12.639    513.408    521.066    513.408    513.703    513.408
 35.570    480.859    520.385    -39.526    513.195    520.091    513.195    513.488    513.195
 35.670    523.667    519.549      4.118    512.982    519.256    512.982    513.274    512.982
 35.770    508.000    518.823    -10.823    512.771    518.531    512.771    513.063    512.771
 35.870    533.000    518.185     14.815    512.562    517.894    512.562    512.852    512.562
 35.970    477.676    517.618    -39.942    512.354    517.328    512.354    512.644    512.354
 36.070    510.000    517.112     -7.112    512.147    516.822    512.147    512.436    512.147
 36.170    548.861    516.655     32.205    511.942    516.366    511.942    512.231    511.942
 36.270    500.000    516.243    -16.243    511.738    515.954    511.738    512.027    511.738
 36.370    540.390    515.869     24.521    511.536    515.580    511.536    511.825    511.536
 36.470    481.000    515.531    -34.531    511.335    515.242    511.335    511.624    511.335
 36.570    503.000    515.227    -12.227    511.136    514.938    511.136    511.425    511.136
 36.670    500.011    514.960    -14.949    510.938    514.670    510.938    511.227    510.938
 36.770    500.000    514.733    -14.733    510.742    514.444    510.742    511.031    510.742
 36.870    502.000    514.566    -12.566    510.547    514.276    510.547    510.837    510.547
 36.970    493.000    514.507    -21.507    510.353    514.216    510.353    510.644    510.353
 37.070    549.000    514.676     34.324    510.161    514.385    510.161    510.453    510.161
 37.170    490.000    515.315    -25.315    509.971    515.022    509.971    510.264    509.971
 37.270    568.000    516.776     51.224    509.782    516.483    509.782    510.076    509.782
 37.370    578.000    519.368     58.632    509.595    519.075    509.595    509.889    509.595
 37.470    506.943    523.015    -16.072    509.409    522.721    509.409    509.705    509.409
 37.570    537.000    526.877     10.123    509.225    526.583    509.225    509.522    509.225
 37.670    520.417    529.316     -8.899    509.042    529.022    509.042    509.340    509.042
 37.770    478.000    528.956    -50.956    508.861    528.663    508.861    509.160    508.861
 37.870    507.359    526.152    -18.793    508.681    525.860    508.681    508.982    508.681
 37.970    518.000    522.410     -4.410    508.503    522.118    508.503    508.805    508.503
 38.070    497.000    518.896    -21.896    508.326    518.602    508.326    508.630    508.326
 38.170    494.111    516.060    -21.949    508.151    515.764    508.151    508.457    508.151
 38.270    486.000    513.985    -27.985    507.978    513.684    507.978    508.285    507.978
 38.370    511.000    512.570     -1.570    507.806    512.265    507.806    508.115    507.806
 38.470    496.538    511.642    -15.104    507.635    511.333    507.635    507.947    507.635
 38.570    476.064    511.035    -34.971    507.466    510.723    507.466    507.780    507.466
 38.670    480.564    510.622    -30.058    507.299    510.307    507.299    507.615    507.299
 38.770    551.033    510.315     40.718    507.133    509.997    507.133    507.451    507.133
 38.870    529.000    510.065     18.935    506.969    509.744    506.969    507.289    506.969
 38.970    485.000    509.845    -24.845    506.806    509.523    506.806    507.129    506.806
 39.070    455.000    509.646    -54.646    506.645    509.321    506.645    506.971    506.645
 39.170    506.000    509.461     -3.461    506.485    509.133    506.485    506.814    506.485
 39.270    519.000    509.289      9.711    506.327    508.958    506.327    506.659    506.327
 39.370    486.289    509.126    -22.837    506.171    508.792    506.171    506.505    506.171
 39.470    544.006    508.972     35.034    506.016    508.635    506.016    506.353    506.016
 39.570    500.904    508.827     -7.922    505.863    508.487    505.863    506.203    505.863
 39.670    524.000    508.689     15.311    505.711    508.346    505.711    506.054    505.711
 39.770    516.000    508.559      7.441    505.561    508.213    505.561    505.908    505.561
 39.870    509.000    508.436      0.564    505.413    508.087    505.413    505.762    505.413
 39.970    514.000    508.321      5.679    505.266    507.968    505.266    505.619    505.266
 40.070    472.078    508.214    -36.136    505.120    507.857    505.120    505.477    505.120
 40.170    499.000    508.115     -9.115    504.976    507.755    504.976    505.337    504.976
 40.270    473.000    508.025    -35.025    504.834    507.661    504.834    505.199    504.834
 40.370    486.000    507.944    -21.944    504.694    507.576    504.694    505.062    504.694
 40.470    510.000    507.874      2.126    504.555    507.501    504.555    504.927    504.555
 40.570    515.000    507.815      7.185    504.417    507.439    504.417    504.794    504.417
 40.670    513.000    507.770      5.230    504.281    507.389    504.281    504.662    504.281
 40.770    496.829    507.739    -10.911    504.147    507.354    504.147    504.533    504.147
 40.870    512.000    507.727      4.273    504.014    507.337    504.014    504.405    504.014
 40.970    529.137    507.736     21.401    503.883    507.341    503.883    504.278    503.883
 41.070    518.487    507.770     10.717    503.754    507.371    503.754    504.154    503.754
 41.170    511.000    507.836      3.164    503.626    507.431    503.626    504.031    503.626
 41.270    498.000    507.940     -9.940    503.499    507.530    503.499    503.910    503.499
 41.370    516.000    508.094      7.906    503.375    507.679    503.375    503.791    503.375
 41.470    494.000    508.312    -14.312    503.251    507.891    503.251    503.673    503.251
 41.570    506.000    508.617     -2.617    503.130    508.191    503.130    503.557    503.130
 41.670    518.000    509.052      8.948    503.010    508.620    503.010    503.443    503.010
 41.770    504.000    509.708     -5.708    502.891    509.270    502.891    503.331    502.891
 41.870    497.000    510.815    -13.815    502.775    510.371    502.775    503.221    502.775
 41.970    539.958    512.915     27.043    502.659    512.465    502.659    503.112    502.659
 42.070    476.934    517.123    -40.189    502.546    516.668    502.546    503.006    502.546
 42.170    519.771    525.269     -5.498    502.434    524.811    502.434    502.901    502.434
 42.270    498.685    539.513    -40.827    502.323    539.054    502.323    502.798    502.323
 42.370    524.000    561.050    -37.050    502.214    560.593    502.214    502.697    502.214
 42.470    561.000    588.141    -27.141    502.107    587.690    502.107    502.597    502.107
 42.570    589.000    614.413    -25.413    502.001    613.969    502.001    502.500    502.001
 42.670    619.000    629.473    -10.473    501.897    629.030    501.897    502.404    501.897
 42.770    590.466    625.393    -34.927    501.794    624.943    501.794    502.310    501.794
 42.870    579.000    604.586    -25.586    501.693    604.118    501.693    502.219    501.693
 42.970    609.453    576.945     32.508    501.594    576.454    501.594    502.129    501.594
 43.070    562.553    551.515     11.038    501.496    550.999    501.496    502.041    501.496
 43.170    518.000    532.727    -14.727    501.400    532.189    501.400    501.955    501.400
 43.270    536.718    520.949     15.769    501.305    520.393    501.305    501.871    501.305
 43.370    510.000    514.430     -4.430    501.212    513.858    501.212    501.790    501.212
 43.470    545.013    511.065     33.948    501.120    510.479    501.120    501.710    501.120
 43.570    516.000    509.306      6.694    501.030    508.707    501.030    501.632    501.030
 43.670    514.000    508.291      5.709    500.942    507.679    500.942    501.556    500.942
 43.770    491.007    507.621    -16.614    500.855    506.995    500.855    501.483    500.855
 43.870    546.310    507.132     39.178    500.770    506.491    500.770    501.412    500.770
 43.970    515.245    506.755      8.491    500.686    506.099    500.686    501.343    500.686
 44.070    509.000    506.457      2.543    500.604    505.786    500.604    501.276    500.604
 44.170    534.296    506.220     28.075    500.523    505.533    500.523    501.211    500.523
 44.270    504.000    506.031     -2.031    500.444    505.326    500.444    501.149    500.444
 44.370    463.000    505.880    -42.880    500.367    505.158    500.367    501.089    500.367
 44.470    512.000    505.761      6.239    500.290    505.020    500.290    501.032    500.290
 44.570    534.122    505.670     28.452    500.216    504.909    500.216    500.977    500.216
 44.670    477.000    505.602    -28.602    500.143    504.821    500.143    500.925    500.143
 44.770    473.748    505.556    -31.807    500.072    504.752    500.072    500.875    500.072
 44.870    522.000    505.528     16.472    500.002    504.701    500.002    500.829    500.002
 44.970    523.000    505.519     17.481    499.933    504.667    499.933    500.785    499.933
 45.070    507.000    505.526      1.474    499.867    504.649    499.867    500.744    499.867
 45.170    496.804    505.550     -8.746    499.801    504.645    499.801    500.706    499.801
 45.270    530.000    505.590     24.410    499.738    504.656    499.738    500.672    499.738
 45.370    504.429    505.646     -1.217    499.675    504.681    499.675    500.640    499.675
 45.470    486.000    505.719    -19.719    499.615    504.721    499.615    500.613    499.615
 45.570    493.000    505.810    -12.810    499.555    504.776    499.555    500.589    499.555
 45.670    542.000    505.919     36.081    499.498    504.847    499.498    500.569    499.498
 45.770    535.897    506.048     29.849    499.441    504.936    499.441    500.553    499.441
 45.870    486.000    506.198    -20.198    499.387    505.042    499.387    500.542    499.387
 45.970    464.000    506.372    -42.372    499.333    505.169    499.333    500.536    499.333
 46.070    523.158    506.573     16.586    499.282    505.319    499.282    500.535    499.282
 46.170    490.000    506.803    -16.803    499.231    505.495    499.231    500.539    499.231
 46.270    525.000    507.068     17.932    499.183    505.700    499.183    500.550    499.183
 46.370    521.393    507.372     14.021    499.135    505.940    499.135    500.567    499.135
 46.470    495.000    507.724    -12.724    499.089    506.222    499.089    500.591    499.089
 46.570    525.000    508.132     16.868    499.045    506.554    499.045    500.623    499.045
 46.670    502.000    508.613     -6.613    499.002    506.950    499.002    500.664    499.002
 46.770    499.347    509.190     -9.843    498.961    507.435    498.961    500.714    498.961
 46.870    545.849    509.915     35.933    498.921    508.059    498.921    500.776    498.921
 46.970    527.000    510.904     16.096    498.882    508.934    498.882    500.850    498.882
 47.070    514.000    512.419      1.581    498.845    510.323    498.845    500.938    498.845
 47.170    487.000    514.977    -27.977    498.810    512.740    498.810    501.041    498.810
 47.270    571.000    519.436     51.564    498.775    517.040    498.775    501.163    498.775
 47.370    539.573    526.911     12.662    498.743    524.333    498.743    501.306    498.743
 47.470    499.000    538.330    -39.330    498.711    535.545    498.711    501.474    498.711
 47.570    559.000    553.652      5.348    498.681    550.629    498.681    501.670    498.681
 47.670    638.000    571.038     66.962    498.653    567.745    498.653    501.901    498.653
 47.770    590.000    586.348      3.652    498.626    582.746    498.626    502.173    498.626
 47.870    617.000    594.056     22.944    498.600    590.102    498.600    502.495    498.600
 47.970    598.000    590.894      7.106    498.576    586.536    498.576    502.880    498.576
 48.070    550.782    579.091    -28.309    498.553    574.256    498.553    503.344    498.553
 48.170    586.855    564.042     22.813    498.532    558.626    498.532    503.916    498.532
 48.270    592.000    550.415     41.585    498.512    544.269    498.512    504.637    498.512
 48.370    509.000    540.709    -31.709    498.493    533.616    498.493    505.573    498.493
 48.470    532.000    535.486     -3.486    498.476    527.126    498.476    506.828    498.476
 48.570    539.000    534.189      4.811    498.460    524.088    498.460    508.556    498.460
 48.670    548.000    535.985     12.015    498.445    523.455    498.445    510.971    498.445
 48.770    553.250    540.295     12.955    498.432    524.375    498.432    514.349    498.432
 48.870    527.000    546.949    -19.949    498.420    526.367    498.420    518.999    498.420
 48.970    543.000    556.094    -13.094    498.409    529.286    498.409    525.214    498.409
 49.070    545.000    568.085    -23.085    498.400    533.300    498.400    533.181    498.400
 49.170    604.000    583.520     20.480    498.392    539.058    498.392    542.850    498.392
 49.270    574.000    603.718    -29.718    498.386    548.352    498.386    553.745    498.386
 49.370    616.000    632.047    -16.047    498.381    565.697    498.381    564.718    498.381
 49.470    708.566    676.543     32.023    498.377    601.114    498.377    573.782    498.377
 49.570    823.000    753.459     69.541    498.374    673.280    498.374    578.510    498.374
 49.670    872.000    888.912    -16.912    498.373    809.883    498.373    577.325    498.373
 49.770   1098.000   1112.430    -14.430    498.373   1040.012    498.373    570.671    498.373
 49.870   1496.000   1438.068     57.932    498.374   1375.649    498.374    560.633    498.374
 49.970   1904.109   1838.953     65.156    498.377   1787.608    498.377    549.547    498.377
 50.070   2262.691   2231.703     30.988    498.381   2190.879    498.381    539.067    498.381
 50.170   2477.039   2490.384    -13.345    498.386   2458.673    498.386    530.052    498.386
 50.270   2418.000   2506.877    -88.877    498.393   2482.555    498.393    522.791    498.393
 50.370   2231.000   2270.661    -39.661    498.400   2252.002    498.400    517.226    498.400
 50.470   1898.553   1879.175     19.378    498.409   1864.663    498.409    513.120    498.409
 50.570   1449.000   1462.873    -13.873    498.419   1451.307    498.419    510.166    498.419
 50.670   1060.000   1116.347    -56.347    498.431   1106.855    498.431    508.062    498.431
 50.770    793.000    877.388    -84.388    498.444    869.371    498.444    506.557    498.444
 50.870    708.000    737.976    -29.976    498.458    731.039    498.458    505.459    498.458
 50.970    707.782    667.759     40.022    498.473    661.644    498.473    504.636    498.473
 51.070    670.000    634.586     35.414    498.489    629.114    498.489    504.001    498.489
 51.170    622.000    615.428      6.572    498.507    610.473    498.507    503.497    498.507
 51.270    624.000    598.969     25.031    498.525    594.436    498.525    503.088    498.525
 51.370    590.000    582.619      7.381    498.545    578.434    498.545    502.753    498.545
 51.470    589.000    567.499     21.501    498.566    563.607    498.566    502.476    498.566
 51.570    571.000    555.066     15.934    498.589    551.421    498.589    502.245    498.589
 51.670    578.000    545.959     32.041    498.612    542.526    498.612    502.053    498.612
 51.770    547.000    539.979      7.021    498.637    536.727    498.637    501.894    498.637
 51.870    556.000    536.463     19.537    498.662    533.366    498.662    501.763    498.662
 51.970    566.000    534.681     31.319    498.689    531.718    498.689    501.655    498.689
 52.070    563.000    534.086     28.914    498.717    531.237    498.717    501.569    498.717
 52.170    542.036    534.383      7.653    498.747    531.632    498.747    501.500    498.747
 52.270    560.685    535.518     25.168    498.777    532.849    498.777    501.447    498.777
 52.370    553.000    537.692     15.308    498.808    535.093    498.808    501.408    498.808
 52.470    533.000    541.514     -8.514    498.841    538.974    498.841    501.382    498.841
 52.570    567.316    548.362     18.954    498.875    545.869    498.875    501.368    498.875
 52.670    642.000    560.962     81.038    498.909    558.507    498.909    501.364    498.909
 52.770    612.000    583.983     28.017    498.945    581.558    498.945    501.369    498.945
 52.870    630.106    624.087      6.019    498.982    621.682    498.982    501.384    498.982
 52.970    686.000    688.621     -2.621    499.020    686.229    499.020    501.407    499.020
 53.070    872.000    782.415     89.585    499.059    780.029    499.059    501.438    499.059
 53.170    940.000    903.150     36.850    499.099    900.765    499.099    501.477    499.099
 53.270   1058.000   1036.934     21.066    499.140   1034.548    499.140    501.523    499.140
 53.370   1109.300   1156.364    -47.064    499.183   1153.976    499.183    501.576    499.183
 53.470   1201.000   1225.569    -24.569    499.226   1223.176    499.226    501.635    499.226
 53.570   1224.000   1218.248      5.752    499.270   1215.846    499.270    501.702    499.270
 53.670   1135.339   1137.714     -2.375    499.315   1135.292    499.315    501.775    499.315
 53.770   1012.000   1013.806     -1.806    499.362   1011.351    499.362    501.855    499.362
 53.870    861.895    881.526    -19.630    499.409    879.026    499.409    501.942    499.409
 53.970    812.395    765.798     46.597    499.457    763.245    499.457    502.036    499.457
 54.070    633.000    678.124    -45.124    499.506    675.512    499.506    502.137    499.506
 54.170    627.000    619.157      7.843    499.556    616.480    499.556    502.245    499.556
 54.270    602.000    583.314     18.686    499.608    580.569    499.608    502.360    499.608
 54.370    572.000    563.224      8.776    499.660    560.404    499.660    502.483    499.660
 54.470    567.000    552.561     14.439    499.713    549.662    499.713    502.615    499.713
 54.570    556.000    547.050      8.950    499.767    544.064    499.767    502.755    499.767
 54.670    547.920    544.251      3.669    499.822    541.170    499.822    502.904    499.822
 54.770    578.000    542.952     35.048    499.877    539.769    499.877    503.062    499.877
 54.870    578.000    542.609     35.391    499.934    539.313    499.934    503.231    499.934
 54.970    514.204    542.996    -28.792    499.992    539.578    499.992    503.411    499.992
 55.070    579.000    544.034     34.966    500.050    540.482    500.050    503.604    500.050
 55.170    605.000    545.715     59.285    500.110    542.017    500.110    503.809    500.110
 55.270    545.833    548.076     -2.244    500.170    544.220    500.170    504.028    500.170
 55.370    592.000    551.208     40.792    500.231    547.178    500.231    504.262    500.231
 55.470    576.000    555.271     20.729    500.293    551.051    500.293    504.514    500.293
 55.570    578.456    560.577     17.879    500.356    556.150    500.356    504.784    500.356
 55.670    580.000    567.780     12.220    500.420    563.125    500.420    505.075    500.420
 55.770    617.340    578.307     39.033    500.485    573.403    500.485    505.388    500.485
 55.870    593.000    595.205     -2.205    500.550    590.025    500.550    505.728    500.550
 55.970    622.000    624.482     -2.482    500.616    618.997    500.616    506.096    500.616
 56.070    645.760    676.681    -30.921    500.683    670.856    500.683    506.496    500.683
 56.170    734.000    767.721    -33.721    500.751    761.517    500.751    506.933    500.751
 56.270    864.000    917.260    -53.260    500.820    910.631    500.820    507.411    500.820
 56.370   1132.363   1142.885    -10.522    500.889   1135.785    500.889    507.937    500.889
 56.470   1422.000   1450.068    -28.068    500.959   1442.446    500.959    508.517    500.959
 56.570   1794.531   1820.671    -26.140    501.030   1812.480    501.030    509.160    501.030
 56.670   2146.467   2204.810    -58.342    501.102   2196.001    501.102    509.875    501.102
 56.770   2466.000   2521.555    -55.555    501.174   2512.075    501.174    510.676    501.174
 56.870   2696.000   2678.956     17.044    501.247   2668.731    501.247    511.578    501.247
 56.970   2580.000   2622.047    -42.047    501.321   2610.960    501.321    512.599    501.321
 57.070   2459.527   2373.232     86.295    501.396   2361.108    501.396    513.765    501.396
 57.170   2063.000   2013.692     49.308    501.471   2000.306    501.471    515.111    501.471
 57.270   1623.365   1632.897     -9.531    501.547   1617.984    501.547    516.688    501.547
 57.370   1326.017   1296.139     29.878    501.624   1279.375    501.624    518.569    501.624
 57.470   1029.000   1036.095     -7.095    501.701   1017.055    501.701    520.871    501.701
 57.570    881.000    857.489     23.511    501.779    835.581    501.779    523.771    501.779
 57.670    775.794    747.734     28.060    501.858    722.104    501.858    527.538    501.858
 57.770    645.293    688.299    -43.005    501.937    657.701    501.937    532.562    501.937
 57.870    616.715    662.842    -46.126    502.017    625.495    502.017    539.376    502.017
 57.970    659.000    660.874     -1.874    502.098    614.309    502.098    548.664    502.098
 58.070    706.000    677.992     28.008    502.179    618.941    502.179    561.222    502.179
 58.170    668.426    714.117    -45.690    502.261    638.492    502.261    577.867    502.261
 58.270    768.227    771.184     -2.958    502.343    674.204    502.343    599.294    502.343
 58.370    836.000    850.733    -14.733    502.426    727.254    502.426    625.866    502.426
 58.470    907.000    951.752    -44.752    502.510    796.859    502.510    657.355    502.510
 58.570   1023.000   1069.017    -46.017    502.594    878.953    502.594    692.608    502.594
 58.670   1131.165   1192.392    -61.227    502.678    965.925    502.678    729.100    502.678
 58.770   1325.000   1308.105     16.895    502.764   1048.340    502.764    762.496    502.764
 58.870   1398.392   1401.842     -3.450    502.849   1117.875    502.849    786.800    502.849
 58.970   1491.000   1461.129     29.871    502.936   1167.950    502.936    796.119    502.936
 59.070   1532.540   1476.946     55.595    503.023   1192.173    503.023    787.818    503.023
 59.170   1416.518   1447.575    -31.057    503.110   1186.405    503.110    764.318    503.110
 59.270   1349.164   1382.347    -33.183    503.198   1154.160    503.198    731.424    503.198
 59.370   1318.000   1299.129     18.871    503.286   1107.272    503.286    695.169    503.286
 59.470   1242.675   1217.181     25.495    503.375   1060.578    503.375    659.978    503.375
 59.570   1148.810   1153.251     -4.441    503.464   1028.223    503.464    628.456    503.464
 59.670   1165.000   1122.091     42.909    503.554   1023.748    503.554    601.816    503.554
 59.770   1170.263   1135.438     34.825    503.644   1058.623    503.644    580.326    503.644
 59.870   1180.053   1196.967    -16.914    503.735   1136.867    503.735    563.645    503.735
 59.970   1338.776   1297.359     41.416    503.826   1249.850    503.826    551.092    503.826
 60.070   1467.000   1412.869     54.131    503.918   1374.651    503.918    541.852    503.918
 60.170   1556.000   1508.189     47.811    504.010   1476.777    504.010    535.127    504.010
 60.270   1596.000   1546.008     49.992    504.102   1519.608    504.102    530.229    504.102
 60.370   1601.000   1504.591     96.409    504.195   1481.948    504.195    526.619    504.195
 60.470   1424.980   1390.843     34.137    504.288   1371.075    504.288    523.901    504.288
 60.570   1257.830   1233.565     24.265    504.381   1216.044    504.381    521.808    504.381
 60.670   1030.331   1066.243    -35.913    504.475   1050.507    504.475    520.162    504.475
 60.770    931.000    915.135     15.865    504.570    900.830    504.570    518.854    504.570
 60.870    828.761    795.089     33.672    504.664    781.931    504.664    517.814    504.664
 60.970    758.000    710.273     47.727    504.759    698.027    504.759    517.002    504.759
 61.070    650.000    657.724     -7.724    504.854    646.183    504.854    516.390    504.854
 61.170    649.000    631.849     17.151    504.950    620.827    504.950    515.960    504.950
 61.270    616.000    628.203    -12.203    505.046    617.536    505.046    515.693    505.046
 61.370    706.000    645.576     60.424    505.142    635.116    505.142    515.570    505.142
 61.470    676.000    686.161    -10.161    505.238    675.790    505.238    515.560    505.238
 61.570    711.000    753.985    -42.985    505.335    743.624    505.335    515.622    505.335
 61.670    818.000    851.944    -33.944    505.432    841.578    505.432    515.695    505.432
 61.770    937.545    978.185    -40.640    505.529    967.877    505.529    515.703    505.529
 61.870   1125.000   1122.911      2.089    505.627   1112.802    505.627    515.571    505.627
 61.970   1285.000   1266.837     18.163    505.724   1257.119    505.724    515.260    505.724
 62.070   1352.683   1382.542    -29.859    505.822   1373.399    505.822    514.784    505.822
 62.170   1400.000   1441.055    -41.055    505.920   1432.619    505.920    514.199    505.920
 62.270   1393.000   1424.863    -31.863    506.019   1417.192    506.019    513.574    506.019
 62.370   1339.405   1338.724      0.681    506.117   1331.808    506.117    512.964    506.117
 62.470   1153.000   1206.298    -53.298    506.216   1200.077    506.216    512.405    506.216
 62.570   1043.000   1056.970    -13.970    506.315   1051.362    506.315    511.918    506.315
 62.670    849.000    915.278    -66.278    506.414    910.193    506.414    511.508    506.414
 62.770    765.000    796.594    -31.594    506.513    791.946    506.513    511.175    506.513
 62.870    690.000    706.944    -16.944    506.612    702.656    506.612    510.912    506.612
 62.970    673.654    645.126     28.528    506.712    641.136    506.712    510.709    506.712
 63.070    613.000    605.857      7.143    506.811    602.115    506.811    510.557    506.811
 63.170    567.000    582.716    -15.716    506.911    579.182    506.911    510.445    506.911
 63.270    562.495    570.114     -7.619    507.011    566.758    507.011    510.364    507.011
 63.370    545.000    564.162    -19.162    507.111    560.960    507.111    510.308    507.111
 63.470    570.146    562.772      7.374    507.211    559.705    507.211    510.271    507.211
 63.570    575.000    565.434      9.566    507.311    562.486    507.311    510.249    507.311
 63.670    596.061    572.936     23.124    507.411    570.094    507.411    510.240    507.411
 63.770    585.000    587.103     -2.103    507.511    584.353    507.511    510.241    507.511
 63.870    605.017    610.428     -5.412    507.611    607.760    507.611    510.250    507.611
 63.970    671.000    645.453     25.547    507.711    642.854    507.711    510.267    507.711
 64.070    665.152    693.823    -28.671    507.812    691.282    507.812    510.291    507.812
 64.170    785.547    755.142     30.405    507.912    752.651    507.912    510.320    507.912
 64.270    832.000    825.901      6.099    508.012    823.453    508.012    510.356    508.012
 64.370    858.758    898.817    -40.059    508.113    896.412    508.113    510.396    508.113
 64.470   1007.000    963.122     43.878    508.213    960.762    508.213    510.440    508.213
 64.570   1023.000   1006.850     16.150    508.313   1004.543    508.313    510.489    508.313
 64.670   1043.175   1021.500     21.675    508.413   1019.254    508.413    510.542    508.413
 64.770    984.394   1005.824    -21.429    508.513   1003.646    508.513    510.599    508.513
 64.870    984.000    965.353     18.647    508.613    963.244    508.613    510.658    508.613
 64.970    911.000    909.408      1.592    508.713    907.364    508.713    510.721    508.713
 65.070    850.000    848.017      1.983    508.813    846.032    508.813    510.787    508.813
 65.170    814.000    789.206     24.794    508.913    787.271    508.913    510.856    508.913
 65.270    726.000    737.495    -11.495    509.013    735.601    509.013    510.927    509.013
 65.370    692.000    694.194     -2.194    509.112    692.331    509.112    511.001    509.112
 65.470    612.000    658.846    -46.846    509.212    657.007    509.212    511.077    509.212
 65.570    654.000    630.547     23.453    509.311    628.726    509.311    511.155    509.311
 65.670    563.000    608.411    -45.411    509.410    606.603    509.410    511.236    509.410
 65.770    622.927    591.570     31.357    509.509    589.773    509.509    511.318    509.509
 65.870    568.000    579.195    -11.195    509.608    577.408    509.608    511.403    509.608
 65.970    537.959    570.531    -32.572    509.707    568.752    509.707    511.490    509.707
 66.070    540.079    564.901    -24.822    509.806    563.129    509.806    511.578    509.806
 66.170    601.870    561.710     40.160    509.904    559.945    509.904    511.668    509.904
 66.270    556.000    560.463     -4.463    510.002    558.704    510.002    511.760    510.002
 66.370    543.000    560.789    -17.789    510.100    559.034    510.100    511.854    510.100
 66.470    542.646    562.486    -19.840    510.198    560.733    510.198    511.950    510.198
 66.570    512.000    565.581    -53.581    510.295    563.829    510.295    512.048    510.295
 66.670    603.297    570.439     32.858    510.393    568.685    510.393    512.147    510.393
 66.770    557.813    577.966    -20.153    510.490    576.208    510.490    512.248    510.490
 66.870    595.000    589.950      5.050    510.586    588.186    510.586    512.351    510.586
 66.970    580.000    609.543    -29.543    510.683    607.769    510.683    512.455    510.683
 67.070    632.884    641.778     -8.894    510.779    639.990    510.779    512.562    510.779
 67.170    639.000    693.890    -54.890    510.875    692.085    510.875    512.670    510.875
 67.270    769.000    775.043     -6.043    510.971    773.218    510.971    512.781    510.971
 67.370    901.000    895.025      5.975    511.066    893.179    511.066    512.893    511.066
 67.470   1049.000   1061.679    -12.679    511.161   1059.810    511.161    513.008    511.161
 67.570   1272.080   1277.283     -5.202    511.255   1275.397    511.255    513.125    511.255
 67.670   1526.558   1534.731     -8.173    511.350   1532.836    511.350    513.244    511.350
 67.770   1783.000   1814.656    -31.656    511.444   1812.764    511.444    513.366    511.444
 67.870   2116.123   2084.618     31.505    511.537   2082.744    511.537    513.491    511.537
 67.970   2310.000   2301.806      8.194    511.631   2299.962    511.631    513.618    511.631
 68.070   2375.000   2422.116    -47.116    511.723   2420.306    511.723    513.748    511.723
 68.170   2422.000   2416.740      5.260    511.816   2414.953    511.816    513.882    511.816
 68.270   2255.000   2287.145    -32.145    511.908   2285.352    511.908    514.018    511.908
 68.370   2056.112   2064.164     -8.053    512.000   2062.330    512.000    514.159    512.000
 68.470   1866.000   1792.286     73.714    512.091   1790.376    512.091    514.304    512.091
 68.570   1531.853   1513.636     18.217    512.182   1511.626    512.182    514.453    512.182
 68.670   1320.000   1259.582     60.418    512.272   1257.458    512.272    514.606    512.272
 68.770   1063.000   1048.390     14.610    512.362   1046.146    512.362    514.765    512.362
 68.870    914.000    886.245     27.755    512.452    883.881    512.452    514.930    512.452
 68.970    815.000    770.252     44.748    512.541    767.770    512.541    515.101    512.541
 69.070    717.142    692.288     24.853    512.629    689.691    512.629    515.278    512.629
 69.170    657.000    642.542     14.458    512.717    639.828    512.717    515.463    512.717
 69.270    645.229    611.978     33.251    512.805    609.147    512.805    515.657    512.805
 69.370    569.000    593.541    -24.541    512.892    590.587    512.892    515.860    512.892
 69.470    611.000    582.354     28.646    512.979    579.269    512.979    516.073    512.979
 69.570    531.787    575.368    -43.581    513.065    572.142    513.065    516.298    513.065
 69.670    562.855    570.829     -7.974    513.150    567.449    513.150    516.535    513.150
 69.770    534.839    567.792    -32.953    513.235    564.244    513.235    516.788    513.235
 69.870    547.727    565.775    -18.048    513.320    562.041    513.320    517.056    513.320
 69.970    578.863    564.540     14.324    513.404    560.602    513.404    517.343    513.404
 70.070    540.000    563.977    -23.977    513.487    559.813    513.487    517.652    513.487
 70.170    524.414    564.053    -39.640    513.570    559.639    513.570    517.984    513.570
 70.270    586.000    564.797     21.203    513.652    560.104    513.652    518.344    513.652
 70.370    522.939    566.324    -43.385    513.734    561.320    513.734    518.736    513.734
 70.470    582.000    568.885     13.115    513.815    563.532    513.815    519.165    513.815
 70.570    581.481    572.971      8.510    513.895    567.225    513.895    519.637    513.895
 70.670    548.000    579.481    -31.481    513.975    573.288    513.975    520.161    513.975
 70.770    564.000    589.956    -25.956    514.054    583.252    514.054    520.747    514.054
 70.870    621.195    606.852     14.343    514.133    599.554    514.133    521.413    514.133
 70.970    635.745    633.764      1.981    514.210    625.767    514.210    522.180    514.210
 71.070    675.000    675.470     -0.470    514.288    666.632    514.288    523.084    514.288
 71.170    725.000    737.575    -12.575    514.364    727.699    514.364    524.179    514.364
 71.270    798.488    825.618    -27.130    514.440    814.425    514.440    525.547    514.440
 71.370    988.211    943.574     44.636    514.515    930.663    514.515    527.310    514.515
 71.470   1092.000   1091.965      0.035    514.590   1076.763    514.590    529.644    514.590
 71.570   1213.000   1265.996    -52.996    514.663   1247.691    514.663    532.790    514.663
 71.670   1511.452   1454.245     57.207    514.737   1431.717    514.737    537.061    514.737
 71.770   1636.956   1638.365     -1.410    514.809   1610.122    514.809    542.837    514.809
 71.870   1857.000   1794.399     62.601    514.881   1758.529    514.881    550.539    514.881
 71.970   1943.000   1896.918     46.082    514.952   1851.097    514.952    560.582    514.952
 72.070   2109.000   1926.946    182.054    515.022   1868.504    515.022    573.308    515.022
 72.170   1905.000   1880.595     24.405    515.091   1806.688    515.091    588.885    515.091
 72.270   1790.000   1771.225     18.775    515.160   1679.102    515.160    607.208    515.160
 72.370   1578.000   1622.645    -44.645    515.228   1510.035    515.228    627.794    515.228
 72.470   1466.000   1459.739      6.261    515.295   1325.343    515.295    649.671    515.295
 72.570   1245.939   1302.423    -56.484    515.361   1146.502    515.361    671.276    515.361
 72.670   1213.159   1163.270     49.890    515.427    988.276    515.427    690.420    515.427
 72.770   1071.486   1047.438     24.048    515.492    858.448    515.492    704.484    515.492
 72.870    954.000    954.242     -0.242    515.556    758.758    515.556    711.041    515.556
 72.970    795.000    879.802    -84.802    515.619    686.617    515.619    708.806    515.619
 73.070    816.000    819.627     -3.627    515.681    637.051    515.681    698.258    515.681
 73.170    750.902    770.070    -19.168    515.742    604.421    515.742    681.391    515.742
 73.270    704.000    728.614    -24.614    515.803    583.594    515.803    660.823    515.803
 73.370    621.000    693.647    -72.647    515.863    570.523    515.863    638.988    515.863
 73.470    600.000    664.186    -64.186    515.922    562.357    515.922    617.752    515.922
 73.570    571.000    639.666    -68.666    515.980    557.282    515.980    598.366    515.980
 73.670    578.902    619.740    -40.838    516.037    554.242    516.037    581.540    516.037
 73.770    573.227    604.129    -30.901    516.093    552.678    516.093    567.551    516.093
 73.870    611.000    592.500     18.500    516.149    552.309    516.149    556.349    516.149
 73.970    558.000    584.422    -26.422    516.203    552.970    516.203    547.669    516.203
 74.070    591.796    579.348     12.448    516.257    554.503    516.257    541.121    516.257
 74.170    587.000    576.634     10.366    516.310    556.688    516.310    536.281    516.310
 74.270    624.000    575.556     48.444    516.362    559.204    516.362    532.744    516.362
 74.370    569.209    575.341     -6.132    516.413    561.627    516.413    530.164    516.413
 74.470    637.000    575.219     61.781    516.463    563.459    516.463    528.264    516.463
 74.570    595.949    574.507     21.442    516.512    564.226    516.512    526.837    516.512
 74.670    643.000    572.763     70.237    516.560    563.630    516.560    525.738    516.560
 74.770    612.000    569.899     42.101    516.607    561.683    516.607    524.866    516.607
 74.870    643.000    566.171     76.829    516.653    558.708    516.653    524.154    516.653
 74.970    590.000    562.044     27.956    516.698    555.215    516.698    523.560    516.698
 75.070    599.000    558.043     40.957    516.742    551.758    516.742    523.054    516.742
 75.170    584.000    554.683     29.317    516.786    548.871    516.786    522.617    516.786
 75.270    544.000    552.448     -8.448    516.828    547.052    516.828    522.237    516.828
 75.370    550.000    551.814     -1.814    516.869    546.787    516.869    521.904    516.869
 75.470    535.000    553.273    -18.273    516.909    548.574    516.909    521.610    516.909
 75.570    601.000    557.344     43.656    516.949    552.939    516.949    521.350    516.949
 75.670    549.000    564.551    -15.551    516.987    560.410    516.987    521.118    516.987
 75.770    612.333    575.340     36.993    517.024    571.434    517.024    520.912    517.024
 75.870    597.032    589.937      7.095    517.060    586.245    517.060    520.728    517.060
 75.970    623.000    608.185     14.815    517.095    604.684    517.095    520.563    517.095
 76.070    578.000    629.370    -51.370    517.129    626.042    517.129    520.414    517.129
 76.170    694.236    652.119     42.116    517.162    648.950    517.162    520.281    517.162
 76.270    680.000    674.374      5.626    517.194    671.350    517.194    520.160    517.194
 76.370    674.862    693.500    -18.638    517.225    690.610    517.225    520.051    517.225
 76.470    676.832    706.623    -29.790    517.255    703.859    517.255    519.953    517.255
 76.570    719.384    711.343      8.041    517.284    708.701    517.284    519.863    517.284
 76.670    691.679    706.661    -14.982    517.311    704.134    517.311    519.781    517.311
 76.770    652.904    693.457    -40.553    517.338    691.040    517.338    519.706    517.338
 76.870    625.000    674.057    -49.057    517.363    671.743    517.363    519.638    517.363
 76.970    647.000    651.311     -4.311    517.388    649.093    517.388    519.575    517.388
 77.070    637.726    627.863      9.864    517.411    625.734    517.411    519.518    517.411
 77.170    586.000    605.782    -19.782    517.433    603.734    517.433    519.465    517.433
 77.270    576.302    586.443    -10.141    517.454    584.471    517.454    519.416    517.454
 77.370    546.610    570.535    -23.925    517.474    568.633    517.474    519.370    517.474
 77.470    564.000    558.165      5.835    517.493    556.326    517.493    519.328    517.493
 77.570    530.000    549.020    -19.020    517.511    547.239    517.511    519.288    517.511
 77.670    520.000    542.554    -22.554    517.527    540.827    517.527    519.251    517.527
 77.770    527.000    538.148    -11.148    517.542    536.472    517.542    519.217    517.542
 77.870    552.988    535.227     17.761    517.557    533.598    517.557    519.184    517.557
 77.970    544.000    533.315     10.685    517.570    531.730    517.570    519.153    517.570
 78.070    540.000    532.061      7.939    517.582    530.518    517.582    519.124    517.582
 78.170    541.000    531.208      9.792    517.592    529.703    517.592    519.096    517.592
 78.270    552.000    530.612     21.388    517.602    529.143    517.602    519.070    517.602
 78.370    552.000    530.214     21.786    517.610    528.779    517.610    519.045    517.610
 78.470    524.742    529.943     -5.201    517.617    528.539    517.617    519.021    517.617
 78.570    552.572    529.774     22.798    517.623    528.400    517.623    518.997    517.623
 78.670    536.000    529.704      6.296    517.628    528.356    517.628    518.975    517.628
 78.770    567.000    529.742     37.258    517.632    528.418    517.632    518.954    517.632
 78.870    499.000    529.905    -30.905    517.634    528.603    517.634    518.935    517.634
 78.970    497.000    530.222    -33.222    517.635    528.939    517.635    518.917    517.635
 79.070    539.000    530.724      8.276    517.635    529.457    517.635    518.900    517.635
 79.170    540.781    531.445      9.336    517.634    530.191    517.634    518.886    517.634
 79.270    537.000    532.418      4.582    517.631    531.173    517.631    518.874    517.631
 79.370    524.000    533.674     -9.674    517.627    532.433    517.627    518.866    517.627
 79.470    571.933    535.240     36.693    517.622    533.998    517.622    518.861    517.622
 79.570    538.438    537.149      1.288    517.616    535.900    517.616    518.862    517.616
 79.670    573.753    539.448     34.305    517.609    538.185    517.609    518.867    517.609
 79.770    523.000    542.217    -19.217    517.600    540.934    517.600    518.877    517.600
 79.870    508.000    545.588    -37.588    517.590    544.279    517.590    518.893    517.590
 79.970    552.000    549.777      2.223    517.579    548.436    517.579    518.914    517.579
 80.070    557.223    555.102      2.121    517.566    553.724    517.566    518.939    517.566
 80.170    566.000    561.990      4.010    517.552    560.573    517.552    518.967    517.552
 80.270    590.055    570.925     19.130    517.537    569.467    517.537    518.994    517.537
 80.370    586.000    582.350      3.650    517.521    580.854    517.521    519.019    517.521
 80.470    573.922    596.551    -22.629    517.503    595.024    517.503    519.036    517.503
 80.570    633.000    613.550     19.450    517.485    612.003    517.485    519.040    517.485
 80.670    625.000    633.020     -8.020    517.464    631.470    517.464    519.028    517.464
 80.770    671.000    654.245     16.755    517.443    652.710    517.443    518.997    517.443
 80.870    636.000    676.145    -40.145    517.420    674.645    517.420    518.946    517.420
 80.970    706.000    697.387      8.613    517.396    695.937    517.396    518.879    517.396
 81.070    711.000    716.576     -5.576    517.371    715.187    517.371    518.799    517.371
 81.170    738.000    732.435      5.565    517.344    731.114    517.344    518.711    517.344
 81.270    749.000    743.919      5.081    517.316    742.668    517.316    518.619    517.316
 81.370    701.587    750.298    -48.711    517.287    749.115    517.287    518.528    517.287
 81.470    791.549    751.234     40.315    517.256    750.115    517.256    518.438    517.256
 81.570    761.000    746.802     14.198    517.225    745.741    517.225    518.352    517.225
 81.670    741.000    737.453      3.547    517.191    736.442    517.191    518.271    517.191
 81.770    711.099    723.999    -12.900    517.157    723.029    517.157    518.194    517.157
 81.870    699.213    707.587     -8.374    517.121    706.653    517.121    518.123    517.121
 81.970    704.973    689.543     15.430    517.084    688.637    517.084    518.055    517.084
 82.070    722.000    671.089     50.911    517.045    670.204    517.045    517.992    517.045
 82.170    632.855    653.120    -20.265    517.006    652.253    517.006    517.932    517.006
 82.270    636.999    636.154      0.845    516.964    635.299    516.964    517.874    516.964
 82.370    605.361    620.423    -15.062    516.922    619.577    516.922    517.817    516.922
 82.470    616.230    606.039     10.191    516.878    605.200    516.878    517.762    516.878
 82.570    560.718    593.119    -32.401    516.833    592.283    516.833    517.708    516.833
 82.670    550.000    581.811    -31.811    516.786    580.976    516.786    517.653    516.786
 82.770    607.976    572.270     35.705    516.738    571.435    516.738    517.599    516.738
 82.870    549.000    564.628    -15.628    516.689    563.792    516.689    517.544    516.689
 82.970    525.000    558.981    -33.981    516.639    558.142    516.639    517.489    516.639
 83.070    541.000    555.376    -14.376    516.587    554.534    516.587    517.433    516.587
 83.170    560.000    553.796      6.204    516.534    552.950    516.534    517.376    516.534
 83.270    555.606    554.138      1.468    516.479    553.287    516.479    517.319    516.479
 83.370    562.226    556.193      6.033    516.423    555.338    516.423    517.260    516.423
 83.470    567.710    559.635      8.075    516.366    558.775    516.366    517.201    516.366
 83.570    568.179    564.018      4.161    516.307    563.153    516.307    517.141    516.307
 83.670    598.000    568.795     29.205    516.247    567.925    516.247    517.079    516.247
 83.770    535.000    573.336    -38.336    516.185    572.463    516.185    517.017    516.185
 83.870    545.000    576.988    -31.988    516.123    576.112    516.123    516.954    516.123
 83.970    582.798    579.153      3.645    516.059    578.276    516.059    516.890    516.059
 84.070    562.000    579.413    -17.413    515.993    578.537    515.993    516.824    515.993
 84.170    588.913    577.642     11.270    515.926    576.768    515.926    516.758    515.926
 84.270    608.000    574.035     33.965    515.858    573.164    515.858    516.690    515.858
 84.370    550.000    569.026    -19.026    515.788    568.159    515.788    516.622    515.788
 84.470    570.000    563.161      6.839    515.717    562.298    515.717    516.552    515.717
 84.570    559.690    556.978      2.712    515.645    556.118    515.645    516.482    515.645
 84.670    510.000    550.938    -40.938    515.571    550.081    515.571    516.410    515.571
 84.770    563.000    545.394     17.606    515.496    544.538    515.496    516.337    515.496
 84.870    574.000    540.572     33.428    515.420    539.717    515.420    516.263    515.420
 84.970    547.000    536.583     10.417    515.342    535.728    515.342    516.189    515.342
 85.070    516.000    533.438    -17.438    515.263    532.581    515.263    516.113    515.263
 85.170    551.000    531.076     19.924    515.182    530.217    515.182    516.036    515.182
 85.270    558.000    529.396     28.604    515.100    528.534    515.100    515.958    515.100
 85.370    510.000    528.285    -18.285    515.017    527.419    515.017    515.878    515.017
 85.470    560.460    527.637     32.823    514.932    526.767    514.932    515.798    514.932
 85.570    562.000    527.375     34.625    514.846    526.500    514.846    515.717    514.846
 85.670    549.000    527.452     21.548    514.759    526.571    514.759    515.635    514.759
 85.770    542.000    527.866     14.134    514.670    526.979    514.670    515.551    514.670
 85.870    511.000    528.656    -17.656    514.580    527.762    514.580    515.467    514.580
 85.970    507.000    529.907    -22.907    514.489    529.005    514.489    515.382    514.489
 86.070    498.647    531.747    -33.100    514.396    530.836    514.396    515.295    514.396
 86.170    547.000    534.343     12.657    514.302    533.421    514.302    515.208    514.302
 86.270    514.945    537.886    -22.941    514.206    536.953    514.206    515.120    514.206
 86.370    545.000    542.574      2.426    514.109    541.627    514.109    515.031    514.109
 86.470    525.448    548.569    -23.121    514.011    547.606    514.011    514.940    514.011
 86.570    560.000    556.001      3.999    513.911    555.020    513.911    514.849    513.911
 86.670    546.000    564.881    -18.881    513.810    563.881    513.810    514.757    513.810
 86.770    547.116    575.064    -27.948    513.708    574.043    513.708    514.664    513.708
 86.870    613.085    586.229     26.856    513.604    585.185    513.604    514.570    513.604
 86.970    635.000    597.862     37.138    513.499    596.796    513.499    514.475    513.499
 87.070    637.000    609.256     27.744    513.393    608.168    513.393    514.380    513.393
 87.170    612.000    619.547     -7.547    513.285    618.438    513.285    514.284    513.285
 87.270    660.000    627.788     32.212    513.176    626.662    513.176    514.186    513.176
 87.370    640.000    633.106      6.894    513.065    631.966    513.065    514.089    513.065
 87.470    671.000    634.894     36.106    512.954    633.744    512.954    513.990    512.954
 87.570    606.778    632.995    -26.217    512.840    631.837    512.840    513.891    512.840
 87.670    680.000    627.745     52.255    512.726    626.583    512.726    513.791    512.726
 87.770    624.884    619.870      5.014    512.610    618.706    512.610    513.690    512.610
 87.870    600.121    610.308    -10.187    512.493    609.142    512.493    513.589    512.493
 87.970    631.000    600.050     30.950    512.374    598.881    512.374    513.487    512.374
 88.070    616.000    590.034     25.966    512.255    588.859    512.255    513.385    512.255
 88.170    646.000    581.069     64.931    512.134    579.888    512.134    513.283    512.134
 88.270    529.000    573.793    -44.793    512.011    572.603    512.011    513.180    512.011
 88.370    534.433    568.640    -34.207    511.887    567.439    511.887    513.077    511.887
 88.470    577.000    565.837     11.163    511.762    564.623    511.762    512.974    511.762
 88.570    595.000    565.410     29.590    511.636    564.181    511.636    512.870    511.636
 88.670    563.219    567.196     -3.977    511.508    565.951    511.508    512.767    511.508
 88.770    584.000    570.867     13.133    511.379    569.604    511.379    512.663    511.379
 88.870    547.684    575.950    -28.266    511.249    574.667    511.249    512.560    511.249
 88.970    551.154    581.855    -30.701    511.117    580.551    511.117    512.457    511.117
 89.070    612.000    587.905     24.095    510.985    586.578    510.985    512.355    510.985
 89.170    557.000    593.377    -36.377    510.850    592.025    510.850    512.253    510.850
 89.270    604.000    597.560      6.440    510.715    596.180    510.715    512.151    510.715
 89.370    594.000    599.850     -5.850    510.578    598.438    510.578    512.051    510.578
 89.470    588.000    599.860    -11.860    510.440    598.412    510.440    511.952    510.440
 89.570    592.000    597.508     -5.508    510.301    596.018    510.301    511.854    510.301
 89.670    588.000    593.024     -5.024    510.161    591.488    510.161    511.757    510.161
 89.770    559.719    586.872    -27.153    510.019    585.285    510.019    511.662    510.019
 89.870    543.000    579.625    -36.625    509.876    577.983    509.876    511.570    509.876
 89.970    606.569    571.865     34.704    509.732    570.162    509.732    511.480    509.732
 90.070    542.138    564.108    -21.971    509.586    562.341    509.586    511.392    509.586
 90.170    535.000    556.775    -21.775    509.439    554.937    509.439    511.309    509.439
 90.270    522.544    550.167    -27.623    509.291    548.255    509.291    511.229    509.291
 90.370    575.862    544.471     31.390    509.142    542.479    509.142    511.155    509.142
 90.470    572.000    539.766     32.234    508.992    537.687    508.992    511.086    508.992
 90.570    511.477    536.044    -24.566    508.840    533.870    508.840    511.025    508.840
 90.670    511.209    533.233    -22.024    508.687    530.955    508.687    510.972    508.687
 90.770    553.000    531.227     21.773    508.533    528.833    508.533    510.932    508.533
 90.870    508.748    529.909    -21.161    508.378    527.384    508.378    510.906    508.378
 90.970    541.000    529.166     11.834    508.221    526.490    508.221    510.899    508.221
 91.070    494.000    528.878    -34.878    508.064    526.026    508.064    510.916    508.064
 91.170    510.349    529.061    -18.712    507.905    526.000    507.905    510.965    507.905
 91.270    525.000    529.694     -4.694    507.745    526.383    507.745    511.055    507.745
 91.370    535.198    530.797      4.401    507.584    527.182    507.584    511.196    507.584
 91.470    508.427    532.445    -24.018    507.421    528.460    507.421    511.403    507.421
 91.570    504.000    534.766    -30.766    507.258    530.327    507.258    511.692    507.258
 91.670    487.000    537.932    -50.932    507.093    532.937    507.093    512.081    507.093
 91.770    489.000    542.146    -53.146    506.927    536.473    506.927    512.590    506.927
 91.870    511.000    547.641    -36.641    506.760    541.147    506.760    513.241    506.760
 91.970    572.000    554.660     17.340    506.592    547.179    506.592    514.057    506.592
 92.070    535.000    563.438    -28.438    506.423    554.784    506.423    515.056    506.423
 92.170    542.000    574.170    -32.170    506.253    564.141    506.253    516.255    506.253
 92.270    550.000    586.987    -36.987    506.081    575.369    506.081    517.667    506.081
 92.370    621.000    601.926     19.074    505.909    588.501    505.909    519.295    505.909
 92.470    595.000    618.904    -23.904    505.735    603.459    505.735    521.134    505.735
 92.570    662.000    637.695     24.305    505.561    620.038    505.561    523.165    505.561
 92.670    627.000    657.921    -30.921    505.385    637.890    505.385    525.356    505.385
 92.770    672.362    679.043     -6.682    505.208    656.529    505.208    527.656    505.208
 92.870    667.086    700.380    -33.295    505.031    675.343    505.031    529.995    505.031
 92.970    758.000    721.168     36.832    504.852    693.661    504.852    532.283    504.852
 93.070    693.613    740.651    -47.038    504.672    710.841    504.672    534.403    504.672
 93.170    718.299    758.196    -39.897    504.491    726.385    504.491    536.221    504.491
 93.270    807.000    773.417     33.583    504.309    740.049    504.309    537.597    504.309
 93.370    777.000    786.209     -9.209    504.126    751.857    504.126    538.399    504.126
 93.470    776.000    796.702    -20.702    503.942    762.030    503.942    538.537    503.942
 93.570    794.000    805.179    -11.179    503.757    770.881    503.757    537.980    503.757
 93.670    859.000    812.016     46.984    503.571    778.746    503.571    536.769    503.571
 93.770    818.270    817.675      0.596    503.384    785.989    503.384    535.000    503.384
 93.870    881.000    822.717     58.283    503.196    793.038    503.196    532.809    503.196
 93.970    810.000    827.801    -17.801    503.008    800.407    503.008    530.337    503.008
 94.070    853.000    833.580     19.420    502.818    808.620    502.818    527.715    502.818
 94.170    804.034    840.547    -36.514    502.627    818.057    502.627    525.057    502.627
 94.270    902.165    848.855     53.310    502.435    828.781    502.435    522.451    502.435
 94.370    888.000    858.204     29.796    502.243    840.428    502.243    519.963    502.243
 94.470    884.000    867.820     16.180    502.049    852.176    502.049    517.642    502.049
 94.570    944.000    876.514     67.486    501.855    862.804    501.855    515.517    501.855
 94.670    860.519    882.812    -22.293    501.660    870.824    501.660    513.606    501.660
 94.770    912.000    885.178     26.822    501.464    874.695    501.464    511.913    501.464
 94.870    902.432    882.303     20.130    501.267    873.112    501.267    510.432    501.267
 94.970    855.573    873.407    -17.834    501.069    865.308    501.069    509.151    501.069
 95.070    855.524    858.460     -2.936    500.871    851.268    500.871    508.053    500.871
 95.170    906.000    838.193     67.807    500.671    831.745    500.671    507.118    500.671
 95.270    866.000    813.950     52.050    500.471    808.101    500.471    506.324    500.471
 95.370    803.000    787.440     15.560    500.270    782.068    500.270    505.649    500.270
 95.470    782.000    760.512     21.488    500.068    755.515    500.068    505.075    500.068
 95.570    743.000    735.057      7.943    499.865    730.350    499.865    504.582    499.865
 95.670    712.701    712.825     -0.124    499.662    708.339    499.662    504.156    499.662
 95.770    690.000    695.410     -5.410    499.458    691.090    499.458    503.783    499.458
 95.870    658.000    684.224    -26.224    499.253    680.024    499.253    503.452    499.253
 95.970    674.000    680.479     -6.479    499.047    676.363    499.047    503.156    499.047
 96.070    663.175    685.195    -22.019    498.841    681.133    498.841    502.886    498.841
 96.170    725.000    699.198     25.802    498.634    695.167    498.634    502.640    498.634
 96.270    726.000    723.093      2.907    498.426    719.071    498.426    502.412    498.426
 96.370    780.787    757.222     23.564    498.218    753.193    498.218    502.200    498.218
 96.470    838.233    801.598     36.635    498.009    797.545    498.009    502.002    498.009
 96.570    885.000    855.797     29.203    497.799    851.708    497.799    501.818    497.799
 96.670    927.000    918.868      8.132    497.589    914.730    497.589    501.645    497.589
 96.770    953.000    989.235    -36.235    497.378    985.038    497.378    501.484    497.378
 96.870   1117.752   1064.648     53.104    497.166   1060.382    497.166    501.334    497.166
 96.970   1174.000   1142.166     31.834    496.954   1137.821    496.954    501.195    496.954
 97.070   1217.000   1218.202     -1.202    496.742   1213.770    496.742    501.069    496.742
 97.170   1242.559   1288.651    -46.092    496.528   1284.125    496.528    500.954    496.528
 97.270   1402.545   1349.134     53.412    496.314   1344.505    496.314    500.852    496.314
 97.370   1365.000   1395.415    -30.415    496.100   1390.674    496.100    500.763    496.100
 97.470   1415.000   1423.990     -8.990    495.885   1419.126    495.885    500.689    495.885
 97.570   1390.025   1432.712    -42.688    495.670   1427.712    495.670    500.630    495.670
 97.670   1421.000   1421.228     -0.228    495.454   1416.074    495.454    500.589    495.454
 97.770   1410.439   1390.991     19.448    495.237   1385.662    495.237    500.569    495.237
 97.870   1394.000   1344.884     49.116    495.021   1339.354    495.021    500.571    495.021
 97.970   1335.318   1286.659     48.658    494.803   1280.898    494.803    500.600    494.803
 98.070   1271.722   1220.419     51.303    494.586   1214.388    494.586    500.662    494.586
 98.170   1154.763   1150.238      4.524    494.367   1143.895    494.367    500.762    494.367
 98.270   1110.308   1079.925     30.382    494.149   1073.217    494.149    500.911    494.149
 98.370   1015.000   1012.872      2.128    493.930   1005.734    493.930    501.121    493.930
 98.470   1011.000    951.979     59.021    493.711    944.333    493.711    501.406    493.711
 98.570    934.000    899.631     34.369    493.491    891.379    493.491    501.786    493.491
 98.670    837.000    857.715    -20.715    493.271    848.735    493.271    502.285    493.271
 98.770    847.000    827.669     19.331    493.051    817.810    493.051    502.935    493.051
 98.870    781.795    810.550    -28.755    492.830    799.625    492.830    503.771    492.830
 98.970    758.000    807.107    -49.107    492.609    794.884    492.609    504.837    492.609
 99.070    826.100    817.833      8.267    492.388    804.034    492.388    506.184    492.388
 99.170    858.000    843.048     14.952    492.167    827.336    492.167    507.867    492.167
 99.270    912.000    882.838     29.162    491.945    864.816    491.945    509.949    491.945
 99.370    914.000    937.037    -23.037    491.723    916.242    491.723    512.495    491.723
 99.470    989.000   1005.164    -16.164    491.501    981.070    491.501    515.569    491.501
 99.570   1083.000   1086.333     -3.333    491.279   1058.352    491.279    519.233    491.279
 99.670   1161.000   1179.153    -18.153    491.056   1146.646    491.056    523.540    491.056
 99.770   1325.000   1281.646     43.354    490.834   1243.929    490.834    528.534    490.834
 99.870   1397.491   1391.173      6.318    490.611   1347.541    490.611    534.237    490.611
 99.970   1570.248   1504.421     65.827    490.388   1454.171    490.388    540.647    490.388
100.070   1598.000   1617.475    -19.475    490.166   1559.935    490.166    547.732    490.166
100.170   1778.000   1725.997     52.003    489.943   1660.562    489.943    555.427    489.943
100.270   1896.289   1825.548     70.741    489.720   1751.719    489.720    563.623    489.720
100.370   1903.000   1911.974     -8.974    489.497   1829.403    489.497    572.168    489.497
100.470   1965.091   1981.739    -16.648    489.274   1890.280    489.274    580.859    489.274
100.570   1990.758   2032.092    -41.335    489.050   1931.857    489.050    589.437    489.050
100.670   2068.000   2061.072      6.928    488.827   1952.483    488.827    597.590    488.827
100.770   2087.701   2067.486     20.215    488.605   1951.328    488.605    604.954    488.605
100.870   2070.000   2051.022     18.978    488.382   1928.474    488.382    611.136    488.382
100.970   2022.413   2012.518      9.895    488.159   1885.148    488.159    615.743    488.159
101.070   1960.618   1954.197      6.421    487.936   1823.910    487.936    618.441    487.936
101.170   1897.000   1879.674     17.326    487.714   1748.594    487.714    619.009    487.714
101.270   1754.011   1793.617    -39.606    487.491   1663.933    487.491    617.384    487.491
101.370   1650.571   1701.184    -50.613    487.269   1574.974    487.269    613.677    487.269
101.470   1575.000   1607.426    -32.426    487.047   1486.510    487.047    608.147    487.047
101.570   1464.838   1516.814    -51.976    486.825   1402.653    486.825    601.153    486.825
101.670   1402.919   1432.929    -30.010    486.603   1326.591    486.603    593.092    486.603
101.770   1369.000   1358.307     10.693    486.382   1260.471    486.382    584.352    486.382
101.870   1310.000   1294.386     15.614    486.161   1205.382    486.161    575.284    486.161
101.970   1285.907   1241.543     44.364    485.940   1161.404    485.940    566.185    485.940
102.070   1170.000   1199.184    -29.184    485.719   1127.703    485.719    557.296    485.719
102.170   1206.000   1165.887     40.113    485.499   1102.666    485.499    548.807    485.499
102.270   1161.804   1139.584     22.220    485.279   1084.090    485.279    540.856    485.279
102.370   1123.000   1117.795      5.205    485.060   1069.396    485.060    533.538    485.060
102.470   1071.000   1097.903    -26.903    484.841   1055.914    484.841    526.908    484.841
102.570   1118.689   1077.471     41.218    484.622   1041.183    484.622    520.989    484.622
102.670   1041.000   1054.552    -13.552    484.404   1023.261    484.404    515.775    484.404
102.770   1027.000   1027.913     -0.913    484.187   1000.943    484.187    511.237    484.187
102.870   1017.000    997.117     19.883    483.969    973.838    483.969    507.330    483.969
102.970    976.000    962.433     13.567    483.753    942.270    483.753    503.996    483.753
103.070    944.492    924.646     19.846    483.537    907.088    483.537    501.173    483.537
103.170    827.000    884.834    -57.834    483.321    869.435    483.321    498.795    483.321
103.270    844.000    844.188     -0.188    483.106    830.566    483.106    496.798    483.106
103.370    858.000    803.876     54.124    482.892    791.710    482.892    495.122    482.892
103.470    766.814    764.953      1.861    482.678    753.978    482.678    493.711    482.678
103.570    745.000    728.307     16.693    482.465    718.306    482.465    492.518    482.465
103.670    692.467    694.619     -2.152    482.253    685.416    482.253    491.500    482.253
103.770    684.000    664.348     19.652    482.041    655.803    482.041    490.624    482.041
103.870    621.000    637.740    -16.740    481.830    629.742    481.830    489.861    481.830
103.970    545.000    614.840    -69.840    481.620    607.299    481.620    489.187    481.620
104.070    602.000    595.540      6.460    481.410    588.387    481.410    488.585    481.410
104.170    558.605    579.592    -20.987    481.202    572.772    481.202    488.039    481.202
104.270    549.904    566.668    -16.764    480.994    560.135    480.994    487.540    480.994
104.370    595.171    556.394     38.777    480.787    550.112    480.787    487.079    480.787
104.470    590.000    548.388     41.612    480.581    542.327    480.581    486.649    480.581
104.570    563.062    542.283     20.778    480.376    536.419    480.376    486.245    480.376
104.670    503.384    537.750    -34.367    480.172    532.061    480.172    485.864    480.172
104.770    552.000    534.506     17.494    479.969    528.974    479.969    485.502    479.969
104.870    520.657    532.322    -11.665    479.767    526.931    479.767    485.158    479.767
104.970    540.000    531.027      8.973    479.566    525.761    479.566    484.829    479.566
105.070    542.000    530.499     11.501    479.366    525.346    479.366    484.515    479.366
105.170    532.000    530.671      1.329    479.167    525.619    479.167    484.214    479.167
105.270    534.000    531.519      2.481    478.969    526.557    478.969    483.925    478.969
105.370    554.000    533.060     20.940    478.772    528.177    478.772    483.647    478.772
105.470    534.000    535.343     -1.343    478.576    530.530    478.576    483.380    478.576
105.570    495.382    538.446    -43.064    478.382    533.693    478.382    483.122    478.382
105.670    583.000    542.462     40.538    478.189    537.762    478.189    482.875    478.189
105.770    548.000    547.491      0.509    477.997    542.835    477.997    482.636    477.997
105.870    576.000    553.622     22.378    477.806    549.002    477.806    482.406    477.806
105.970    555.000    560.918     -5.918    477.617    556.328    477.617    482.184    477.617
106.070    572.000    569.406      2.594    477.429    564.839    477.429    481.971    477.429
106.170    553.387    579.061    -25.674    477.242    574.509    477.242    481.765    477.242
106.270    638.000    589.797     48.203    477.056    585.254    477.056    481.566    477.056
106.370    557.227    601.461    -44.234    476.873    596.923    476.873    481.376    476.873
106.470    588.000    613.835    -25.835    476.690    609.295    476.690    481.192    476.690
106.570    660.244    626.634     33.611    476.509    622.086    476.509    481.016    476.509
106.670    614.000    639.513    -25.513    476.329    634.953    476.329    480.846    476.329
106.770    651.000    652.083     -1.083    476.151    647.506    476.151    480.684    476.151
106.870    625.000    663.926    -38.926    475.975    659.327    475.975    480.528    475.975
106.970    652.000    674.622    -22.622    475.800    669.996    475.800    480.380    475.800
107.070    687.393    683.786      3.607    475.627    679.129    475.627    480.239    475.627
107.170    673.000    691.118    -18.118    475.455    686.426    475.455    480.104    475.455
107.270    720.901    696.450     24.451    475.286    691.718    475.286    479.977    475.286
107.370    683.725    699.787    -16.062    475.117    695.010    475.117    479.857    475.117
107.470    707.034    701.309      5.725    474.951    696.482    474.951    479.744    474.951
107.570    661.345    701.349    -40.004    474.786    696.468    474.786    479.639    474.786
107.670    692.000    700.336     -8.336    474.624    695.394    474.624    479.541    474.624
107.770    738.690    698.728     39.962    474.463    693.720    474.463    479.450    474.463
107.870    712.000    696.958     15.042    474.304    691.878    474.304    479.368    474.304
107.970    722.690    695.387     27.303    474.146    690.227    474.146    479.294    474.146
108.070    712.039    694.271     17.768    473.991    689.026    473.991    479.228    473.991
108.170    629.000    693.748    -64.748    473.838    688.411    473.838    479.170    473.838
108.270    647.594    693.824    -46.230    473.686    688.388    473.686    479.122    473.686
108.370    686.000    694.380     -8.380    473.537    688.837    473.537    479.083    473.537
108.470    686.549    695.174     -8.625    473.390    689.518    473.390    479.053    473.390
108.570    731.055    695.869     35.185    473.245    690.091    473.245    479.033    473.245
108.670    665.520    696.058    -30.538    473.102    690.150    473.102    479.024    473.102
108.770    691.000    695.314     -4.314    472.961    689.266    472.961    479.025    472.961
108.870    746.000    693.244     52.756    472.823    687.047    472.823    479.038    472.823
108.970    718.000    689.552     28.448    472.686    683.196    472.686    479.062    472.686
109.070    689.000    684.080      4.920    472.552    677.555    472.552    479.100    472.552
109.170    643.093    676.834    -33.741    472.421    670.128    472.421    479.150    472.421
109.270    668.843    667.969      0.873    472.291    661.070    472.291    479.214    472.291
109.370    669.960    657.757     12.203    472.164    650.651    472.164    479.293    472.164
109.470    678.825    646.537     32.288    472.040    639.212    472.040    479.387    472.040
109.570    596.356    634.661    -38.305    471.917    627.102    471.917    479.499    471.917
109.670    586.082    622.531    -36.449    471.798    614.721    471.798    479.628    471.798
109.770    636.000    610.514     25.486    471.681    602.437    471.681    479.776    471.681
109.870    608.454    598.902      9.552    471.566    590.539    471.566    479.945    471.566
109.970    599.000    587.957     11.043    471.454    579.287    471.454    480.138    471.454
110.070    553.861    577.887    -24.025    471.345    568.889    471.345    480.355    471.345
110.170    585.000    568.846     16.154    471.238    559.494    471.238    480.599    471.238
110.270    562.000    560.930      1.070    471.134    551.197    471.134    480.875    471.134
110.370    553.000    554.186     -1.186    471.033    544.039    471.033    481.186    471.033
110.470    555.000    548.614      6.386    470.934    538.015    470.934    481.537    470.934
110.570    555.000    544.177     10.823    470.838    533.084    470.838    481.935    470.838
110.670    521.597    540.811    -19.213    470.746    529.172    470.746    482.386    470.746
110.770    547.000    538.432      8.568    470.656    526.188    470.656    482.900    470.656
110.870    538.000    536.950      1.050    470.569    524.028    470.569    483.489    470.569
110.970    570.000    536.269     33.731    470.484    522.584    470.484    484.166    470.484
111.070    540.000    536.301      3.699    470.403    521.750    470.403    484.950    470.403
111.170    567.677    536.965     30.712    470.325    521.426    470.325    485.860    470.325
111.270    541.779    538.196      3.583    470.250    521.518    470.250    486.922    470.250
111.370    548.236    539.941      8.295    470.179    521.947    470.179    488.166    470.179
111.470    514.000    542.165    -28.165    470.110    522.643    470.110    489.625    470.110
111.570    531.000    544.850    -13.850    470.044    523.547    470.044    491.340    470.044
111.670    551.000    547.991      3.009    469.982    524.611    469.982    493.354    469.982
111.770    525.105    551.611    -26.506    469.923    525.801    469.923    495.725    469.923
111.870    540.000    555.742    -15.742    469.868    527.091    469.868    498.510    469.868
111.970    561.000    560.431      0.569    469.815    528.468    469.815    501.769    469.815
112.070    534.000    565.744    -31.744    469.766    529.929    469.766    505.571    469.766
112.170    613.204    571.757     41.447    469.721    531.481    469.721    509.987    469.721
112.270    603.185    578.560     24.625    469.679    533.140    469.679    515.089    469.679
112.370    546.240    586.249    -40.008    469.640    534.931    469.640    520.948    469.640
112.470    644.000    594.925     49.075    469.605    536.887    469.605    527.634    469.605
112.570    600.000    604.693     -4.693    469.574    539.050    469.574    535.207    469.574
112.670    630.407    615.657     14.750    469.546    541.472    469.546    543.722    469.546
112.770    596.000    627.925    -31.925    469.522    544.222    469.522    553.215    469.522
112.870    644.000    641.603      2.397    469.502    547.385    469.502    563.710    469.502
112.970    665.687    656.795      8.892    469.486    551.072    469.486    575.198    469.486
113.070    665.000    673.639     -8.639    469.473    555.429    469.473    587.671    469.473
113.170    651.672    692.266    -40.594    469.464    560.646    469.464    601.071    469.464
113.270    677.011    712.839    -35.828    469.459    566.974    469.459    615.310    469.459
113.370    722.000    735.564    -13.564    469.458    574.738    469.458    630.267    469.458
113.470    785.631    760.705     24.926    469.461    584.363    469.461    645.785    469.461
113.570    760.000    788.604    -28.604    469.468    596.389    469.468    661.661    469.468
113.670    780.000    819.701    -39.701    469.479    611.502    469.479    677.652    469.479
113.770    873.000    854.563     18.437    469.494    630.560    469.494    693.466    469.494
113.870    872.000    893.908    -21.908    469.514    654.617    469.514    708.766    469.514
113.970    874.000    938.632    -64.632    469.537    684.949    469.537    723.173    469.537
114.070    956.502    989.837    -33.334    469.565    723.069    469.565    736.273    469.565
114.170   1070.000   1048.857     21.143    469.597    770.744    469.597    747.637    469.597
114.270   1181.000   1117.284     63.716    469.634    829.985    469.634    756.841    469.634
114.370   1169.000   1196.980    -27.980    469.674    903.033    469.674    763.509    469.674
114.470   1271.088   1290.079    -18.991    469.720    992.318    469.720    767.344    469.720
114.570   1452.473   1398.959     53.514    469.769   1100.395    469.769    768.167    469.769
114.670   1564.000   1526.173     37.827    469.823   1229.856    469.823    765.939    469.823
114.770   1728.000   1674.339     53.661    469.882   1383.210    469.882    760.772    469.882
114.870   1868.000   1845.981     22.019    469.946   1562.740    469.946    752.904    469.946
114.970   1967.711   2043.333    -75.622    470.014   1770.340    470.014    742.677    470.014
115.070   2344.000   2268.121     75.879    470.086   2007.331    470.086    730.497    470.086
115.170   2508.000   2521.333    -13.333    470.164   2274.273    470.164    716.793    470.164
115.270   2888.000   2803.015     84.985    470.246   2570.786    470.246    701.990    470.246
115.370   3102.000   3112.076    -10.076    470.333   2895.385    470.333    686.488    470.333
115.470   3526.000   3446.149     79.851    470.425   3245.345    470.425    670.645    470.425
115.570   3778.000   3801.496    -23.496    470.522   3616.614    470.522    654.776    470.522
115.670   4092.000   4172.962    -80.962    470.624   4003.773    470.624    639.149    470.624
115.770   4583.556   4554.009     29.547    470.731   4400.063    470.731    623.986    470.731
115.870   4806.000   4936.795   -130.795    470.843   4797.463    470.843    609.468    470.843
115.970   5246.000   5312.330    -66.330    470.960   5186.849    470.960    595.735    470.960
116.070   5691.765   5670.709     21.056    471.083   5558.210    471.083    582.889    471.083
116.170   5983.403   6001.412    -18.009    471.210   5900.961    471.210    570.999    471.210
116.270   6309.000   6293.724     15.276    471.343   6204.348    471.343    560.104    471.343
116.370   6557.000   6537.260     19.740    471.482   6457.977    471.482    550.215    471.482
116.470   6834.000   6722.629    111.371    471.625   6652.463    471.625    541.321    471.625
116.570   6838.634   6842.158     -3.525    471.774   6780.165    471.774    533.391    471.774
116.670   6962.000   6890.640     71.360    471.929   6835.916    471.929    526.379    471.929
116.770   6965.552   6865.915     99.637    472.089   6817.610    472.089    520.227    472.089
116.870   6749.236   6769.024    -19.789    472.254   6726.349    472.254    514.870    472.254
116.970   6486.845   6604.142   -117.297    472.426   6566.373    472.426    510.238    472.426
117.070   6394.000   6378.080     15.920    472.603   6344.561    472.603    506.258    472.603
117.170   5976.000   6099.593   -123.593    472.785   6069.737    472.785    502.859    472.785
117.270   5708.000   5778.639    -70.639    472.974   5751.927    472.974    499.971    472.974
117.370   5291.000   5425.697   -134.697    473.168   5401.673    473.168    497.529    473.168
117.470   5006.000   5051.207    -45.207    473.368   5029.477    473.368    495.472    473.368
117.570   4494.000   4665.133   -171.133    473.575   4645.357    473.575    493.746    473.575
117.670   4243.120   4276.634    -33.514    473.787   4258.524    473.787    492.301    473.787
117.770   3935.065   3893.828     41.237    474.005   3877.139    474.005    491.095    474.005
117.870   3478.613   3523.626    -45.013    474.229   3508.153    474.229    490.089    474.229
117.970   3309.000   3171.643    137.357    474.460   3157.215    474.460    489.253    474.460
118.070   2945.000   2842.176    102.824    474.696   2828.650    474.696    488.559    474.696
118.170   2605.000   2538.238     66.762    474.939   2525.498    474.939    487.985    474.939
118.270   2331.000   2261.649     69.351    475.189   2249.598    475.189    487.510    475.189
118.370   1980.062   2013.158    -33.095    475.444   2001.716    475.444    487.121    475.444
118.470   1770.000   1792.595    -22.595    475.706   1781.698    475.706    486.804    475.706
118.570   1567.000   1599.038    -32.038    475.975   1588.631    475.975    486.550    475.975
118.670   1395.000   1430.978    -35.978    476.250   1421.017    476.250    486.349    476.250
118.770   1280.000   1286.489     -6.489    476.531   1276.935    476.531    486.195    476.531
118.870   1095.000   1163.378    -68.378    476.820   1154.201    476.820    486.084    476.820
118.970   1017.000   1059.329    -42.329    477.115   1050.500    477.115    486.010    477.115
119.070    994.418    972.011     22.407    477.416    963.507    477.416    485.970    477.416
119.170    876.000    899.176    -23.176    477.725    890.976    477.725    485.962    477.725
119.270    813.325    838.724    -25.399    478.040    830.807    478.040    485.983    478.040
119.370    755.000    788.743    -33.743    478.363    781.092    478.363    486.033    478.363
119.470    790.532    747.538     42.994    478.692    740.134    478.692    486.108    478.692
119.570    727.407    713.632     13.775    479.028    706.459    479.028    486.209    479.028
119.670    682.000    685.762     -3.762    479.372    678.805    479.372    486.334    479.372
119.770    678.579    662.869     15.709    479.723    656.112    479.723    486.484    479.723
119.870    626.982    644.072    -17.090    480.080    637.498    480.080    486.657    480.080
119.970    617.000    628.650    -11.650    480.446    622.244    480.446    486.854    480.446
120.070    597.000    616.018    -19.018    480.818    609.763    480.818    487.074    480.818
120.170    578.000    605.706    -27.706    481.198    599.588    481.198    487.318    481.198
120.270    640.983    597.340     43.643    481.585    591.342    481.585    487.586    481.585
120.370    626.650    590.624     36.026    481.980    584.729    481.980    487.878    481.980
120.470    525.000    585.325    -60.325    482.382    579.517    482.382    488.194    482.382
120.570    564.000    581.259    -17.259    482.792    575.520    482.792    488.535    482.792
120.670    580.000    578.283      1.717    483.210    572.596    483.210    488.901    483.210
120.770    595.000    576.286     18.714    483.635    570.633    483.635    489.293    483.635
120.870    594.644    575.178     19.466    484.068    569.542    484.068    489.711    484.068
120.970    601.000    574.890     26.110    484.509    569.250    484.509    490.155    484.509
121.070    545.000    575.360    -30.360    484.958    569.700    484.958    490.626    484.958
121.170    589.000    576.538     12.462    485.415    570.838    485.415    491.124    485.415
121.270    560.957    578.375    -17.418    485.880    572.617    485.880    491.649    485.880
121.370    570.503    580.823    -10.319    486.354    574.988    486.354    492.200    486.354
121.470    615.000    583.829     31.171    486.835    577.901    486.835    492.777    486.835
121.570    588.000    587.339      0.661    487.324    581.300    487.324    493.380    487.324
121.670    588.000    591.290     -3.290    487.822    585.123    487.822    494.007    487.822
121.770    593.000    595.609     -2.609    488.328    589.301    488.328    494.657    488.328
121.870    558.437    600.218    -41.781    488.843    593.756    488.843    495.329    488.843
121.970    651.000    605.030     45.970    489.366    598.402    489.366    496.020    489.366
122.070    630.000    609.947     20.053    489.898    603.145    489.898    496.728    489.898
122.170    667.000    614.867     52.133    490.438    607.885    490.438    497.451    490.438
122.270    581.757    619.679    -37.923    490.987    612.515    490.987    498.185    490.987
122.370    588.585    624.272    -35.687    491.544    616.926    491.544    498.926    491.544
122.470    653.089    628.531     24.558    492.111    621.009    492.111    499.671    492.111
122.570    633.845    632.348      1.497    492.686    624.660    492.686    500.415    492.686
122.670    632.261    635.624     -3.363    493.270    627.783    493.270    501.153    493.270
122.770    655.950    638.272     17.678    493.863    630.299    493.863    501.881    493.863
122.870    645.000    640.227      4.773    494.466    632.145    494.466    502.593    494.466
122.970    640.000    641.449     -1.449    495.077    633.288    495.077    503.285    495.077
123.070    608.625    641.924    -33.299    495.698    633.717    495.698    503.952    495.698
123.170    686.840    641.664     45.176    496.327    633.447    496.327    504.592    496.327
123.270    624.000    640.704    -16.704    496.967    632.516    496.967    505.201    496.967
123.370    611.000    639.101    -28.101    497.615    630.980    497.615    505.780    497.615
123.470    616.407    636.922    -20.516    498.273    628.910    498.273    506.329    498.273
123.570    656.000    634.249     21.751    498.941    626.382    498.941    506.849    498.941
123.670    643.385    631.165     12.219    499.618    623.478    499.618    507.344    499.618
123.770    618.084    627.757     -9.673    500.304    620.279    500.304    507.819    500.304
123.870    677.000    624.107     52.893    501.001    616.865    501.001    508.277    501.001
123.970    601.000    620.296    -19.296    501.707    613.310    501.707    508.723    501.707
124.070    665.000    616.394     48.606    502.423    609.682    502.423    509.163    502.423
124.170    647.000    612.464     34.536    503.149    606.037    503.149    509.601    503.149
124.270    594.978    608.560    -13.582    503.885    602.425    503.885    510.042    503.885
124.370    605.347    604.723      0.623    504.632    598.884    504.632    510.489    504.632
124.470    591.028    600.985     -9.957    505.388    595.442    505.388    510.947    505.388
124.570    605.000    597.366      7.634    506.154    592.116    506.154    511.418    506.154
124.670    618.000    593.879     24.121    506.931    588.916    506.931    511.906    506.931
124.770    602.659    590.529     12.130    507.718    585.844    507.718    512.412    507.718
124.870    639.000    587.312     51.688    508.515    582.896    508.515    512.939    508.515
124.970    586.000    584.232      1.768    509.323    580.073    509.323    513.489    509.323
