neutron_powder_diffraction_0250
R_wp: 3.873
Temperature (K): 949.796
Counts: 83693.00
Wavelength (Ã…): 2.52098
COMMENTS
Test file for demonstrating the .xyy file format in Reel1.0
END OF HEADER
   tth       Y_obs     Y_calc      Y_res    Background    Phase_1_Nuc    Phase_1_Mag    Phase_2_Nuc    Phase_2_Mag
  9.970    603.000    561.358     41.642    560.723    561.327    560.723    560.754    560.723
 10.070    551.809    561.675     -9.866    560.986    561.644    560.986    561.017    560.986
 10.170    601.000    561.991     39.009    561.242    561.960    561.242    561.273    561.242
 10.270    563.000    562.310      0.690    561.490    562.279    561.490    561.520    561.490
 10.370    562.438    562.642     -0.204    561.730    562.610    561.730    561.761    561.730
 10.470    523.062    562.980    -39.918    561.962    562.949    561.962    561.993    561.962
 10.570    633.000    563.319     69.681    562.187    563.287    562.187    562.219    562.187
 10.670    590.000    563.673     26.327    562.405    563.639    562.405    562.438    562.405
 10.770    556.000    564.046     -8.046    562.615    564.011    562.615    562.648    562.615
 10.870    588.000    564.446     23.554    562.818    564.412    562.818    562.851    562.818
 10.970    567.421    564.886      2.535    563.013    564.851    563.013    563.047    563.013
 11.070    577.462    565.382     12.080    563.202    565.345    563.202    563.237    563.202
 11.170    583.000    565.955     17.045    563.383    565.918    563.383    563.419    563.383
 11.270    613.000    566.641     46.359    563.557    566.603    563.557    563.593    563.557
 11.370    607.561    567.500     40.061    563.724    567.460    563.724    563.762    563.724
 11.470    592.000    568.658     23.342    563.884    568.607    563.884    563.934    563.884
 11.570    604.208    570.417     33.792    564.038    570.363    564.038    564.088    564.038
 11.670    573.914    573.706      0.208    564.184    573.650    564.184    564.235    564.184
 11.770    585.101    580.817      4.284    564.324    580.756    564.324    564.375    564.324
 11.870    552.828    595.870    -43.042    564.457    595.801    564.457    564.508    564.457
 11.970    626.521    623.029      3.492    564.584    622.945    564.584    564.635    564.584
 12.070    729.000    660.863     68.137    564.704    660.756    564.704    564.755    564.704
 12.170    702.000    695.642      6.358    564.817    695.516    564.817    564.869    564.817
 12.270    723.818    704.779     19.039    564.924    704.646    564.924    564.977    564.924
 12.370    643.000    680.132    -37.132    565.024    680.007    565.024    565.083    565.024
 12.470    635.000    640.900     -5.900    565.119    640.797    565.119    565.178    565.119
 12.570    585.000    607.703    -22.703    565.207    607.619    565.207    565.267    565.207
 12.670    615.444    587.366     28.078    565.288    587.293    565.288    565.349    565.288
 12.770    556.000    577.365    -21.365    565.364    577.298    565.364    565.425    565.364
 12.870    572.000    572.963     -0.963    565.433    572.898    565.433    565.494    565.433
 12.970    571.947    570.919      1.028    565.497    570.855    565.497    565.558    565.497
 13.070    579.000    569.779      9.221    565.554    569.715    565.554    565.616    565.554
 13.170    529.000    569.030    -40.030    565.606    568.966    565.606    565.668    565.606
 13.270    544.000    568.493    -24.493    565.652    568.429    565.652    565.714    565.652
 13.370    544.231    568.093    -23.862    565.692    568.029    565.692    565.754    565.692
 13.470    540.000    567.787    -27.787    565.726    567.723    565.726    565.789    565.726
 13.570    570.000    567.547      2.453    565.754    567.483    565.754    565.818    565.754
 13.670    613.565    567.354     46.211    565.777    567.290    565.777    565.841    565.777
 13.770    573.000    567.197      5.803    565.794    567.132    565.794    565.858    565.794
 13.870    587.161    567.064     20.096    565.806    566.999    565.806    565.870    565.806
 13.970    602.152    566.950     35.201    565.812    566.885    565.812    565.877    565.812
 14.070    570.000    566.850      3.150    565.813    566.785    565.813    565.878    565.813
 14.170    535.000    566.760    -31.760    565.809    566.694    565.809    565.874    565.809
 14.270    568.000    566.678      1.322    565.799    566.611    565.799    565.866    565.799
 14.370    594.874    566.603     28.271    565.784    566.533    565.784    565.854    565.784
 14.470    541.000    566.529    -25.529    565.764    566.458    565.764    565.835    565.764
 14.570    535.000    566.457    -31.457    565.739    566.385    565.739    565.811    565.739
 14.670    568.420    566.387      2.034    565.708    566.314    565.708    565.781    565.708
 14.770    525.129    566.316    -41.188    565.673    566.243    565.673    565.746    565.673
 14.870    548.000    566.245    -18.245    565.633    566.171    565.633    565.706    565.633
 14.970    524.397    566.175    -41.778    565.587    566.101    565.587    565.662    565.587
 15.070    594.215    566.100     28.115    565.537    566.025    565.537    565.612    565.537
 15.170    496.000    566.023    -70.023    565.482    565.947    565.482    565.557    565.482
 15.270    586.054    565.943     20.111    565.423    565.867    565.423    565.498    565.423
 15.370    555.000    565.861    -10.861    565.358    565.784    565.358    565.434    565.358
 15.470    538.817    565.775    -26.959    565.289    565.699    565.289    565.365    565.289
 15.570    560.000    565.687     -5.687    565.215    565.610    565.215    565.292    565.215
 15.670    550.946    565.596    -14.650    565.137    565.519    565.137    565.214    565.137
 15.770    580.842    565.502     15.340    565.054    565.424    565.054    565.132    565.054
 15.870    600.010    565.404     34.605    564.967    565.326    564.967    565.045    564.967
 15.970    508.000    565.303    -57.303    564.876    565.225    564.876    564.954    564.876
 16.070    568.000    565.199      2.801    564.780    565.120    564.780    564.859    564.780
 16.170    595.038    565.091     29.947    564.680    565.012    564.680    564.759    564.680
 16.270    558.840    564.980     -6.140    564.575    564.900    564.575    564.655    564.575
 16.370    575.000    564.866     10.134    564.466    564.785    564.466    564.547    564.466
 16.470    554.000    564.748    -10.748    564.354    564.666    564.354    564.435    564.354
 16.570    555.000    564.626     -9.626    564.237    564.544    564.237    564.318    564.237
 16.670    561.000    564.501     -3.501    564.116    564.419    564.116    564.198    564.116
 16.770    554.000    564.374    -10.374    563.991    564.290    563.991    564.075    563.991
 16.870    582.000    564.242     17.758    563.862    564.157    563.862    563.947    563.862
 16.970    586.012    564.107     21.905    563.729    564.021    563.729    563.815    563.729
 17.070    560.000    563.968     -3.968    563.593    563.882    563.593    563.679    563.593
 17.170    561.000    563.826     -2.826    563.452    563.739    563.452    563.539    563.452
 17.270    521.888    563.680    -41.792    563.308    563.593    563.308    563.395    563.308
 17.370    581.000    563.532     17.468    563.160    563.444    563.160    563.248    563.160
 17.470    564.000    563.382      0.618    563.008    563.294    563.008    563.097    563.008
 17.570    567.000    563.227      3.773    562.853    563.138    562.853    562.942    562.853
 17.670    542.000    563.068    -21.068    562.694    562.979    562.694    562.784    562.694
 17.770    553.000    562.906     -9.906    562.532    562.816    562.532    562.622    562.532
 17.870    577.313    562.741     14.572    562.366    562.650    562.366    562.457    562.366
 17.970    532.000    562.573    -30.573    562.197    562.481    562.197    562.289    562.197
 18.070    558.000    562.401     -4.401    562.024    562.309    562.024    562.117    562.024
 18.170    560.000    562.227     -2.227    561.849    562.134    561.849    561.941    561.849
 18.270    550.000    562.049    -12.049    561.669    561.956    561.669    561.763    561.669
 18.370    543.000    561.869    -18.869    561.487    561.775    561.487    561.581    561.487
 18.470    516.000    561.686    -45.686    561.301    561.591    561.301    561.396    561.301
 18.570    553.120    561.501     -8.381    561.112    561.405    561.112    561.208    561.112
 18.670    558.000    561.312     -3.312    560.920    561.216    560.920    561.017    560.920
 18.770    564.000    561.121      2.879    560.725    561.023    560.725    560.822    560.725
 18.870    528.312    560.926    -32.614    560.527    560.828    560.527    560.625    560.527
 18.970    554.399    560.733     -6.334    560.326    560.630    560.326    560.429    560.326
 19.070    595.000    560.536     34.464    560.122    560.429    560.122    560.229    560.122
 19.170    562.000    560.334      1.666    559.915    560.226    559.915    560.023    559.915
 19.270    582.998    560.129     22.869    559.705    560.020    559.705    559.814    559.705
 19.370    530.000    559.922    -29.922    559.492    559.812    559.492    559.602    559.492
 19.470    542.000    559.711    -17.711    559.277    559.601    559.277    559.387    559.277
 19.570    546.000    559.499    -13.499    559.059    559.387    559.059    559.170    559.059
 19.670    570.000    559.284     10.716    558.838    559.172    558.838    558.950    558.838
 19.770    575.000    559.067     15.933    558.614    558.953    558.614    558.728    558.614
 19.870    541.000    558.849    -17.849    558.388    558.735    558.388    558.503    558.388
 19.970    534.000    558.643    -24.643    558.160    558.528    558.160    558.275    558.160
 20.070    545.656    558.427    -12.771    557.928    558.311    557.928    558.045    557.928
 20.170    537.000    558.202    -21.202    557.695    558.085    557.695    557.812    557.695
 20.270    548.000    557.975     -9.975    557.459    557.856    557.459    557.577    557.459
 20.370    525.173    557.745    -32.572    557.220    557.626    557.220    557.340    557.220
 20.470    556.000    557.514     -1.514    556.979    557.393    556.979    557.100    556.979
 20.570    534.000    557.281    -23.281    556.736    557.159    556.736    556.858    556.736
 20.670    581.245    557.046     24.199    556.490    556.923    556.490    556.613    556.490
 20.770    502.000    556.809    -54.809    556.243    556.685    556.243    556.367    556.243
 20.870    524.000    556.571    -32.571    555.993    556.446    555.993    556.118    555.993
 20.970    549.000    556.332     -7.332    555.740    556.206    555.740    555.867    555.740
 21.070    527.000    556.092    -29.092    555.486    555.964    555.486    555.614    555.486
 21.170    551.000    555.850     -4.850    555.230    555.721    555.230    555.359    555.230
 21.270    535.000    555.607    -20.607    554.971    555.476    554.971    555.102    554.971
 21.370    576.000    555.363     20.637    554.711    555.231    554.711    554.843    554.711
 21.470    516.817    555.118    -38.301    554.448    554.985    554.448    554.582    554.448
 21.570    521.000    554.873    -33.873    554.184    554.738    554.184    554.319    554.184
 21.670    564.452    554.627      9.825    553.918    554.490    553.918    554.054    553.918
 21.770    550.663    554.381     -3.717    553.649    554.243    553.649    553.787    553.649
 21.870    561.000    554.134      6.866    553.379    553.995    553.379    553.519    553.379
 21.970    547.000    553.897     -6.897    553.107    553.756    553.107    553.249    553.107
 22.070    531.000    553.738    -22.738    552.834    553.595    552.834    552.977    552.834
 22.170    550.000    553.512     -3.512    552.559    553.367    552.559    552.703    552.559
 22.270    545.000    553.271     -8.271    552.281    553.125    552.281    552.428    552.281
 22.370    566.914    553.033     13.881    552.003    552.885    552.003    552.151    552.003
 22.470    582.000    552.794     29.206    551.723    552.644    551.723    551.873    551.723
 22.570    550.000    552.561     -2.561    551.441    552.409    551.441    551.593    551.441
 22.670    560.000    552.365      7.635    551.157    552.211    551.157    551.312    551.157
 22.770    553.000    552.150      0.850    550.872    551.993    550.872    551.029    550.872
 22.870    494.000    551.930    -57.930    550.586    551.771    550.586    550.745    550.586
 22.970    587.146    551.723     35.422    550.298    551.560    550.298    550.461    550.298
 23.070    530.109    551.574    -21.465    550.009    551.407    550.009    550.176    550.009
 23.170    562.000    551.386     10.614    549.718    551.216    549.718    549.888    549.718
 23.270    532.000    551.207    -19.207    549.426    551.035    549.426    549.599    549.426
 23.370    540.000    551.047    -11.047    549.133    550.872    549.133    549.308    549.133
 23.470    548.000    550.912     -2.912    548.838    550.735    548.838    549.016    548.838
 23.570    554.000    550.810      3.190    548.542    550.630    548.542    548.724    548.542
 23.670    519.303    550.752    -31.449    548.245    550.568    548.245    548.430    548.245
 23.770    559.183    550.754      8.429    547.947    550.567    547.947    548.135    547.947
 23.870    526.017    550.841    -24.824    547.647    550.651    547.647    547.839    547.647
 23.970    532.110    551.055    -18.945    547.347    550.862    547.347    547.542    547.347
 24.070    576.000    551.489     24.511    547.045    551.293    547.045    547.244    547.045
 24.170    595.000    552.385     42.615    546.743    552.185    546.743    546.945    546.743
 24.270    596.856    554.409     42.447    546.439    554.207    546.439    546.646    546.439
 24.370    588.000    559.090     28.910    546.134    558.888    546.134    546.345    546.134
 24.470    605.000    568.965     36.035    545.829    568.765    545.829    546.044    545.829
 24.570    599.496    586.341     13.155    545.522    586.148    545.522    545.742    545.522
 24.670    623.000    610.023     12.977    545.215    609.842    545.215    545.440    545.215
 24.770    655.000    631.667     23.333    544.906    631.497    544.906    545.137    544.906
 24.870    629.000    637.698     -8.698    544.597    637.527    544.597    544.833    544.597
 24.970    645.000    622.713     22.287    544.287    622.525    544.287    544.529    544.287
 25.070    574.000    597.784    -23.784    543.976    597.573    543.976    544.225    543.976
 25.170    625.000    575.674     49.326    543.665    575.440    543.665    543.920    543.665
 25.270    587.000    561.272     25.728    543.352    561.021    543.352    543.615    543.352
 25.370    526.845    553.632    -26.787    543.040    553.368    543.040    543.310    543.040
 25.470    583.403    549.963     33.441    542.726    549.688    542.726    543.004    542.726
 25.570    563.731    548.123     15.608    542.412    547.838    542.412    542.699    542.412
 25.670    523.067    547.001    -23.934    542.097    546.707    542.097    542.393    542.097
 25.770    562.123    546.222     15.901    541.781    545.917    541.781    542.088    541.781
 25.870    588.000    545.592     42.408    541.465    545.276    541.465    541.782    541.465
 25.970    533.000    545.071    -12.071    541.149    544.744    541.149    541.477    541.149
 26.070    568.149    544.634     23.516    540.832    544.294    540.832    541.173    540.832
 26.170    553.000    544.265      8.735    540.515    543.911    540.515    540.869    540.515
 26.270    546.000    543.952      2.048    540.197    543.584    540.197    540.565    540.197
 26.370    587.637    543.690     43.947    539.878    543.306    539.878    540.263    539.878
 26.470    542.000    543.475     -1.475    539.560    543.073    539.560    539.961    539.560
 26.570    547.000    543.312      3.688    539.241    542.891    539.241    539.661    539.241
 26.670    543.000    543.207     -0.207    538.921    542.766    538.921    539.362    538.921
 26.770    599.000    543.150     55.850    538.601    542.687    538.601    539.065    538.601
 26.870    545.621    543.187      2.434    538.281    542.698    538.281    538.770    538.281
 26.970    565.000    543.296     21.704    537.961    542.780    537.961    538.477    537.961
 27.070    506.115    543.490    -37.375    537.641    542.943    537.641    538.187    537.641
 27.170    537.292    543.820     -6.528    537.320    543.238    537.320    537.901    537.320
 27.270    588.337    544.328     44.009    536.999    543.708    536.999    537.618    536.999
 27.370    574.000    545.079     28.921    536.678    544.416    536.678    537.340    536.678
 27.470    560.000    546.198     13.802    536.357    545.486    536.357    537.068    536.357
 27.570    555.000    547.979      7.021    536.036    547.211    536.036    536.802    536.036
 27.670    592.000    551.444     40.556    535.715    550.612    535.715    536.544    535.715
 27.770    560.000    560.168     -0.168    535.393    559.259    535.393    536.295    535.393
 27.870    588.000    583.809      4.191    535.072    582.807    535.072    536.058    535.072
 27.970    631.000    639.389     -8.389    534.750    638.269    534.750    535.834    534.750
 28.070    762.000    739.230     22.770    534.429    737.964    534.429    535.628    534.429
 28.170    823.012    863.735    -40.723    534.108    862.303    534.108    535.444    534.108
 28.270    976.000    947.584     28.416    533.786    945.986    533.786    535.287    533.786
 28.370    974.000    929.414     44.586    533.465    927.648    533.465    535.165    533.465
 28.470    867.000    831.314     35.686    533.144    829.337    533.144    535.090    533.144
 28.570    727.000    732.527     -5.527    532.823    730.259    532.823    535.078    532.823
 28.670    728.766    692.413     36.353    532.502    689.745    532.502    535.156    532.502
 28.770    678.051    721.342    -43.291    532.182    718.125    532.182    535.376    532.182
 28.870    792.000    788.361      3.639    531.861    784.367    531.861    535.828    531.861
 28.970    833.000    836.475     -3.475    531.541    831.331    531.541    536.665    531.541
 29.070    807.868    819.821    -11.953    531.221    812.913    531.221    538.128    531.221
 29.170    723.000    749.560    -26.560    530.901    739.941    530.901    540.531    530.901
 29.270    660.000    671.325    -11.325    530.582    657.722    530.582    544.197    530.582
 29.370    611.000    616.748     -5.748    530.263    597.718    530.263    549.300    530.263
 29.470    544.494    590.403    -45.909    529.944    564.763    529.944    555.587    529.944
 29.570    612.000    582.150     29.850    529.626    549.848    529.626    561.928    529.626
 29.670    619.000    580.276     38.724    529.308    543.485    529.308    566.097    529.308
 29.770    601.000    577.308     23.692    528.990    540.397    528.990    565.899    528.990
 29.870    527.913    571.123    -43.209    528.673    538.533    528.673    561.261    528.673
 29.970    599.280    563.213     36.067    528.356    537.242    528.356    554.326    528.356
 30.070    576.000    555.655     20.345    528.039    536.328    528.039    547.365    528.039
 30.170    566.000    549.577     16.423    527.724    535.737    527.724    541.561    527.724
 30.270    578.000    545.320     32.680    527.408    535.527    527.408    537.198    527.408
 30.370    576.248    543.025     33.223    527.093    536.004    527.093    534.111    527.093
 30.470    526.606    543.268    -16.661    526.779    538.061    526.779    531.980    526.779
 30.570    547.000    547.600     -0.600    526.465    543.567    526.465    530.488    526.465
 30.670    535.164    558.277    -23.113    526.152    555.017    526.152    529.391    526.152
 30.770    559.000    576.187    -17.187    525.839    573.460    525.839    528.531    525.839
 30.870    574.000    597.432    -23.432    525.527    595.094    525.527    527.816    525.527
 30.970    614.848    611.720      3.128    525.215    609.685    525.215    527.195    525.215
 31.070    590.959    608.976    -18.017    524.905    607.192    524.905    526.638    524.905
 31.170    585.000    590.895     -5.895    524.595    589.325    524.595    526.128    524.595
 31.270    576.510    568.465      8.046    524.285    567.073    524.285    525.654    524.285
 31.370    562.956    550.555     12.401    523.976    549.310    523.976    525.209    523.976
 31.470    600.000    539.636     60.364    523.668    538.512    523.668    524.786    523.668
 31.570    525.000    534.104     -9.104    523.361    533.079    523.361    524.382    523.361
 31.670    537.868    531.509      6.359    523.054    530.569    523.054    523.992    523.054
 31.770    574.000    530.195     43.805    522.748    529.327    522.748    523.615    522.748
 31.870    545.000    529.397     15.603    522.443    528.591    522.443    523.248    522.443
 31.970    542.000    528.837     13.163    522.139    528.084    522.139    522.890    522.139
 32.070    533.000    528.424      4.576    521.836    527.719    521.836    522.539    521.836
 32.170    539.000    528.128     10.872    521.533    527.465    521.533    522.195    521.533
 32.270    531.000    527.936      3.064    521.231    527.309    521.231    521.857    521.231
 32.370    513.000    527.845    -14.845    520.930    527.251    520.930    521.523    520.930
 32.470    554.000    527.863     26.137    520.630    527.297    520.630    521.194    520.630
 32.570    560.984    528.000     32.984    520.331    527.461    520.331    520.869    520.331
 32.670    536.000    528.272      7.728    520.033    527.756    520.033    520.548    520.033
 32.770    541.000    528.712     12.288    519.735    528.217    519.735    520.230    519.735
 32.870    507.000    529.367    -22.367    519.439    528.890    519.439    519.914    519.439
 32.970    535.318    530.301      5.017    519.144    529.841    519.144    519.602    519.144
 33.070    500.966    531.616    -30.650    518.849    531.171    518.849    519.292    518.849
 33.170    544.713    533.481     11.232    518.556    533.051    518.556    518.984    518.556
 33.270    528.000    536.262     -8.262    518.263    535.843    518.263    518.679    518.263
 33.370    528.000    540.924    -12.924    517.972    540.516    517.972    518.376    517.972
 33.470    565.000    550.120     14.880    517.681    549.720    517.681    518.075    517.681
 33.570    568.000    570.139     -2.139    517.392    569.744    517.392    517.776    517.392
 33.670    646.381    612.417     33.964    517.103    612.020    517.103    517.479    517.103
 33.770    720.000    690.599     29.401    516.816    690.193    516.816    517.184    516.816
 33.870    809.399    809.219      0.180    516.530    808.800    516.530    516.890    516.530
 33.970   1048.000    946.689    101.311    516.245    946.262    516.245    516.598    516.245
 34.070   1084.000   1046.982     37.018    515.961   1046.565    515.961    516.308    515.961
 34.170   1018.097   1049.858    -31.761    515.678   1049.470    515.678    516.019    515.678
 34.270    986.798    952.935     33.863    515.396    952.577    515.396    515.732    515.396
 34.370    819.433    814.984      4.450    515.115    814.647    515.115    515.447    515.115
 34.470    718.000    693.778     24.222    514.836    693.451    514.836    515.163    514.836
 34.570    639.000    612.757     26.243    514.558    612.435    514.558    514.881    514.558
 34.670    613.000    568.317     44.683    514.280    567.997    514.280    514.600    514.280
 34.770    549.000    546.880      2.120    514.005    546.563    514.005    514.321    514.005
 34.870    535.581    536.729     -1.148    513.730    536.414    513.730    514.043    513.730
 34.970    560.000    531.315     28.685    513.456    531.004    513.456    513.767    513.456
 35.070    500.000    527.856    -27.856    513.184    527.547    513.184    513.492    513.184
 35.170    515.000    525.334    -10.334    512.913    525.027    512.913    513.219    512.913
 35.270    514.000    523.369     -9.369    512.643    523.064    512.643    512.947    512.643
 35.370    499.093    521.783    -22.689    512.375    521.480    512.375    512.677    512.375
 35.470    518.000    520.472     -2.472    512.107    520.170    512.107    512.408    512.107
 35.570    561.197    519.367     41.830    511.841    519.067    511.841    512.141    511.841
 35.670    509.000    518.419     -9.419    511.577    518.121    511.577    511.875    511.577
 35.770    514.000    517.595     -3.595    511.313    517.297    511.313    511.611    511.313
 35.870    556.387    516.867     39.520    511.051    516.570    511.051    511.348    511.051
 35.970    498.000    516.219    -18.219    510.790    515.922    510.790    511.086    510.790
 36.070    536.000    515.635     20.365    510.531    515.339    510.531    510.826    510.531
 36.170    499.000    515.105    -16.105    510.273    514.810    510.273    510.568    510.273
 36.270    538.000    514.621     23.379    510.016    514.326    510.016    510.311    510.016
 36.370    545.955    514.178     31.777    509.761    513.884    509.761    510.056    509.761
 36.470    517.000    513.772      3.228    509.507    513.478    509.507    509.802    509.507
 36.570    476.474    513.401    -36.927    509.254    513.106    509.254    509.549    509.254
 36.670    507.778    513.065     -5.287    509.003    512.770    509.003    509.298    509.003
 36.770    492.000    512.766    -20.766    508.753    512.470    508.753    509.049    508.753
 36.870    504.422    512.513     -8.091    508.505    512.217    508.505    508.801    508.505
 36.970    523.620    512.334     11.285    508.258    512.038    508.258    508.555    508.258
 37.070    545.675    512.299     33.376    508.013    512.002    508.013    508.310    508.013
 37.170    553.414    512.565     40.849    507.768    512.267    507.768    508.066    507.768
 37.270    486.000    513.406    -27.406    507.526    513.107    507.526    507.825    507.526
 37.370    506.000    515.165     -9.165    507.285    514.866    507.285    507.584    507.285
 37.470    527.000    518.045      8.955    507.045    517.745    507.045    507.346    507.045
 37.570    527.000    521.764      5.236    506.807    521.464    506.807    507.109    506.807
 37.670    501.000    525.265    -24.265    506.570    524.965    506.570    506.873    506.570
 37.770    513.000    526.844    -13.844    506.334    526.545    506.334    506.639    506.334
 37.870    512.000    525.509    -13.509    506.101    525.210    506.101    506.407    506.101
 37.970    481.373    522.179    -40.806    505.868    521.881    505.868    506.176    505.868
 38.070    438.000    518.377    -80.377    505.637    518.078    505.637    505.947    505.637
 38.170    496.936    514.989    -18.053    505.408    514.688    505.408    505.719    505.408
 38.270    513.987    512.343      1.643    505.180    512.038    505.180    505.493    505.180
 38.370    478.000    510.459    -32.459    504.954    510.150    504.954    505.269    504.954
 38.470    508.000    509.191     -1.191    504.729    508.878    504.729    505.046    504.729
 38.570    541.000    508.350     32.650    504.506    508.033    504.506    504.825    504.506
 38.670    550.393    507.777     42.617    504.284    507.457    504.284    504.605    504.284
 38.770    525.000    507.356     17.644    504.064    507.034    504.064    504.388    504.064
 38.870    468.807    507.019    -38.212    503.846    506.694    503.846    504.171    503.846
 38.970    483.000    506.727    -23.727    503.629    506.399    503.629    503.957    503.629
 39.070    524.000    506.461     17.539    503.413    506.130    503.413    503.744    503.413
 39.170    493.000    506.212    -13.212    503.199    505.879    503.199    503.533    503.199
 39.270    546.578    505.978     40.600    502.987    505.642    502.987    503.323    502.987
 39.370    465.000    505.755    -40.755    502.776    505.416    502.776    503.115    502.776
 39.470    511.000    505.541      5.459    502.567    505.200    502.567    502.909    502.567
 39.570    484.000    505.337    -21.337    502.360    504.992    502.360    502.705    502.360
 39.670    540.590    505.141     35.449    502.154    504.793    502.154    502.502    502.154
 39.770    513.000    504.953      8.047    501.950    504.602    501.950    502.301    501.950
 39.870    502.000    504.773     -2.773    501.747    504.418    501.747    502.102    501.747
 39.970    474.000    504.600    -30.600    501.546    504.242    501.546    501.904    501.546
 40.070    471.000    504.435    -33.435    501.346    504.073    501.346    501.708    501.346
 40.170    460.000    504.278    -44.278    501.148    503.913    501.148    501.514    501.148
 40.270    500.000    504.130     -4.130    500.952    503.761    500.952    501.322    500.952
 40.370    471.000    503.991    -32.991    500.758    503.618    500.758    501.131    500.758
 40.470    490.000    503.862    -13.862    500.565    503.485    500.565    500.942    500.565
 40.570    533.000    503.744     29.256    500.373    503.363    500.373    500.755    500.373
 40.670    516.000    503.639     12.361    500.184    503.253    500.184    500.570    500.184
 40.770    479.000    503.548    -24.548    499.996    503.157    499.996    500.386    499.996
 40.870    514.000    503.473     10.527    499.809    503.078    499.809    500.205    499.809
 40.970    485.000    503.417    -18.417    499.625    503.018    499.625    500.025    499.625
 41.070    495.000    503.385     -8.385    499.442    502.981    499.442    499.847    499.442
 41.170    542.862    503.381     39.482    499.260    502.971    499.260    499.670    499.260
 41.270    542.530    503.410     39.120    499.080    502.996    499.080    499.496    499.080
 41.370    521.000    503.483     17.517    498.902    503.063    498.902    499.323    498.902
 41.470    500.225    503.612     -3.386    498.726    503.186    498.726    499.152    498.726
 41.570    490.000    503.812    -13.812    498.551    503.381    498.551    498.983    498.551
 41.670    536.000    504.114     31.886    498.378    503.677    498.378    498.816    498.378
 41.770    466.071    504.572    -38.501    498.207    504.129    498.207    498.651    498.207
 41.870    494.011    505.314    -11.303    498.037    504.865    498.037    498.488    498.037
 41.970    489.324    506.657    -17.333    497.869    506.202    497.869    498.326    497.869
 42.070    495.000    509.313    -14.313    497.702    508.852    497.702    498.167    497.702
 42.170    511.000    514.646     -3.646    497.538    514.180    497.538    498.009    497.538
 42.270    521.000    524.681     -3.681    497.375    524.211    497.375    497.854    497.375
 42.370    528.402    541.435    -13.034    497.213    540.966    497.213    497.700    497.213
 42.470    589.000    565.331     23.669    497.054    564.865    497.054    497.548    497.054
 42.570    559.000    593.192    -34.192    496.896    592.732    496.896    497.399    496.896
 42.670    597.000    617.019    -20.019    496.740    616.566    496.740    497.251    496.740
 42.770    638.697    625.951     12.747    496.585    625.497    496.585    497.105    496.585
 42.870    609.782    614.612     -4.830    496.432    614.146    496.432    496.961    496.432
 42.970    559.000    589.454    -30.454    496.281    588.966    496.281    496.820    496.281
 43.070    522.000    561.441    -39.441    496.131    560.928    496.131    496.680    496.131
 43.170    496.343    538.057    -41.714    495.984    537.520    495.984    496.543    495.984
 43.270    563.000    521.952     41.048    495.838    521.395    495.838    496.407    495.838
 43.370    487.500    512.397    -24.897    495.693    511.824    495.693    496.274    495.693
 43.470    484.000    507.289    -23.289    495.550    506.701    495.550    496.143    495.550
 43.570    483.881    504.650    -20.769    495.409    504.049    495.409    496.014    495.409
 43.670    499.000    503.203     -4.203    495.270    502.588    495.270    495.887    495.270
 43.770    490.000    502.297    -12.297    495.133    501.668    495.133    495.763    495.133
 43.870    525.000    501.652     23.348    494.997    501.009    494.997    495.641    494.997
 43.970    495.000    501.155     -6.155    494.862    500.497    494.862    495.521    494.862
 44.070    480.000    500.756    -20.756    494.730    500.083    494.730    495.404    494.730
 44.170    575.000    500.429     74.571    494.599    499.740    494.599    495.289    494.599
 44.270    502.000    500.158      1.842    494.470    499.452    494.470    495.176    494.470
 44.370    505.000    499.931      5.069    494.342    499.208    494.342    495.066    494.342
 44.470    502.000    499.741      2.259    494.217    499.000    494.217    494.959    494.217
 44.570    463.000    499.582    -36.582    494.093    498.821    494.093    494.854    494.093
 44.670    501.159    499.449      1.710    493.970    498.668    493.970    494.752    493.970
 44.770    491.000    499.340     -8.340    493.849    498.537    493.849    494.653    493.849
 44.870    499.900    499.250      0.649    493.730    498.425    493.730    494.556    493.730
 44.970    503.182    499.180      4.002    493.613    498.331    493.613    494.463    493.613
 45.070    506.000    499.128      6.872    493.497    498.253    493.497    494.373    493.497
 45.170    485.860    499.093    -13.232    493.384    498.191    493.384    494.285    493.384
 45.270    519.000    499.074     19.926    493.271    498.143    493.271    494.202    493.271
 45.370    474.703    499.072    -24.369    493.161    498.111    493.161    494.121    493.161
 45.470    506.000    499.086      6.914    493.052    498.093    493.052    494.045    493.052
 45.570    482.811    499.118    -16.307    492.945    498.091    492.945    493.972    492.945
 45.670    553.000    499.168     53.832    492.839    498.104    492.839    493.903    492.839
 45.770    476.317    499.237    -22.920    492.735    498.134    492.735    493.838    492.735
 45.870    492.678    499.327     -6.649    492.633    498.181    492.633    493.778    492.633
 45.970    503.000    499.439      3.561    492.532    498.248    492.532    493.723    492.532
 46.070    467.355    499.576    -32.222    492.434    498.336    492.434    493.673    492.434
 46.170    471.000    499.741    -28.741    492.336    498.448    492.336    493.629    492.336
 46.270    490.000    499.938     -9.938    492.241    498.588    492.241    493.590    492.241
 46.370    525.000    500.171     24.829    492.147    498.759    492.147    493.558    492.147
 46.470    490.000    500.447    -10.447    492.055    498.968    492.055    493.533    492.055
 46.570    508.000    500.774      7.226    491.964    499.221    491.964    493.516    491.964
 46.670    511.963    501.162     10.800    491.875    499.530    491.875    493.507    491.875
 46.770    482.901    501.631    -18.730    491.788    499.910    491.788    493.507    491.788
 46.870    490.000    502.212    -12.212    491.702    500.394    491.702    493.518    491.702
 46.970    473.869    502.975    -29.106    491.618    501.050    491.618    493.541    491.618
 47.070    500.460    504.074     -3.614    491.536    502.030    491.536    493.577    491.536
 47.170    492.782    505.835    -13.053    491.455    503.658    491.455    493.629    491.455
 47.270    493.000    508.857    -15.857    491.376    506.530    491.376    493.697    491.376
 47.370    579.000    514.051     64.949    491.299    511.555    491.299    493.785    491.299
 47.470    546.000    522.461     23.539    491.223    519.771    491.223    493.896    491.223
 47.570    541.000    534.766      6.234    491.149    531.855    491.149    494.034    491.149
 47.670    557.000    550.485      6.515    491.076    547.321    491.076    494.203    491.076
 47.770    578.000    567.262     10.738    491.005    563.808    491.005    494.410    491.005
 47.870    557.000    580.680    -23.680    490.936    576.897    490.936    494.662    490.936
 47.970    606.760    585.671     21.089    490.868    581.512    490.868    494.969    490.868
 48.070    595.000    580.206     14.794    490.802    575.613    490.802    495.343    490.802
 48.170    544.000    567.456    -23.456    490.737    562.348    490.737    495.804    490.737
 48.270    535.000    552.748    -17.748    490.674    547.016    490.674    496.377    490.674
 48.370    559.000    540.137     18.863    490.613    533.623    490.613    497.107    490.613
 48.470    552.000    531.568     20.432    490.553    524.039    490.553    498.069    490.553
 48.570    469.000    527.318    -58.318    490.495    518.411    490.495    499.393    490.495
 48.670    562.000    526.818     35.182    490.438    515.952    490.438    501.299    490.438
 48.770    504.000    529.430    -25.430    490.383    515.673    490.383    504.136    490.383
 48.870    492.000    534.904    -42.904    490.329    516.823    490.329    508.406    490.329
 48.970    531.000    543.481    -12.481    490.277    519.009    490.277    514.746    490.277
 49.070    593.000    555.756     37.244    490.227    522.156    490.227    523.822    490.227
 49.170    602.000    572.476     29.524    490.178    526.524    490.178    536.125    490.178
 49.270    565.000    594.524    -29.524    490.131    532.983    490.131    551.666    490.131
 49.370    594.887    623.449    -28.562    490.085    543.938    490.085    569.587    490.085
 49.470    656.432    663.075     -6.643    490.040    565.428    490.040    587.674    490.040
 49.570    740.000    722.605     17.395    489.998    610.553    489.998    602.026    489.998
 49.670    818.438    820.737     -2.299    489.956    702.665    489.956    607.985    489.956
 49.770    999.000    987.058     11.942    489.917    873.761    489.917    603.136    489.917
 49.870   1293.016   1251.728     41.289    489.879   1152.004    489.879    589.480    489.879
 49.970   1599.731   1619.421    -19.689    489.842   1537.526    489.842    571.571    489.842
 50.070   2046.000   2041.025      4.975    489.807   1977.195    489.807    553.453    489.807
 50.170   2381.000   2405.402    -24.402    489.773   2357.500    489.773    537.525    489.773
 50.270   2526.709   2572.416    -45.707    489.741   2537.322    489.741    524.780    489.741
 50.370   2447.999   2460.990    -12.990    489.710   2435.480    489.710    515.289    489.710
 50.470   2108.000   2120.668    -12.668    489.681   2101.911    489.681    508.603    489.681
 50.570   1730.931   1684.842     46.088    489.653   1670.629    489.653    504.064    489.653
 50.670   1339.409   1279.269     60.139    489.626   1268.048    489.626    501.028    489.626
 50.770    893.000    974.440    -81.440    489.602    965.205    489.602    498.975    489.602
 50.870    726.000    782.886    -56.886    489.578    775.020    489.578    497.538    489.578
 50.970    641.237    680.785    -39.548    489.556    673.919    489.556    496.485    489.556
 51.070    606.000    633.544    -27.544    489.536    627.449    489.536    495.677    489.536
 51.170    625.000    612.036     12.964    489.516    606.558    489.516    495.033    489.516
 51.270    599.300    598.205      1.095    489.499    593.230    489.499    494.506    489.499
 51.370    622.625    584.456     38.169    489.482    579.897    489.482    494.069    489.482
 51.470    635.000    569.924     65.076    489.467    565.712    489.467    493.702    489.467
 51.570    542.000    556.186    -14.186    489.454    552.265    489.454    493.391    489.454
 51.670    503.000    544.738    -41.738    489.442    541.064    489.442    493.127    489.442
 51.770    515.754    536.241    -20.487    489.431    532.778    489.431    492.902    489.431
 51.870    545.000    530.589     14.411    489.422    527.306    489.422    492.710    489.422
 51.970    562.000    527.243     34.757    489.414    524.115    489.414    492.545    489.414
 52.070    545.000    525.578     19.422    489.407    522.582    489.407    492.405    489.407
 52.170    498.422    525.108    -26.686    489.402    522.226    489.402    492.286    489.402
 52.270    514.000    525.573    -11.573    489.398    522.788    489.398    492.185    489.398
 52.370    556.355    526.949     29.406    489.395    524.246    489.395    492.100    489.395
 52.470    508.784    529.498    -20.714    489.394    526.864    489.394    492.029    489.394
 52.570    516.684    533.956    -17.273    489.394    531.379    489.394    491.972    489.394
 52.670    527.000    541.921    -14.921    489.396    539.391    489.396    491.926    489.396
 52.770    549.000    556.410     -7.410    489.399    553.916    489.399    491.891    489.399
 52.870    629.000    582.325     46.675    489.403    579.859    489.403    491.866    489.403
 52.970    665.000    626.254     38.746    489.408    623.807    489.408    491.850    489.408
 53.070    666.000    694.876    -28.876    489.415    692.440    489.415    491.842    489.415
 53.170    828.000    791.674     36.326    489.422    789.242    489.422    491.843    489.422
 53.270    947.000    912.642     34.358    489.432    910.209    489.432    491.852    489.432
 53.370   1049.000   1042.500      6.500    489.442   1040.063    489.442    491.869    489.442
 53.470   1103.000   1153.453    -50.453    489.454   1151.009    489.454    491.893    489.454
 53.570   1216.274   1211.174      5.099    489.467   1208.724    489.467    491.923    489.467
 53.670   1247.080   1193.512     53.568    489.481   1191.049    489.481    491.961    489.481
 53.770   1114.936   1108.104      6.832    489.496   1105.621    489.496    492.007    489.496
 53.870    936.682    985.353    -48.671    489.513    982.836    489.513    492.059    489.513
 53.970    844.250    857.703    -13.454    489.531    855.143    489.531    492.118    489.531
 54.070    737.000    747.305    -10.305    489.550    744.691    489.550    492.184    489.550
 54.170    683.000    663.962     19.038    489.570    661.288    489.570    492.258    489.570
 54.270    568.344    607.774    -39.430    489.592    605.036    489.592    492.340    489.592
 54.370    581.307    573.365      7.942    489.614    570.556    489.614    492.429    489.614
 54.470    533.000    553.846    -20.846    489.638    550.961    489.638    492.526    489.638
 54.570    513.453    543.328    -29.875    489.663    540.360    489.663    492.632    489.663
 54.670    528.000    537.802     -9.802    489.689    534.745    489.689    492.748    489.689
 54.770    519.000    534.955    -15.955    489.716    531.800    489.716    492.872    489.716
 54.870    504.606    533.615    -29.010    489.745    530.354    489.745    493.007    489.745
 54.970    557.000    533.248     23.752    489.774    529.870    489.774    493.153    489.774
 55.070    545.000    533.630     11.370    489.805    530.125    489.805    493.310    489.805
 55.170    541.000    534.682      6.318    489.837    531.038    489.837    493.480    489.837
 55.270    541.985    536.397      5.588    489.870    532.603    489.870    493.663    489.870
 55.370    516.846    538.821    -21.975    489.903    534.863    489.903    493.861    489.903
 55.470    522.852    542.050    -19.198    489.939    537.912    489.939    494.076    489.939
 55.570    574.000    546.263     27.737    489.975    541.928    489.975    494.308    489.975
 55.670    552.674    551.810      0.864    490.012    547.261    490.012    494.560    490.012
 55.770    529.000    559.439    -30.439    490.050    554.653    490.050    494.833    490.050
 55.870    554.713    570.796    -16.083    490.089    565.750    490.089    495.131    490.089
 55.970    578.000    589.399    -11.399    490.130    584.064    490.130    495.455    490.130
 56.070    590.000    622.136    -32.136    490.171    616.479    490.171    495.810    490.171
 56.170    667.724    680.939    -13.216    490.213    674.922    490.213    496.199    490.213
 56.270    758.000    783.415    -25.415    490.256    776.993    490.256    496.626    490.256
 56.370    896.000    950.479    -54.479    490.301    943.606    490.301    497.097    490.301
 56.470   1225.000   1199.250     25.750    490.346   1191.880    490.346    497.618    490.346
 56.570   1603.146   1531.639     71.507    490.392   1523.729    490.392    498.196    490.392
 56.670   1953.000   1922.308     30.692    490.440   1913.819    490.440    498.842    490.440
 56.770   2268.000   2311.482    -43.482    490.488   2302.372    490.488    499.564    490.488
 56.870   2593.000   2608.652    -15.652    490.537   2598.865    490.537    500.377    490.537
 56.970   2666.000   2719.359    -53.359    490.587   2708.800    490.587    501.297    490.587
 57.070   2542.867   2601.570    -58.703    490.638   2590.083    490.638    502.344    490.638
 57.170   2308.000   2300.803      7.197    490.690   2288.190    490.690    503.543    490.690
 57.270   1836.010   1912.722    -76.712    490.743   1898.757    490.743    504.929    490.743
 57.370   1453.984   1527.031    -73.047    490.797   1511.457    490.797    506.550    490.797
 57.470   1229.617   1202.029     27.587    490.851   1184.534    490.851    508.476    490.851
 57.570    995.000    961.755     33.245    490.907    941.926    490.907    510.820    490.907
 57.670    831.000    803.631     27.369    490.963    780.875    490.963    513.771    490.963
 57.770    753.808    710.754     43.055    491.021    684.165    491.021    517.636    491.021
 57.870    678.169    663.411     14.759    491.079    631.582    491.079    522.920    491.079
 57.970    693.000    646.316     46.684    491.138    607.060    491.138    530.397    491.138
 58.070    602.782    651.070    -48.287    491.197    601.087    491.197    541.175    491.197
 58.170    695.978    675.450     20.528    491.258    609.997    491.258    556.699    491.258
 58.270    720.000    721.271     -1.271    491.319    633.937    491.319    578.630    491.319
 58.370    786.000    791.715     -5.715    491.381    674.491    491.381    608.571    491.381
 58.470    868.000    888.679    -20.679    491.444    732.466    491.444    647.613    491.444
 58.570    995.000   1010.416    -15.416    491.508    806.117    491.508    695.755    491.508
 58.670   1081.000   1149.768    -68.768    491.573    890.057    491.573    751.228    491.573
 58.770   1357.000   1293.706     63.294    491.638    975.561    491.638    809.732    491.638
 58.870   1424.000   1425.212     -1.212    491.704   1053.171    491.704    863.706    491.704
 58.970   1562.066   1526.223     35.843    491.770   1115.393    491.770    902.579    491.770
 59.070   1602.942   1579.941     23.001    491.838   1155.832    491.838    915.946    491.838
 59.170   1603.000   1575.736     27.264    491.906   1168.091    491.906    899.570    491.906
 59.270   1505.000   1516.671    -11.671    491.975   1150.099    491.975    858.576    491.975
 59.370   1430.000   1421.020      8.980    492.044   1109.394    492.044    803.698    492.044
 59.470   1331.000   1313.898     17.102    492.115   1060.706    492.115    745.317    492.115
 59.570   1177.000   1218.014    -41.014    492.185   1019.554    492.185    690.624    492.185
 59.670   1131.000   1150.847    -19.847    492.257    999.448    492.257    643.591    492.257
 59.770   1104.988   1125.857    -20.870    492.329   1012.325    492.329    605.747    492.329
 59.870   1166.000   1151.735     14.265    492.402   1067.033    492.402    576.933    492.402
 59.970   1249.000   1227.831     21.169    492.475   1164.109    492.475    555.973    492.475
 60.070   1382.311   1339.779     42.531    492.549   1290.826    492.549    541.234    492.549
 60.170   1497.000   1458.768     38.232    492.624   1420.036    492.624    531.066    492.624
 60.270   1616.392   1545.779     70.614    492.699   1514.137    492.699    524.059    492.699
 60.370   1487.532   1563.637    -76.105    492.775   1537.023    492.775    519.145    492.775
 60.470   1502.305   1496.445      5.860    492.852   1473.521    492.852    515.585    492.852
 60.570   1317.000   1359.766    -42.766    492.928   1339.652    492.928    512.908    492.928
 60.670   1131.181   1188.098    -56.917    493.006   1170.192    493.006    510.825    493.006
 60.770   1031.000   1015.902     15.098    493.084    999.763    493.084    509.170    493.084
 60.870    837.224    867.466    -30.241    493.163    852.749    493.163    507.848    493.163
 60.970    714.681    754.509    -39.827    493.242    740.922    493.242    506.809    493.242
 61.070    676.212    678.170     -1.958    493.321    665.450    493.321    506.027    493.321
 61.170    590.775    633.423    -42.648    493.401    621.321    493.401    505.489    493.401
 61.270    609.628    613.891     -4.263    493.482    602.165    493.482    505.191    493.482
 61.370    604.000    615.410    -11.410    493.563    603.827    493.563    505.122    493.563
 61.470    670.137    637.646     32.491    493.644    625.992    493.644    505.262    493.644
 61.570    669.761    683.775    -14.013    493.726    671.875    493.726    505.572    493.726
 61.670    761.000    758.454      2.546    493.809    746.199    493.809    505.983    493.809
 61.770    816.228    864.469    -48.241    493.891    851.859    493.891    506.388    493.891
 61.870   1011.000    998.830     12.170    493.975    986.012    493.975    506.643    493.975
 61.970   1164.393   1149.601     14.792    494.058   1136.871    494.058    506.606    494.058
 62.070   1302.474   1294.735      7.739    494.142   1282.475    494.142    506.199    494.142
 62.170   1329.000   1404.259    -75.259    494.226   1392.822    494.226    505.462    494.226
 62.270   1448.000   1448.526     -0.526    494.311   1438.147    494.311    504.514    494.311
 62.370   1372.000   1413.260    -41.260    494.396   1404.032    494.396    503.493    494.396
 62.470   1281.000   1309.354    -28.354    494.482   1301.250    494.482    502.507    494.482
 62.570   1127.828   1165.114    -37.286    494.567   1158.024    494.567    501.622    494.567
 62.670    988.000   1011.098    -23.098    494.654   1004.875    494.654    500.870    494.654
 62.770    883.000    870.709     12.291    494.740    865.197    494.740    500.261    494.740
 62.870    708.000    757.194    -49.194    494.827    752.249    494.827    499.786    494.827
 62.970    669.000    674.297     -5.297    494.914    669.797    494.914    499.427    494.914
 63.070    594.000    618.998    -24.998    495.001    614.846    495.001    499.161    495.001
 63.170    578.000    584.981     -6.981    495.088    581.106    495.088    498.966    495.088
 63.270    531.166    565.544    -34.379    495.176    561.895    495.176    498.825    495.176
 63.370    593.799    555.308     38.491    495.264    551.846    495.264    498.722    495.264
 63.470    508.956    550.784    -41.827    495.352    547.483    495.352    498.648    495.352
 63.570    552.897    550.283      2.613    495.441    547.123    495.441    498.594    495.441
 63.670    522.000    553.610    -31.610    495.530    550.573    495.530    498.556    495.530
 63.770    556.000    561.787     -5.787    495.619    558.860    495.619    498.531    495.619
 63.870    606.250    576.816     29.434    495.708    573.985    495.708    498.517    495.708
 63.970    599.000    601.331     -2.331    495.797    598.583    495.797    498.512    495.797
 64.070    703.000    637.971     65.029    495.886    635.294    495.886    498.515    495.886
 64.170    665.000    688.406    -23.406    495.976    685.790    495.976    498.525    495.976
 64.270    809.000    752.153     56.847    496.065    749.587    496.065    498.541    496.065
 64.370    848.000    825.464     22.536    496.155    822.941    496.155    498.564    496.155
 64.470    929.000    900.648     28.352    496.245    898.168    496.245    498.592    496.245
 64.570    994.000    966.405     27.595    496.335    963.970    496.335    498.624    496.335
 64.670    991.000   1010.275    -19.275    496.425   1007.895    496.425    498.662    496.425
 64.770   1044.000   1023.547     20.453    496.516   1021.231    496.516    498.703    496.516
 64.870    952.726   1005.160    -52.434    496.606   1002.914    496.606    498.749    496.606
 64.970   1018.026    961.174     56.851    496.696    959.001    496.696    498.797    496.696
 65.070    903.000    901.670      1.330    496.787    899.565    496.787    498.850    496.787
 65.170    828.000    837.387     -9.387    496.877    835.343    496.877    498.905    496.877
 65.270    817.770    776.791     40.979    496.968    774.800    496.968    498.964    496.968
 65.370    689.103    724.540    -35.437    497.058    722.591    497.058    499.025    497.058
 65.470    726.660    681.749     44.911    497.149    679.833    497.149    499.089    497.149
 65.570    640.464    647.500     -7.036    497.239    645.609    497.239    499.156    497.239
 65.670    665.000    620.384     44.616    497.329    618.513    497.329    499.224    497.329
 65.770    585.000    599.164    -14.164    497.420    597.308    497.420    499.294    497.420
 65.870    586.000    582.822      3.178    497.510    580.978    497.510    499.368    497.510
 65.970    532.198    570.527    -38.330    497.601    568.693    497.601    499.443    497.601
 66.070    523.766    561.622    -37.855    497.691    559.795    497.691    499.521    497.691
 66.170    582.000    555.569     26.431    497.781    553.750    497.781    499.601    497.781
 66.270    565.000    551.913     13.087    497.871    550.100    497.871    499.684    497.871
 66.370    547.795    550.255     -2.460    497.961    548.447    497.961    499.768    497.961
 66.470    560.000    550.275      9.725    498.051    548.471    498.051    499.854    498.051
 66.570    521.000    551.783    -30.783    498.141    549.981    498.141    499.941    498.141
 66.670    497.000    554.800    -57.800    498.230    552.999    498.230    500.031    498.230
 66.770    596.003    559.689     36.314    498.320    557.885    498.320    500.123    498.320
 66.870    600.000    567.378     32.622    498.409    565.569    498.409    500.217    498.409
 66.970    558.000    579.729    -21.729    498.498    577.913    498.498    500.312    498.498
 67.070    598.000    600.047     -2.047    498.587    598.221    498.587    500.410    498.587
 67.170    663.003    633.627     29.376    498.676    631.786    498.676    500.510    498.676
 67.270    659.204    688.087    -28.883    498.764    686.227    498.764    500.612    498.764
 67.370    730.000    773.063    -43.063    498.853    771.181    498.853    500.716    498.853
 67.470    893.000    898.797     -5.797    498.941    896.889    498.941    500.822    498.941
 67.570   1010.000   1073.371    -63.371    499.029   1071.437    499.029    500.930    499.029
 67.670   1331.961   1298.866     33.095    499.116   1296.909    499.116    501.041    499.116
 67.770   1551.000   1567.327    -16.327    499.204   1565.355    499.204    501.154    499.204
 67.870   1793.979   1857.814    -63.836    499.291   1855.839    499.291    501.271    499.291
 67.970   2122.820   2135.700    -12.879    499.378   2133.736    499.378    501.389    499.378
 68.070   2389.000   2355.798     33.202    499.464   2353.861    499.464    501.511    499.464
 68.170   2509.857   2472.427     37.430    499.551   2470.521    499.551    501.636    499.551
 68.270   2426.000   2457.259    -31.259    499.636   2455.377    499.636    501.765    499.636
 68.370   2418.000   2314.364    103.636    499.722   2312.478    499.722    501.897    499.722
 68.470   2092.000   2077.683     14.317    499.807   2075.758    499.807    502.033    499.807
 68.570   1872.067   1793.939     78.128    499.892   1791.941    499.892    502.173    499.892
 68.670   1556.000   1506.408     49.592    499.977   1504.313    499.977    502.318    499.977
 68.770   1248.000   1246.726      1.274    500.061   1244.519    500.061    502.467    500.061
 68.870   1047.000   1032.765     14.235    500.145   1030.438    500.145    502.622    500.145
 68.970    883.554    869.925     13.629    500.228    867.477    500.228    502.783    500.228
 69.070    740.000    754.439    -14.439    500.311    751.873    500.311    502.951    500.311
 69.170    691.072    677.461     13.611    500.394    674.777    500.394    503.126    500.394
 69.270    636.000    628.714      7.286    500.476    625.912    500.476    503.308    500.476
 69.370    590.000    598.946     -8.946    500.558    596.023    500.558    503.499    500.558
 69.470    609.000    581.051     27.949    500.639    578.001    500.639    503.700    500.639
 69.570    587.000    570.194     16.806    500.720    567.010    500.720    503.912    500.720
 69.670    533.883    563.393    -29.510    500.800    560.063    500.800    504.135    500.800
 69.770    591.000    558.952     32.048    500.880    555.463    500.880    504.373    500.880
 69.870    553.141    555.968     -2.827    500.959    552.306    500.959    504.625    500.959
 69.970    570.750    553.984     16.766    501.038    550.130    501.038    504.894    501.038
 70.070    578.000    552.773     25.227    501.117    548.708    501.117    505.182    501.117
 70.170    610.000    552.234     57.766    501.194    547.936    501.194    505.492    501.194
 70.270    501.000    552.336    -51.336    501.272    547.779    501.272    505.828    501.272
 70.370    524.030    553.110    -29.079    501.349    548.265    501.349    506.191    501.349
 70.470    574.304    554.666     19.638    501.425    549.500    501.425    506.588    501.425
 70.570    561.841    557.253      4.588    501.500    551.726    501.500    507.023    501.500
 70.670    557.000    561.354     -4.354    501.575    555.422    501.575    507.502    501.575
 70.770    580.000    567.873     12.127    501.650    561.481    501.650    508.033    501.650
 70.870    588.000    578.350      9.650    501.724    571.433    501.724    508.627    501.724
 70.970    578.568    595.259    -16.690    501.797    587.739    501.797    509.297    501.797
 71.070    645.000    622.250     22.750    501.870    614.025    501.870    510.065    501.870
 71.170    662.511    664.209     -1.698    501.942    655.146    501.942    510.960    501.942
 71.270    696.816    726.924    -30.108    502.013    716.838    502.013    512.033    502.013
 71.370    845.000    816.190     28.810    502.084    804.816    502.084    513.364    502.084
 71.470    988.521    936.284     52.236    502.154    923.230    502.154    515.082    502.154
 71.570   1050.000   1088.024    -38.024    502.224   1072.696    502.224    517.389    502.224
 71.670   1254.000   1266.814    -12.814    502.292   1248.320    502.292    520.589    502.292
 71.770   1436.000   1461.264    -25.264    502.360   1438.285    502.360    525.113    502.360
 71.870   1627.000   1652.840    -25.840    502.428   1623.493    502.428    531.531    502.428
 71.970   1830.000   1817.147     12.853    502.494   1778.853    502.494    540.545    502.494
 72.070   1923.000   1928.047     -5.047    502.560   1877.460    502.560    552.925    502.560
 72.170   1968.356   1965.708      2.649    502.626   1898.748    502.626    569.399    502.626
 72.270   1920.241   1925.682     -5.441    502.690   1837.740    502.690    590.489    502.690
 72.370   1752.000   1821.472    -69.472    502.754   1707.819    502.754    616.306    502.754
 72.470   1730.000   1677.580     52.420    502.817   1533.993    502.817    646.338    502.817
 72.570   1575.000   1519.593     55.407    502.879   1343.178    502.879    679.256    502.879
 72.670   1353.547   1367.700    -14.153    502.940   1157.864    502.940    712.755    502.940
 72.770   1187.000   1234.111    -47.111    503.001    993.604    503.001    743.497    503.001
 72.870   1072.000   1122.951    -50.951    503.061    858.669    503.061    767.337    503.061
 72.970    981.000   1032.059    -51.059    503.120    755.004    503.120    780.172    503.120
 73.070    892.000    956.227    -64.227    503.178    679.984    503.178    779.419    503.178
 73.170    859.935    890.486    -30.551    503.235    628.462    503.235    765.258    503.235
 73.270    787.000    831.807    -44.807    503.292    594.571    503.292    740.527    503.292
 73.370    714.000    779.002    -65.002    503.348    572.956    503.348    709.394    503.348
 73.470    743.312    731.923     11.389    503.403    559.392    503.403    675.933    503.403
 73.570    610.000    690.813    -80.813    503.457    550.904    503.457    643.367    503.457
 73.670    588.000    655.961    -67.961    503.510    545.593    503.510    613.881    503.510
 73.770    646.520    627.492     19.028    503.562    542.354    503.562    588.704    503.562
 73.870    579.000    605.250    -26.250    503.613    540.602    503.613    568.267    503.613
 73.970    557.196    588.775    -31.578    503.664    540.046    503.664    552.401    503.664
 74.070    569.000    577.348     -8.348    503.713    540.522    503.713    540.552    503.713
 74.170    546.000    570.084    -24.084    503.762    541.884    503.762    531.979    503.762
 74.270    596.582    566.017     30.565    503.809    543.933    503.809    525.917    503.809
 74.370    541.900    564.166    -22.267    503.856    546.374    503.856    521.678    503.856
 74.470    518.142    563.579    -45.437    503.902    548.810    503.902    518.706    503.902
 74.570    589.000    563.364     25.636    503.947    550.765    503.947    516.586    503.947
 74.670    598.000    562.752     35.248    503.991    551.758    503.991    515.028    503.991
 74.770    517.292    561.210    -43.918    504.033    551.449    504.033    513.839    504.033
 74.870    630.000    558.560     71.440    504.075    549.781    504.075    512.897    504.075
 74.970    587.142    554.987     32.155    504.116    547.017    504.116    512.126    504.116
 75.070    575.000    550.924     24.076    504.156    543.637    504.156    511.477    504.156
 75.170    564.194    546.892     17.303    504.195    540.191    504.195    510.923    504.195
 75.270    500.075    543.408    -43.334    504.233    537.219    504.233    510.442    504.233
 75.370    540.000    540.971     -0.971    504.270    535.232    504.270    510.023    504.270
 75.470    552.000    540.066     11.934    504.306    534.725    504.306    509.654    504.306
 75.570    543.000    541.193      1.807    504.340    536.207    504.340    509.328    504.340
 75.670    571.984    544.881     27.104    504.374    540.212    504.374    509.039    504.374
 75.770    519.000    551.663    -32.663    504.407    547.277    504.407    508.782    504.407
 75.870    529.121    562.005    -32.884    504.438    557.874    504.438    508.552    504.438
 75.970    536.203    576.174    -39.971    504.469    572.271    504.469    508.346    504.469
 76.070    590.013    594.072     -4.058    504.498    590.375    504.498    508.161    504.498
 76.170    645.717    615.067     30.649    504.527    611.556    504.527    507.994    504.527
 76.270    597.161    637.878    -40.717    504.554    634.535    504.554    507.843    504.554
 76.370    703.000    660.530     42.470    504.580    657.343    504.580    507.706    504.580
 76.470    667.000    680.453    -13.453    504.605    677.409    504.605    507.582    504.605
 76.570    694.160    694.775     -0.615    504.629    691.865    504.629    507.468    504.629
 76.670    704.000    700.984      3.016    504.652    698.203    504.652    507.365    504.652
 76.770    694.000    697.828     -3.828    504.674    695.168    504.674    507.270    504.674
 76.870    735.136    685.875     49.261    504.694    683.331    504.694    507.183    504.694
 76.970    663.000    667.235     -4.235    504.713    664.802    504.713    507.102    504.713
 77.070    619.801    644.711    -24.910    504.732    642.380    504.732    507.028    504.732
 77.170    584.000    621.018    -37.018    504.749    618.781    504.749    506.959    504.749
 77.270    575.000    598.353    -23.353    504.765    596.204    504.765    506.895    504.765
 77.370    578.941    578.232      0.709    504.779    576.162    504.779    506.835    504.779
 77.470    573.000    561.471     11.529    504.793    559.475    504.793    506.779    504.793
 77.570    536.000    548.280    -12.280    504.805    546.353    504.805    506.726    504.805
 77.670    506.000    538.418    -32.418    504.816    536.553    504.816    506.677    504.816
 77.770    540.888    531.370      9.518    504.826    529.563    504.826    506.630    504.826
 77.870    540.000    526.520     13.480    504.835    524.766    504.835    506.586    504.835
 77.970    509.569    523.245    -13.677    504.842    521.542    504.842    506.544    504.842
 78.070    530.000    521.108      8.892    504.848    519.451    504.848    506.503    504.848
 78.170    531.000    519.711     11.289    504.853    518.097    504.853    506.465    504.853
 78.270    510.780    518.781     -8.001    504.857    517.209    504.857    506.428    504.857
 78.370    511.000    518.147     -7.147    504.859    516.613    504.859    506.392    504.859
 78.470    533.000    517.703     15.297    504.860    516.205    504.860    506.357    504.860
 78.570    553.267    517.392     35.875    504.860    515.928    504.860    506.324    504.860
 78.670    515.000    517.190     -2.190    504.859    515.756    504.859    506.292    504.859
 78.770    509.000    517.085     -8.085    504.856    515.680    504.856    506.260    504.856
 78.870    556.938    517.082     39.856    504.853    515.704    504.853    506.230    504.853
 78.970    520.000    517.198      2.802    504.847    515.844    504.847    506.200    504.847
 79.070    517.000    517.453     -0.453    504.841    516.120    504.841    506.172    504.841
 79.170    536.404    517.877     18.527    504.833    516.563    504.833    506.146    504.833
 79.270    537.983    518.503     19.480    504.824    517.203    504.824    506.122    504.824
 79.370    490.000    519.363    -29.363    504.814    518.073    504.814    506.101    504.814
 79.470    572.000    520.492     51.508    504.802    519.207    504.802    506.084    504.802
 79.570    528.934    521.926      7.008    504.789    520.639    504.789    506.072    504.789
 79.670    531.234    523.707      7.527    504.774    522.412    504.774    506.066    504.774
 79.770    497.265    525.898    -28.634    504.759    524.585    504.759    506.067    504.759
 79.870    523.000    528.594     -5.594    504.742    527.253    504.742    506.077    504.742
 79.970    506.000    531.939    -25.939    504.723    530.560    504.723    506.096    504.723
 80.070    550.560    536.147     14.413    504.703    534.721    504.703    506.124    504.703
 80.170    510.292    541.521    -31.230    504.682    540.038    504.682    506.160    504.682
 80.270    524.000    548.459    -24.459    504.660    546.911    504.660    506.203    504.660
 80.370    525.000    557.422    -32.422    504.636    555.806    504.636    506.250    504.636
 80.470    609.525    568.849     40.676    504.611    567.165    504.611    506.294    504.611
 80.570    580.000    583.036     -3.036    504.584    581.291    504.584    506.332    504.584
 80.670    641.000    600.022     40.978    504.556    598.231    504.556    506.354    504.556
 80.770    579.000    619.498    -40.498    504.527    617.683    504.527    506.353    504.527
 80.870    646.000    640.761      5.239    504.496    638.951    504.496    506.323    504.496
 80.970    640.000    662.735    -22.735    504.464    660.958    504.464    506.263    504.464
 81.070    662.000    684.086    -22.086    504.431    682.371    504.431    506.175    504.431
 81.170    696.000    703.426     -7.426    504.396    701.793    504.396    506.065    504.396
 81.270    768.434    719.497     48.937    504.359    717.957    504.359    505.942    504.359
 81.370    699.886    731.288    -31.402    504.321    729.847    504.321    505.812    504.321
 81.470    749.000    738.119     10.881    504.282    736.775    504.282    505.682    504.282
 81.570    768.000    739.703     28.297    504.242    738.450    504.242    505.555    504.242
 81.670    737.000    736.151      0.849    504.200    734.980    504.200    505.435    504.200
 81.770    739.000    727.885     11.115    504.156    726.784    504.156    505.323    504.156
 81.870    700.000    715.587    -15.587    504.111    714.545    504.111    505.220    504.111
 81.970    684.000    700.222    -16.222    504.065    699.228    504.065    505.126    504.065
 82.070    689.557    682.959      6.598    504.017    682.003    504.017    505.039    504.017
 82.170    657.000    664.950     -7.950    503.968    664.023    503.968    504.958    503.968
 82.270    677.000    647.089     29.911    503.917    646.184    503.917    504.882    503.917
 82.370    640.000    629.919     10.081    503.865    629.030    503.865    504.810    503.865
 82.470    639.000    613.709     25.291    503.812    612.831    503.812    504.741    503.812
 82.570    598.000    598.624     -0.624    503.757    597.753    503.757    504.674    503.757
 82.670    561.686    584.846    -23.160    503.700    583.979    503.700    504.607    503.700
 82.770    577.000    572.600      4.400    503.642    571.736    503.642    504.541    503.642
 82.870    522.121    562.115    -39.994    503.583    561.250    503.583    504.475    503.583
 82.970    554.000    553.580      0.420    503.522    552.714    503.522    504.408    503.522
 83.070    538.000    547.130     -9.130    503.460    546.262    503.460    504.341    503.460
 83.170    507.037    542.836    -35.798    503.396    541.964    503.396    504.272    503.396
 83.270    582.991    540.692     42.299    503.331    539.817    503.331    504.204    503.331
 83.370    522.000    540.599    -18.599    503.264    539.719    503.264    504.134    503.264
 83.470    560.000    542.346     17.654    503.196    541.462    503.196    504.063    503.196
 83.570    555.000    545.606      9.394    503.126    544.716    503.126    503.991    503.126
 83.670    533.000    549.928    -16.928    503.055    549.033    503.055    503.918    503.055
 83.770    558.000    554.754      3.246    502.982    553.855    502.982    503.844    502.982
 83.870    510.000    559.445    -49.445    502.908    558.541    502.908    503.768    502.908
 83.970    594.000    563.323     30.677    502.832    562.417    502.832    503.692    502.832
 84.070    517.000    565.759    -48.759    502.755    564.852    502.755    503.615    502.755
 84.170    509.000    566.286    -57.286    502.676    565.379    502.676    503.536    502.676
 84.270    565.428    564.731      0.697    502.596    563.826    502.596    503.456    502.596
 84.370    516.557    561.259    -44.702    502.515    560.358    502.515    503.375    502.515
 84.470    588.066    556.300     31.766    502.431    555.403    502.431    503.293    502.431
 84.570    509.766    550.410    -40.645    502.347    549.517    502.347    503.210    502.347
 84.670    533.000    544.150    -11.150    502.261    543.260    502.261    503.125    502.261
 84.770    517.714    538.003    -20.289    502.173    537.116    502.173    503.040    502.173
 84.870    501.510    532.341    -30.831    502.084    531.457    502.084    502.953    502.084
 84.970    553.572    527.408     26.164    501.993    526.525    501.993    502.865    501.993
 85.070    550.171    523.323     26.848    501.901    522.439    501.901    502.776    501.901
 85.170    493.000    520.100    -27.100    501.807    519.215    501.807    502.685    501.807
 85.270    505.000    517.679    -12.679    501.712    516.792    501.712    502.593    501.712
 85.370    503.000    515.954    -12.954    501.616    515.065    501.616    502.501    501.616
 85.470    472.406    514.806    -42.400    501.518    513.913    501.518    502.407    501.518
 85.570    495.000    514.123    -19.123    501.418    513.226    501.418    502.311    501.418
 85.670    518.000    513.820      4.180    501.317    512.917    501.317    502.215    501.317
 85.770    538.363    513.843     24.520    501.214    512.935    501.214    502.117    501.214
 85.870    521.000    514.180      6.820    501.110    513.266    501.110    502.019    501.110
 85.970    489.000    514.861    -25.861    501.004    513.939    501.004    501.919    501.004
 86.070    551.034    515.957     35.076    500.897    515.028    500.897    501.818    500.897
 86.170    514.221    517.586     -3.365    500.789    516.648    500.789    501.716    500.789
 86.270    508.000    519.902    -11.902    500.678    518.953    500.678    501.613    500.678
 86.370    529.515    523.091      6.424    500.567    522.131    500.567    501.508    500.567
 86.470    525.000    527.356     -2.356    500.454    526.383    500.454    501.403    500.454
 86.570    489.526    532.885    -43.359    500.339    531.897    500.339    501.296    500.339
 86.670    575.523    539.825     35.698    500.223    538.820    500.223    501.188    500.223
 86.770    584.466    548.235     36.231    500.105    547.211    500.105    501.080    500.105
 86.870    550.930    558.044     -7.114    499.986    556.998    499.986    500.970    499.986
 86.970    637.000    569.014     67.986    499.865    567.946    499.865    500.859    499.865
 87.070    613.000    580.716     32.284    499.743    579.624    499.743    500.748    499.743
 87.170    628.000    592.522     35.478    499.620    591.407    499.620    500.635    499.620
 87.270    646.000    603.616     42.384    499.495    602.479    499.495    500.521    499.495
 87.370    618.315    613.091      5.224    499.368    611.934    499.368    500.407    499.368
 87.470    606.000    620.003    -14.003    499.240    618.828    499.240    500.291    499.240
 87.570    588.716    623.576    -34.860    499.110    622.388    499.110    500.175    499.110
 87.670    632.000    623.422      8.578    498.979    622.225    498.979    500.058    498.979
 87.770    563.000    619.656    -56.656    498.847    618.455    498.847    499.940    498.847
 87.870    584.344    612.854    -28.511    498.713    611.650    498.713    499.821    498.713
 87.970    570.000    603.884    -33.884    498.578    602.678    498.578    499.702    498.578
 88.070    623.000    593.733     29.267    498.441    592.524    498.441    499.582    498.441
 88.170    627.129    583.380     43.749    498.302    582.167    498.302    499.461    498.302
 88.270    585.000    573.708     11.292    498.163    572.490    498.163    499.340    498.163
 88.370    591.000    565.453     25.547    498.021    564.228    498.021    499.219    498.021
 88.470    566.000    559.160      6.840    497.879    557.925    497.879    499.097    497.879
 88.570    544.000    555.165    -11.165    497.734    553.918    497.734    498.974    497.734
 88.670    571.000    553.595     17.405    497.589    552.334    497.589    498.851    497.589
 88.770    567.000    554.373     12.627    497.442    553.098    497.442    498.727    497.442
 88.870    561.000    557.241      3.759    497.293    555.948    497.293    498.604    497.293
 88.970    591.000    561.772     29.228    497.143    560.460    497.143    498.481    497.143
 89.070    557.000    567.402    -10.402    496.992    566.069    496.992    498.358    496.992
 89.170    537.376    573.460    -36.083    496.839    572.105    496.839    498.235    496.839
 89.270    588.000    579.204      8.796    496.685    577.824    496.685    498.113    496.685
 89.370    605.000    583.879     21.121    496.529    582.472    496.529    497.992    496.529
 89.470    635.000    586.800     48.200    496.372    585.362    496.372    497.871    496.372
 89.570    548.280    587.472    -39.192    496.214    585.998    496.214    497.751    496.214
 89.670    591.000    585.700      5.300    496.054    584.185    496.054    497.632    496.054
 89.770    610.000    581.630     28.370    495.892    580.070    495.892    497.514    495.892
 89.870    565.000    575.688    -10.688    495.730    574.078    495.730    497.398    495.730
 89.970    588.232    568.452     19.779    495.566    566.787    495.566    497.284    495.566
 90.070    516.916    560.533    -43.616    495.400    558.808    495.400    497.173    495.400
 90.170    538.595    552.490    -13.895    495.233    550.700    495.233    497.063    495.233
 90.270    541.000    544.788     -3.788    495.065    542.929    495.065    496.957    495.065
 90.370    543.000    537.772      5.228    494.896    535.840    494.896    496.855    494.896
 90.470    543.000    531.666     11.334    494.725    529.655    494.725    496.757    494.725
 90.570    553.066    526.575     26.492    494.553    524.479    494.553    496.664    494.553
 90.670    512.000    522.507    -10.507    494.379    520.320    494.379    496.577    494.379
 90.770    540.483    519.399     21.085    494.204    517.113    494.204    496.498    494.204
 90.870    510.000    517.135     -7.135    494.028    514.740    494.028    496.428    494.028
 90.970    495.000    515.550    -20.550    493.850    513.034    493.850    496.370    493.850
 91.070    494.000    514.622    -20.622    493.671    511.967    493.671    496.327    493.671
 91.170    477.000    514.206    -37.206    493.491    511.391    493.491    496.305    493.491
 91.270    514.000    514.228     -0.228    493.309    511.227    493.309    496.310    493.309
 91.370    510.000    514.668     -4.668    493.126    511.443    493.126    496.350    493.126
 91.470    533.785    515.545     18.240    492.942    512.046    492.942    496.439    492.942
 91.570    499.000    516.924    -17.924    492.757    513.086    492.757    496.591    492.757
 91.670    544.000    518.918     25.082    492.570    514.656    492.570    496.827    492.570
 91.770    527.907    521.691      6.215    492.382    516.895    492.382    497.171    492.382
 91.870    488.000    525.450    -37.450    492.193    519.980    492.193    497.654    492.193
 91.970    507.354    530.437    -23.083    492.002    524.118    492.002    498.310    492.002
 92.070    543.000    536.918      6.082    491.811    529.538    491.811    499.176    491.811
 92.170    532.000    545.159    -13.159    491.618    536.465    491.618    500.293    491.618
 92.270    482.000    555.402    -73.402    491.423    545.103    491.423    501.698    491.423
 92.370    562.000    567.832     -5.832    491.228    555.602    491.228    503.428    491.228
 92.470    571.622    582.547    -10.925    491.031    568.034    491.031    505.506    491.031
 92.570    597.000    599.521     -2.521    490.833    582.363    490.833    507.946    490.833
 92.670    625.000    618.580      6.420    490.634    598.420    490.634    510.742    490.634
 92.770    647.000    639.405      7.595    490.434    615.914    490.434    513.864    490.434
 92.870    613.902    661.488    -47.587    490.233    634.395    490.233    517.257    490.233
 92.970    704.000    684.162     19.838    490.030    653.284    490.030    520.833    490.030
 93.070    777.000    706.633     70.367    489.826    671.908    489.826    524.471    489.826
 93.170    743.000    728.060     14.940    489.621    689.587    489.621    528.010    489.621
 93.270    751.000    747.681      3.319    489.415    705.756    489.415    531.254    489.415
 93.370    780.000    764.962     15.038    489.208    720.097    489.208    533.985    489.208
 93.470    746.755    779.658    -32.903    489.000    732.597    489.000    535.974    489.000
 93.570    784.000    791.817     -7.817    488.790    743.501    488.790    537.022    488.790
 93.670    831.628    801.695     29.933    488.580    753.189    488.580    537.003    488.580
 93.770    817.000    809.679      7.321    488.368    762.066    488.368    535.901    488.368
 93.870    809.000    816.239     -7.239    488.156    770.508    488.156    533.810    488.156
 93.970    789.143    821.920    -32.778    487.942    778.879    487.942    530.909    487.942
 94.070    855.000    827.342     27.658    487.727    787.576    487.727    527.422    487.727
 94.170    837.000    833.151      3.849    487.512    797.016    487.512    523.578    487.512
 94.270    844.994    839.891      5.103    487.295    807.539    487.295    519.581    487.295
 94.370    818.000    847.839    -29.839    487.077    819.251    487.077    515.601    487.077
 94.470    879.000    856.851     22.149    486.858    831.876    486.858    511.773    486.858
 94.570    906.350    866.301     40.049    486.638    844.691    486.638    508.193    486.638
 94.670    888.000    875.102     12.898    486.417    856.542    486.417    504.927    486.417
 94.770    878.379    881.821     -3.443    486.196    865.962    486.196    502.012    486.196
 94.870    858.259    884.876    -26.616    485.973    871.353    485.973    499.460    485.973
 94.970    937.000    882.811     54.189    485.749    871.269    485.749    497.264    485.749
 95.070    883.000    874.628      8.372    485.524    864.733    485.524    495.403    485.524
 95.170    837.000    860.051    -23.051    485.299    851.498    485.299    493.843    485.299
 95.270    877.782    839.606     38.176    485.072    832.130    485.072    492.548    485.072
 95.370    793.000    814.570    -21.570    484.845    807.943    484.845    491.478    484.845
 95.470    815.109    786.623     28.486    484.617    780.656    484.617    490.594    484.617
 95.570    764.000    757.669      6.331    484.388    752.208    484.388    489.860    484.388
 95.670    768.672    729.636     39.036    484.158    724.558    484.158    489.247    484.158
 95.770    744.494    704.355     40.139    483.927    699.565    483.927    488.726    483.927
 95.870    694.000    683.495     10.505    483.695    678.917    483.695    488.279    483.695
 95.970    676.022    668.522      7.500    483.463    664.100    483.463    487.887    483.463
 96.070    611.455    660.701    -49.246    483.230    656.388    483.230    487.537    483.230
 96.170    642.000    661.099    -19.099    482.996    656.861    482.996    487.221    482.996
 96.270    636.644    670.602    -33.958    482.761    666.410    482.761    486.932    482.761
 96.370    672.683    689.907    -17.224    482.525    685.738    482.525    486.663    482.525
 96.470    678.000    719.505    -41.505    482.289    715.339    482.289    486.412    482.289
 96.570    780.782    759.610     21.172    482.052    755.430    482.052    486.176    482.052
 96.670    824.000    810.074     13.926    481.814    805.866    481.814    485.954    481.814
 96.770    859.000    870.275    -11.275    481.576    866.025    481.576    485.745    481.576
 96.870    982.000    939.004     42.996    481.337    934.700    481.337    485.548    481.337
 96.970   1041.000   1014.378     26.622    481.097   1010.008    481.097    485.363    481.097
 97.070   1100.113   1093.795      6.318    480.857   1089.350    480.857    485.189    480.857
 97.170   1200.000   1173.944     26.056    480.616   1169.415    480.616    485.027    480.616
 97.270   1242.000   1250.868     -8.868    480.374   1246.246    480.374    484.877    480.374
 97.370   1329.671   1320.143      9.528    480.132   1315.419    480.132    484.739    480.132
 97.470   1453.000   1377.196     75.804    479.889   1372.363    479.889    484.615    479.889
 97.570   1355.000   1417.817    -62.817    479.646   1412.866    479.646    484.505    479.646
 97.670   1468.000   1438.832     29.168    479.402   1433.751    479.402    484.409    479.402
 97.770   1501.370   1438.732     62.638    479.158   1433.508    479.158    484.330    479.158
 97.870   1460.000   1417.980     42.020    478.913   1412.595    478.913    484.269    478.913
 97.970   1366.000   1378.830    -12.830    478.667   1373.263    478.667    484.228    478.667
 98.070   1317.000   1324.803     -7.803    478.422   1319.028    478.422    484.210    478.422
 98.170   1272.926   1260.075     12.851    478.175   1254.060    478.175    484.219    478.175
 98.270   1182.000   1188.991     -6.991    477.928   1182.700    477.928    484.261    477.928
 98.370   1062.000   1115.727    -53.727    477.681   1109.115    477.681    484.341    477.681
 98.470   1075.000   1044.075     30.925    477.434   1037.090    477.434    484.470    477.434
 98.570    983.000    977.321      5.679    477.186    969.896    477.186    484.660    477.186
 98.670    894.000    918.189    -24.189    476.937    910.243    476.937    484.929    476.937
 98.770    835.000    868.851    -33.851    476.689    860.279    476.689    485.299    476.689
 98.870    821.410    830.960     -9.550    476.440    821.629    476.440    485.802    476.440
 98.970    735.000    805.786    -70.786    476.190    795.523    476.190    486.475    476.190
 99.070    757.000    794.201    -37.201    475.941    782.785    475.941    487.368    475.941
 99.170    797.000    796.806      0.194    475.691    783.956    475.691    488.543    475.691
 99.270    847.000    813.985     33.015    475.441    799.346    475.441    490.073    475.441
 99.370    892.493    845.920     46.573    475.190    829.050    475.190    492.044    475.190
 99.470    944.294    892.573     51.721    474.940    872.932    474.940    494.557    474.940
 99.570    912.780    953.632    -40.852    474.689    930.574    474.689    497.719    474.689
 99.670   1033.280   1028.437      4.843    474.438   1001.198    474.438    501.646    474.438
 99.770   1071.000   1115.882    -44.882    474.187   1083.586    474.187    506.451    474.187
 99.870   1184.000   1214.324    -30.324    473.936   1175.989    473.936    512.241    473.936
 99.970   1351.000   1321.512     29.488    473.684   1276.066    473.684    519.106    473.684
100.070   1456.000   1434.537     21.463    473.433   1380.849    473.433    527.108    473.433
100.170   1559.000   1549.862      9.138    473.182   1486.776    473.182    536.267    473.182
100.270   1705.905   1663.436     42.469    472.930   1589.828    472.930    546.556    472.930
100.370   1793.000   1770.953     22.047    472.679   1685.786    472.679    557.885    472.679
100.470   1786.357   1868.221    -81.863    472.427   1770.619    472.427    570.093    472.427
100.570   2033.402   1951.539     81.864    472.176   1840.862    472.176    582.942    472.176
100.670   1972.158   2017.942    -45.784    471.924   1893.874    471.924    596.108    471.924
100.770   2145.000   2065.227     79.773    471.673   1927.859    471.673    609.180    471.673
100.870   2051.340   2091.830    -40.490    471.422   1941.753    471.422    621.660    471.422
100.970   2037.047   2096.768    -59.721    471.170   1935.146    471.170    632.971    471.170
101.070   2138.000   2079.760     58.240    470.919   1908.381    470.919    642.491    470.919
101.170   2088.000   2041.526     46.474    470.669   1862.797    470.669    649.599    470.669
101.270   1936.779   1984.073    -47.294    470.418   1800.929    470.418    653.766    470.418
101.370   1874.000   1910.741    -36.741    470.167   1726.468    470.167    654.644    470.167
101.470   1748.624   1825.924    -77.300    469.917   1643.899    469.917    652.140    469.917
101.570   1724.000   1734.541    -10.541    469.667   1557.958    469.667    646.437    469.667
101.670   1661.293   1641.460     19.833    469.418   1473.094    469.418    637.957    469.418
101.770   1572.639   1551.026     21.612    469.168   1393.082    469.168    627.271    469.168
101.870   1512.294   1466.740     45.554    468.919   1320.794    468.919    615.007    468.919
101.970   1340.000   1391.091    -51.091    468.671   1258.108    468.671    601.780    468.671
102.070   1278.000   1325.509    -47.509    468.422   1205.902    468.422    588.141    468.422
102.170   1323.010   1270.391     52.618    468.175   1164.105    468.175    574.560    468.175
102.270   1228.000   1225.193      2.807    467.927   1131.791    467.927    561.417    467.927
102.370   1183.000   1188.558     -5.558    467.680   1107.311    467.680    549.007    467.680
102.470   1138.000   1158.500    -20.500    467.434   1088.468    467.434    537.541    467.434
102.570   1078.000   1132.632    -54.632    467.188   1072.738    467.188    527.153    467.188
102.670   1124.000   1108.448     15.552    466.942   1057.549    466.942    517.912    466.942
102.770   1073.000   1083.648    -10.648    466.697   1040.588    466.697    509.828    466.697
102.870   1021.000   1056.440    -35.440    466.453   1020.101    466.453    502.864    466.453
102.970   1001.000   1025.750    -24.750    466.209    995.086    466.209    496.947    466.209
103.070   1048.731    991.276     57.454    465.966    965.335    465.966    491.982    465.966
103.170    925.000    953.376    -28.376    465.724    931.316    465.724    487.857    465.724
103.270    867.000    912.871    -45.871    465.482    893.967    465.482    484.458    465.482
103.370    853.000    870.840    -17.840    465.242    854.479    465.242    481.671    465.242
103.470    813.792    828.445    -14.653    465.001    814.120    465.001    479.391    465.001
103.570    755.537    786.809    -31.272    464.762    774.108    464.762    477.522    464.762
103.670    780.000    746.935     33.065    464.523    735.530    464.523    475.983    464.523
103.770    751.909    709.656     42.253    464.286    699.287    464.286    474.703    464.286
103.870    701.000    675.596     25.404    464.049    666.060    464.049    473.626    464.049
103.970    620.778    645.157    -24.379    463.813    636.299    463.813    472.707    463.813
104.070    668.000    618.524     49.476    463.578    610.223    463.578    471.909    463.578
104.170    644.000    595.710     48.290    463.344    587.873    463.344    471.205    463.344
104.270    593.000    576.550     16.450    463.111    569.107    463.111    470.574    463.111
104.370    559.000    560.769     -1.769    462.879    553.662    462.879    470.001    462.879
104.470    515.474    548.012    -32.538    462.648    541.199    462.648    469.473    462.648
104.570    524.000    537.893    -13.893    462.418    531.337    462.418    468.983    462.418
104.670    514.251    530.019    -15.769    462.189    523.691    462.189    468.523    462.189
104.770    503.113    524.022    -20.909    461.961    517.897    461.961    468.090    461.961
104.870    555.931    519.574     36.356    461.735    513.631    461.735    467.680    461.735
104.970    549.078    516.398     32.680    461.509    510.618    461.509    467.290    461.509
105.070    569.000    514.273     54.727    461.285    508.640    461.285    466.918    461.285
105.170    494.086    513.037    -18.951    461.062    507.535    461.062    466.562    461.062
105.270    538.598    512.579     26.019    460.841    507.196    460.841    466.221    460.841
105.370    511.714    512.842     -1.128    460.621    507.564    460.621    465.893    460.621
105.470    487.900    513.811    -25.911    460.402    508.627    460.402    465.579    460.402
105.570    550.000    515.509     34.491    460.184    510.408    460.184    465.277    460.184
105.670    496.623    517.993    -21.369    459.968    512.965    459.968    464.986    459.968
105.770    508.000    521.341    -13.341    459.754    516.377    459.754    464.704    459.754
105.870    504.845    525.643    -20.798    459.541    520.740    459.541    464.429    459.541
105.970    549.000    531.008     17.992    459.329    526.151    459.329    464.168    459.329
106.070    536.000    537.513     -1.513    459.119    532.695    459.119    463.916    459.119
106.170    519.000    545.217    -26.217    458.911    540.429    458.911    463.674    458.911
106.270    570.366    554.134     16.231    458.704    549.370    458.704    463.441    458.704
106.370    594.506    564.228     30.277    458.499    559.480    458.499    463.216    458.499
106.470    565.000    575.396    -10.396    458.295    570.658    458.295    462.999    458.295
106.570    575.007    587.468    -12.460    458.094    582.733    458.094    462.790    458.094
106.670    602.780    600.199      2.582    457.894    595.463    457.894    462.587    457.894
106.770    588.000    613.273    -25.273    457.695    608.541    457.695    462.383    457.695
106.870    672.797    626.342     46.455    457.499    621.598    457.499    462.196    457.499
106.970    636.000    638.981     -2.981    457.305    634.219    457.305    462.018    457.305
107.070    670.883    650.755     20.128    457.112    645.970    457.112    461.847    457.112
107.170    653.000    661.228     -8.228    456.921    656.415    456.921    461.684    456.921
107.270    658.000    670.014    -12.014    456.733    665.168    456.733    461.529    456.733
107.370    692.106    676.821     15.284    456.546    671.939    456.546    461.381    456.546
107.470    674.190    681.508     -7.318    456.361    676.584    456.361    461.241    456.361
107.570    655.000    684.110    -29.110    456.179    679.139    456.179    461.109    456.179
107.670    639.000    684.847    -45.847    455.998    679.824    455.998    460.985    455.998
107.770    683.000    684.087     -1.087    455.820    679.007    455.820    460.868    455.820
107.870    669.000    682.290    -13.290    455.644    677.147    455.644    460.760    455.644
107.970    722.289    679.943     42.346    455.470    674.730    455.470    460.660    455.470
108.070    610.000    677.502    -67.502    455.299    672.214    455.299    460.569    455.299
108.170    643.000    675.351    -32.351    455.129    669.980    455.129    460.486    455.129
108.270    688.664    673.768     14.897    454.963    668.307    454.963    460.412    454.963
108.370    646.000    672.911    -26.911    454.798    667.354    454.798    460.348    454.798
108.470    648.000    672.807    -24.807    454.636    667.146    454.636    460.293    454.636
108.570    637.914    673.353    -35.439    454.476    667.580    454.476    460.248    454.476
108.670    669.945    674.322     -4.377    454.319    668.431    454.319    460.213    454.319
108.770    648.137    675.385    -27.247    454.164    669.365    454.164    460.189    454.164
108.870    687.000    676.133     10.867    454.012    669.978    454.012    460.177    454.012
108.970    653.000    676.128    -23.128    453.863    669.826    453.863    460.175    453.863
109.070    706.000    674.947     31.053    453.716    668.490    453.716    460.186    453.716
109.170    652.612    672.246    -19.634    453.572    665.624    453.572    460.210    453.572
109.270    657.000    667.811    -10.811    453.431    661.012    453.431    460.247    453.431
109.370    648.000    661.582    -13.582    453.292    654.595    453.292    460.298    453.292
109.470    622.584    653.652    -31.068    453.157    646.465    453.157    460.364    453.157
109.570    654.757    644.222     10.535    453.024    636.821    453.024    460.445    453.024
109.670    637.000    633.641      3.359    452.894    626.012    452.894    460.543    452.894
109.770    679.000    622.276     56.724    452.767    614.404    452.767    460.658    452.767
109.870    618.000    610.476      7.524    452.643    602.345    452.643    460.792    452.643
109.970    616.627    598.594     18.032    452.522    590.187    452.522    460.946    452.522
110.070    604.000    586.953     17.047    452.404    578.252    452.404    461.121    452.404
110.170    598.720    575.834     22.887    452.289    566.817    452.289    461.320    452.289
110.270    588.000    565.466     22.534    452.178    556.113    452.178    461.544    452.178
110.370    563.000    556.029      6.971    452.069    546.314    452.069    461.795    452.069
110.470    567.000    547.644     19.356    451.964    537.541    451.964    462.076    451.964
110.570    553.000    540.385     12.615    451.862    529.862    451.862    462.392    451.862
110.670    542.966    534.277      8.690    451.764    523.300    451.764    462.746    451.764
110.770    549.305    529.305     20.001    451.669    517.833    451.669    463.144    451.669
110.870    500.000    525.422    -25.422    451.577    513.409    451.577    463.593    451.577
110.970    562.553    522.561     39.992    451.489    509.949    451.489    464.101    451.489
111.070    551.000    520.638     30.362    451.404    507.362    451.404    464.680    451.404
111.170    554.000    519.566     34.434    451.323    505.543    451.323    465.343    451.323
111.270    513.211    519.256     -6.045    451.245    504.388    451.245    466.109    451.245
111.370    549.000    519.628     29.372    451.171    503.796    451.171    467.000    451.171
111.470    527.000    520.616      6.384    451.101    503.669    451.101    468.043    451.101
111.570    493.263    522.164    -28.901    451.035    503.921    451.035    469.271    451.035
111.670    508.831    524.239    -15.407    450.972    504.477    450.972    470.728    450.972
111.770    527.000    526.825      0.175    450.913    505.269    450.913    472.462    450.913
111.870    572.283    529.927     42.356    450.858    506.244    450.858    474.533    450.858
111.970    512.000    533.573    -21.573    450.807    507.361    450.807    477.011    450.807
112.070    504.922    537.815    -32.893    450.760    508.589    450.760    479.978    450.760
112.170    556.000    542.726     13.274    450.717    509.910    450.717    483.525    450.717
112.270    523.000    548.403    -25.403    450.678    511.317    450.678    487.755    450.678
112.370    557.000    554.962      2.038    450.643    512.815    450.643    492.781    450.643
112.470    604.000    562.540     41.460    450.612    514.419    450.612    498.725    450.612
112.570    558.000    571.285    -13.285    450.586    516.152    450.586    505.710    450.586
112.670    578.000    581.358     -3.358    450.563    518.046    450.563    513.866    450.563
112.770    609.105    592.923     16.182    450.545    520.145    450.545    523.315    450.545
112.870    628.000    606.148     21.852    450.532    522.498    450.532    534.173    450.532
112.970    604.000    621.199    -17.199    450.523    525.175    450.523    546.538    450.523
113.070    666.000    638.238     27.762    450.518    528.258    450.518    560.488    450.518
113.170    613.089    657.421    -44.332    450.518    531.860    450.518    576.068    450.518
113.270    707.000    678.900     28.100    450.522    536.124    450.522    593.287    450.522
113.370    712.000    702.829      9.171    450.531    541.242    450.531    612.107    450.531
113.470    738.000    729.368      8.632    450.545    547.463    450.545    632.437    450.545
113.570    834.000    758.697     75.303    450.563    555.117    450.563    654.129    450.563
113.670    797.000    791.032      5.968    450.586    564.631    450.586    676.970    450.586
113.770    905.000    826.644     78.356    450.614    576.558    450.614    700.680    450.614
113.870    868.000    865.883      2.117    450.647    591.600    450.647    724.907    450.647
113.970    945.873    909.207     36.666    450.685    610.640    450.685    749.223    450.685
114.070   1006.286    957.207     49.079    450.728    634.769    450.728    773.130    450.728
114.170   1025.000   1010.641     14.359    450.775    665.315    450.775    796.058    450.775
114.270   1016.000   1070.464    -54.464    450.828    703.861    450.828    817.376    450.828
114.370   1186.183   1137.859     48.324    450.886    752.264    450.886    836.413    450.886
114.470   1232.000   1214.270     17.730    450.949    812.649    450.949    852.485    450.949
114.570   1256.000   1301.434    -45.434    451.018    887.397    451.018    864.949    451.018
114.670   1396.000   1401.395     -5.395    451.091    979.099    451.091    873.257    451.091
114.770   1631.000   1516.505    114.495    451.170   1090.497    451.170    877.018    451.170
114.870   1588.855   1649.378    -60.522    451.255   1224.385    451.255    876.053    451.255
114.970   1845.000   1802.787     42.213    451.345   1383.486    451.345    870.412    451.345
115.070   2051.000   1979.508     71.492    451.440   1570.296    451.440    860.376    451.440
115.170   2240.747   2182.099     58.648    451.541   1786.906    451.541    846.410    451.541
115.270   2562.000   2412.645    149.355    451.648   2034.805    451.648    829.113    451.648
115.370   2749.539   2672.491     77.048    451.760   2314.671    451.760    809.152    451.760
115.470   2978.000   2961.988     16.012    451.878   2626.175    451.878    787.209    451.878
115.570   3344.000   3280.270     63.730    452.002   2967.797    452.002    763.942    452.002
115.670   3709.132   3625.080     84.052    452.132   3336.674    452.132    739.955    452.132
115.770   3861.000   3992.654   -131.654    452.267   3728.507    452.267    715.788    452.267
115.870   4230.000   4377.674   -147.674    452.409   4137.511    452.409    691.908    452.409
115.970   4620.000   4773.289   -153.289    452.556   4556.448    452.556    668.710    452.556
116.070   5151.540   5171.214    -19.674    452.710   4976.710    452.710    646.513    452.710
116.170   5595.150   5561.900     33.250    452.870   5388.502    452.870    625.569    452.870
116.270   5761.000   5934.784   -173.784    453.035   5781.079    453.035    606.060    453.035
116.370   6186.299   6278.635    -92.337    453.208   6143.088    453.208    588.110    453.208
116.470   6593.000   6582.006     10.994    453.386   6463.015    453.386    571.786    453.386
116.570   6844.065   6833.801     10.264    453.571   6729.750    453.571    557.102    453.571
116.670   7107.000   7024.007     82.993    453.762   6933.302    453.762    544.035    453.762
116.770   7107.000   7144.523    -37.523    453.960   7065.628    453.960    532.524    453.960
116.870   7347.000   7189.838    157.162    454.165   7121.300    454.165    522.481    454.165
116.970   7339.000   7157.695    181.305    454.376   7098.164    454.376    513.800    454.376
117.070   7039.000   7049.329    -10.329    454.593   6997.568    454.593    506.361    454.593
117.170   6935.000   6869.297     65.703    454.818   6824.191    454.818    500.038    454.818
117.270   6678.000   6624.959     53.041    455.049   6585.516    455.049    494.705    455.049
117.370   6282.000   6325.735    -43.735    455.287   6291.081    455.287    490.237    455.287
117.470   6066.556   5982.308     84.248    455.532   5951.686    455.532    486.518    455.532
117.570   5610.608   5605.903      4.705    455.783   5578.665    455.783    483.438    455.783
117.670   5059.000   5207.688   -148.688    456.042   5183.282    456.042    480.899    456.042
117.770   4776.000   4798.303    -22.303    456.308   4776.266    456.308    478.816    456.308
117.870   4344.778   4387.508    -42.730    456.582   4367.454    456.582    477.110    456.582
117.970   4130.000   3983.916    146.084    456.862   3965.526    456.862    475.718    456.862
118.070   3774.000   3594.822    179.178    457.150   3577.834    457.150    474.584    457.150
118.170   3364.000   3226.094    137.906    457.445   3210.295    457.445    473.661    457.445
118.270   2987.000   2882.158    104.842    457.747   2867.375    457.747    472.913    457.747
118.370   2623.000   2566.038     56.962    458.057   2552.130    458.057    472.308    458.057
118.470   2353.000   2279.460     73.540    458.375   2266.315    458.375    471.821    458.375
118.570   2007.000   2023.002    -16.002    458.700   2010.529    458.700    471.433    458.700
118.670   1716.871   1796.270    -79.400    459.033   1784.396    459.033    471.127    459.033
118.770   1542.075   1598.087    -56.012    459.373   1586.751    459.373    470.891    459.373
118.870   1399.000   1426.681    -27.681    459.722   1415.835    459.722    470.715    459.722
118.970   1174.000   1279.870   -105.870    460.078   1269.473    460.078    470.591    460.078
119.070   1109.443   1155.227    -45.784    460.442   1145.245    460.442    470.514    460.442
119.170   1027.645   1050.224    -22.579    460.814   1040.628    460.814    470.478    460.814
119.270   1016.607    962.355     54.251    461.194    953.118    461.194    470.480    461.194
119.370    836.206    889.225    -53.019    461.583    880.324    461.583    470.518    461.583
119.470    843.620    828.620     15.000    461.979    820.034    461.979    470.587    461.979
119.570    824.000    778.545     45.455    462.384    770.255    462.384    470.688    462.384
119.670    734.000    737.246     -3.246    462.797    729.233    462.797    470.818    462.797
119.770    706.000    703.213      2.787    463.219    695.459    463.219    470.977    463.219
119.870    658.000    675.166    -17.166    463.649    667.654    463.649    471.163    463.649
119.970    666.000    652.041     13.959    464.087    644.753    464.087    471.376    464.087
120.070    593.000    632.964    -39.964    464.535    625.882    464.535    471.615    464.535
120.170    599.000    617.222    -18.222    464.990    610.330    464.990    471.882    464.990
120.270    581.333    604.247    -22.914    465.455    597.526    465.455    472.175    465.455
120.370    608.000    593.582     14.418    465.929    587.015    465.929    472.495    465.929
120.470    626.108    584.866     41.242    466.411    578.435    466.411    472.843    466.411
120.570    571.347    577.815     -6.468    466.902    571.500    466.902    473.219    466.902
120.670    555.486    572.206    -16.719    467.403    565.986    467.403    473.624    467.403
120.770    562.000    567.862     -5.862    467.912    561.718    467.912    474.059    467.912
120.870    536.000    564.646    -28.646    468.431    558.556    468.431    474.525    468.431
120.970    586.000    562.449     23.551    468.958    556.390    468.958    475.022    468.958
121.070    596.946    561.185     35.761    469.496    555.134    469.496    475.553    469.496
121.170    547.000    560.784    -13.784    470.042    554.715    470.042    476.117    470.042
121.270    566.227    561.186      5.041    470.598    555.075    470.598    476.717    470.598
121.370    599.000    562.339     36.661    471.164    556.160    471.164    477.352    471.164
121.470    539.000    564.196    -25.196    471.739    557.921    471.739    478.024    471.739
121.570    543.000    566.706    -23.706    472.324    560.309    472.324    478.732    472.324
121.670    578.000    569.819      8.181    472.918    563.273    472.918    479.478    472.918
121.770    589.734    573.476     16.258    473.523    566.755    473.523    480.260    473.523
121.870    611.078    577.614     33.464    474.137    570.692    474.137    481.078    474.137
121.970    570.000    582.161    -12.161    474.761    575.013    474.761    481.930    474.761
122.070    577.000    587.034    -10.034    475.396    579.638    475.396    482.815    475.396
122.170    569.283    592.142    -22.859    476.040    584.478    476.040    483.730    476.040
122.270    578.000    597.386    -19.386    476.695    589.437    476.695    484.673    476.695
122.370    591.889    602.655    -10.766    477.360    594.408    477.360    485.639    477.360
122.470    613.576    607.835      5.741    478.035    599.279    478.035    486.625    478.035
122.570    658.000    612.803     45.197    478.721    603.937    478.721    487.625    478.721
122.670    638.023    617.439     20.584    479.417    608.263    479.417    488.633    479.417
122.770    597.070    621.622    -24.552    480.124    612.144    480.124    489.645    480.124
122.870    671.591    625.240     46.351    480.842    615.475    480.842    490.651    480.842
122.970    657.000    628.194     28.806    481.570    618.164    481.570    491.646    481.570
123.070    656.972    630.402     26.570    482.309    620.140    482.309    492.619    482.309
123.170    608.851    631.811    -22.960    483.059    621.354    483.059    493.565    483.059
123.270    634.000    632.394      1.606    483.820    621.785    483.820    494.478    483.820
123.370    632.302    632.149      0.153    484.592    621.441    484.592    495.350    484.592
123.470    659.845    631.104     28.741    485.375    620.352    485.375    496.175    485.375
123.570    646.000    629.306     16.694    486.169    618.572    486.169    496.951    486.169
123.670    603.551    626.823    -23.272    486.975    616.168    486.975    497.676    486.975
123.770    614.760    623.735     -8.975    487.792    613.221    487.792    498.350    487.792
123.870    646.000    620.132     25.868    488.620    609.816    488.620    498.978    488.620
123.970    579.000    616.105    -37.105    489.460    606.042    489.460    499.563    489.460
124.070    609.499    611.750     -2.251    490.312    601.986    490.312    500.113    490.312
124.170    612.000    607.160      4.840    491.175    597.735    491.175    500.634    491.175
124.270    651.000    602.421     48.579    492.050    593.368    492.050    501.134    492.050
124.370    580.000    597.615    -17.615    492.937    588.959    492.937    501.621    492.937
124.470    652.000    592.815     59.185    493.836    584.573    493.836    502.102    493.836
124.570    573.000    588.083    -15.083    494.746    580.267    494.746    502.584    494.746
124.670    625.000    583.473     41.527    495.669    576.087    495.669    503.074    495.669
124.770    585.000    579.027      5.973    496.605    572.070    496.605    503.577    496.605
124.870    587.000    574.778     12.222    497.552    568.244    497.552    504.099    497.552
124.970    608.000    570.748     37.252    498.512    564.628    498.512    504.643    498.512
