neutron_powder_diffraction_0209
R_wp: 3.978
Temperature (K): 1074.000
Counts: 83163.00
Wavelength (Ã…): 2.52098
COMMENTS
Test file for demonstrating the .xyy file format in Reel1.0
END OF HEADER
   tth       Y_obs     Y_calc      Y_res    Background    Phase_1_Nuc    Phase_1_Mag    Phase_2_Nuc    Phase_2_Mag
  9.970    615.000    586.003     28.997    585.414    585.982    585.414    585.434    585.414
 10.070    600.555    585.878     14.677    585.239    585.857    585.239    585.259    585.239
 10.170    594.000    585.758      8.242    585.060    585.738    585.060    585.081    585.060
 10.270    582.000    585.661     -3.661    584.879    585.639    584.879    584.900    584.879
 10.370    602.000    585.557     16.443    584.694    585.536    584.694    584.715    584.694
 10.470    608.080    585.461     22.619    584.507    585.439    584.507    584.528    584.507
 10.570    578.000    585.379     -7.379    584.317    585.356    584.317    584.339    584.317
 10.670    555.830    585.317    -29.486    584.124    585.291    584.124    584.149    584.124
 10.770    621.943    585.276     36.667    583.928    585.250    583.928    583.953    583.928
 10.870    569.000    585.267    -16.267    583.729    585.240    583.729    583.754    583.729
 10.970    578.000    585.300     -7.300    583.527    585.273    583.527    583.553    583.527
 11.070    610.000    585.392     24.608    583.323    585.365    583.323    583.349    583.323
 11.170    572.978    585.565    -12.587    583.116    585.538    583.116    583.142    583.116
 11.270    586.000    585.855      0.145    582.906    585.828    582.906    582.932    582.906
 11.370    545.879    586.322    -40.443    582.694    586.294    582.694    582.720    582.694
 11.470    629.000    587.095     41.905    582.479    587.066    582.479    582.505    582.479
 11.570    600.000    588.539     11.461    582.261    588.510    582.261    582.288    582.261
 11.670    620.407    591.768     28.640    582.041    591.736    582.041    582.068    582.041
 11.770    654.000    599.558     54.442    581.819    599.521    581.819    581.845    581.819
 11.870    657.000    616.725     40.275    581.594    616.678    581.594    581.622    581.594
 11.970    664.000    647.405     16.595    581.366    647.340    581.366    581.395    581.366
 12.070    718.000    687.915     30.085    581.136    687.828    581.136    581.165    581.136
 12.170    752.804    720.127     32.677    580.904    720.021    580.904    580.933    580.904
 12.270    728.000    720.957      7.043    580.669    720.851    580.669    580.699    580.669
 12.370    697.000    689.428      7.572    580.432    689.339    580.432    580.462    580.432
 12.470    639.899    648.226     -8.327    580.193    648.159    580.193    580.223    580.193
 12.570    576.105    616.322    -40.217    579.952    616.272    579.952    579.982    579.952
 12.670    608.000    598.053      9.947    579.708    598.013    579.708    579.738    579.708
 12.770    555.000    589.455    -34.455    579.462    589.420    579.462    579.493    579.462
 12.870    560.000    585.624    -25.624    579.214    585.589    579.214    579.246    579.214
 12.970    559.288    583.674    -24.386    578.964    583.630    578.964    579.006    578.964
 13.070    564.599    582.417    -17.818    578.712    582.372    578.712    578.755    578.712
 13.170    581.791    581.474      0.317    578.458    581.429    578.458    578.501    578.458
 13.270    571.000    580.713     -9.713    578.201    580.668    578.201    578.245    578.201
 13.370    540.743    580.073    -39.329    577.943    580.027    577.943    577.988    577.943
 13.470    585.979    579.515      6.464    577.683    579.469    577.683    577.728    577.683
 13.570    658.000    579.018     78.982    577.421    578.972    577.421    577.466    577.421
 13.670    554.244    578.564    -24.320    577.157    578.518    577.157    577.202    577.157
 13.770    560.000    578.145    -18.145    576.891    578.098    576.891    576.937    576.891
 13.870    585.236    577.755      7.481    576.623    577.703    576.623    576.674    576.623
 13.970    552.619    577.380    -24.761    576.353    577.327    576.353    576.406    576.353
 14.070    540.016    577.019    -37.003    576.082    576.966    576.082    576.135    576.082
 14.170    561.000    576.670    -15.670    575.809    576.617    575.809    575.862    575.809
 14.270    609.364    576.331     33.033    575.534    576.277    575.534    575.587    575.534
 14.370    584.000    575.998      8.002    575.257    575.944    575.257    575.311    575.257
 14.470    558.956    575.672    -16.716    574.979    575.617    574.979    575.033    574.979
 14.570    555.000    575.350    -20.350    574.699    575.295    574.699    574.753    574.699
 14.670    561.000    575.031    -14.031    574.417    574.977    574.417    574.472    574.417
 14.770    559.763    574.716    -14.953    574.134    574.661    574.134    574.189    574.134
 14.870    603.000    574.403     28.597    573.850    574.347    573.850    573.905    573.850
 14.970    558.000    574.091    -16.091    573.564    574.035    573.564    573.619    573.564
 15.070    580.000    573.781      6.219    573.276    573.725    573.276    573.332    573.276
 15.170    541.591    573.475    -31.884    572.987    573.419    572.987    573.043    572.987
 15.270    528.000    573.168    -45.168    572.696    573.112    572.696    572.753    572.696
 15.370    572.000    572.860     -0.860    572.404    572.803    572.404    572.461    572.404
 15.470    560.000    572.553    -12.553    572.111    572.496    572.111    572.168    572.111
 15.570    562.949    572.245     -9.297    571.816    572.188    571.816    571.873    571.816
 15.670    580.035    571.938      8.097    571.520    571.880    571.520    571.578    571.520
 15.770    557.000    571.630    -14.630    571.222    571.572    571.222    571.281    571.222
 15.870    594.047    571.322     22.725    570.924    571.264    570.924    570.982    570.924
 15.970    535.124    571.014    -35.890    570.624    570.955    570.624    570.683    570.624
 16.070    561.000    570.706     -9.706    570.323    570.646    570.323    570.382    570.323
 16.170    543.000    570.397    -27.397    570.020    570.337    570.020    570.080    570.020
 16.270    589.000    570.088     18.912    569.717    570.027    569.717    569.777    569.717
 16.370    588.000    569.781     18.219    569.412    569.717    569.412    569.476    569.412
 16.470    595.000    569.471     25.529    569.106    569.406    569.106    569.170    569.106
 16.570    551.099    569.161    -18.062    568.799    569.095    568.799    568.865    568.799
 16.670    551.000    568.850    -17.850    568.491    568.783    568.491    568.557    568.491
 16.770    545.000    568.538    -23.538    568.182    568.471    568.182    568.249    568.182
 16.870    566.218    568.227     -2.008    567.872    568.159    567.872    567.940    567.872
 16.970    550.468    567.915    -17.447    567.561    567.847    567.561    567.629    567.561
 17.070    590.000    567.602     22.398    567.249    567.533    567.249    567.317    567.249
 17.170    542.579    567.287    -24.709    566.936    567.218    566.936    567.005    566.936
 17.270    537.556    566.973    -29.416    566.622    566.903    566.622    566.691    566.622
 17.370    545.134    566.657    -21.523    566.307    566.587    566.307    566.377    566.307
 17.470    588.276    566.341     21.935    565.992    566.271    565.992    566.062    565.992
 17.570    579.000    566.025     12.975    565.675    565.954    565.675    565.746    565.675
 17.670    569.000    565.708      3.292    565.358    565.636    565.358    565.429    565.358
 17.770    507.000    565.390    -58.390    565.040    565.318    565.040    565.111    565.040
 17.870    559.456    565.072     -5.617    564.721    565.000    564.721    564.793    564.721
 17.970    542.000    564.756    -22.756    564.401    564.683    564.401    564.474    564.401
 18.070    565.000    564.438      0.562    564.081    564.365    564.081    564.154    564.081
 18.170    521.000    564.119    -43.119    563.759    564.045    563.759    563.833    563.759
 18.270    558.000    563.799     -5.799    563.438    563.724    563.438    563.512    563.438
 18.370    527.000    563.479    -36.479    563.115    563.404    563.115    563.190    563.115
 18.470    550.379    563.158    -12.780    562.792    563.083    562.792    562.868    562.792
 18.570    538.230    562.838    -24.608    562.468    562.761    562.468    562.545    562.468
 18.670    555.000    562.518     -7.518    562.144    562.439    562.144    562.222    562.144
 18.770    584.131    562.196     21.934    561.819    562.117    561.819    561.898    561.819
 18.870    557.000    561.875     -4.875    561.494    561.795    561.494    561.573    561.494
 18.970    533.464    561.552    -28.089    561.168    561.472    561.168    561.248    561.168
 19.070    568.000    561.230      6.770    560.841    561.149    560.841    560.922    560.841
 19.170    535.389    560.908    -25.519    560.514    560.826    560.514    560.596    560.514
 19.270    509.000    560.586    -51.586    560.187    560.503    560.187    560.269    560.187
 19.370    540.000    560.263    -20.263    559.859    560.180    559.859    559.942    559.859
 19.470    526.000    559.940    -33.940    559.531    559.856    559.531    559.615    559.531
 19.570    518.742    559.617    -40.875    559.202    559.533    559.202    559.287    559.202
 19.670    573.000    559.294     13.706    558.873    559.209    558.873    558.958    558.873
 19.770    523.507    558.972    -35.464    558.544    558.886    558.544    558.630    558.544
 19.870    557.000    558.649     -1.649    558.214    558.562    558.214    558.301    558.214
 19.970    524.890    558.327    -33.437    557.884    558.239    557.884    557.972    557.884
 20.070    529.000    558.005    -29.005    557.554    557.917    557.554    557.642    557.554
 20.170    598.165    557.683     40.482    557.223    557.593    557.223    557.313    557.223
 20.270    565.000    557.365      7.635    556.892    557.270    556.892    556.987    556.892
 20.370    612.000    557.044     54.956    556.561    556.947    556.561    556.659    556.561
 20.470    523.000    556.724    -33.724    556.230    556.625    556.230    556.328    556.230
 20.570    541.000    556.415    -15.415    555.899    556.316    555.899    555.998    555.899
 20.670    590.298    556.104     34.194    555.567    556.004    555.567    555.667    555.567
 20.770    558.013    555.785      2.228    555.235    555.684    555.235    555.336    555.235
 20.870    570.000    555.465     14.535    554.903    555.363    554.903    555.006    554.903
 20.970    552.000    555.146     -3.146    554.571    555.042    554.571    554.675    554.571
 21.070    596.000    554.827     41.173    554.239    554.723    554.239    554.344    554.239
 21.170    587.902    554.510     33.392    553.907    554.404    553.907    554.013    553.907
 21.270    557.000    554.193      2.807    553.575    554.086    553.575    553.681    553.575
 21.370    570.842    553.877     16.965    553.243    553.769    553.243    553.350    553.243
 21.470    582.000    553.562     28.438    552.910    553.453    552.910    553.019    552.910
 21.570    553.000    553.249     -0.249    552.578    553.139    552.578    552.688    552.578
 21.670    523.000    552.937    -29.937    552.246    552.825    552.246    552.357    552.246
 21.770    592.000    552.626     39.374    551.914    552.514    551.914    552.026    551.914
 21.870    585.000    552.326     32.674    551.581    552.212    551.581    551.696    551.581
 21.970    573.000    552.105     20.895    551.249    551.990    551.249    551.365    551.249
 22.070    559.000    551.844      7.156    550.917    551.727    550.917    551.034    550.917
 22.170    536.000    551.572    -15.572    550.585    551.454    550.585    550.704    550.585
 22.270    570.000    551.277     18.723    550.254    551.157    550.254    550.374    550.254
 22.370    512.000    550.982    -38.982    549.922    550.861    549.922    550.044    549.922
 22.470    543.000    550.691     -7.691    549.591    550.568    549.591    549.714    549.591
 22.570    587.000    550.405     36.595    549.259    550.280    549.259    549.384    549.259
 22.670    578.250    550.124     28.126    548.928    549.998    548.928    549.055    548.928
 22.770    501.000    549.849    -48.849    548.598    549.721    548.598    548.726    548.598
 22.870    541.000    549.587     -8.587    548.267    549.456    548.267    548.398    548.267
 22.970    581.632    549.373     32.259    547.937    549.241    547.937    548.069    547.937
 23.070    572.000    549.146     22.854    547.607    549.012    547.607    547.741    547.607
 23.170    565.000    548.917     16.083    547.277    548.781    547.277    547.414    547.277
 23.270    567.000    548.700     18.300    546.947    548.562    546.947    547.086    546.947
 23.370    563.000    548.504     14.496    546.618    548.364    546.618    546.759    546.618
 23.470    589.480    548.335     41.144    546.289    548.192    546.289    546.433    546.289
 23.570    545.000    548.202     -3.202    545.961    548.056    545.961    546.107    545.961
 23.670    558.000    548.115      9.885    545.633    547.967    545.633    545.781    545.633
 23.770    567.000    548.094     18.906    545.305    547.943    545.305    545.456    545.305
 23.870    558.000    548.164      9.836    544.978    548.011    544.978    545.132    544.978
 23.970    538.000    548.378    -10.378    544.651    548.221    544.651    544.810    544.651
 24.070    565.625    548.848     16.778    544.324    548.687    544.324    544.488    544.324
 24.170    539.000    549.912    -10.912    543.998    549.749    543.998    544.165    543.998
 24.270    550.000    552.536     -2.536    543.673    552.371    543.673    543.843    543.673
 24.370    558.000    558.854     -0.854    543.347    558.690    543.347    543.521    543.347
 24.470    577.000    572.024      4.976    543.023    571.866    543.023    543.201    543.023
 24.570    559.278    593.829    -34.551    542.699    593.683    542.699    542.880    542.699
 24.670    640.000    620.056     19.944    542.375    619.925    542.375    542.561    542.375
 24.770    681.268    637.561     43.707    542.052    637.439    542.052    542.243    542.052
 24.870    598.000    633.252    -35.252    541.729    633.123    541.729    541.925    541.729
 24.970    612.000    610.695      1.305    541.407    610.544    541.407    541.608    541.407
 25.070    625.000    584.565     40.435    541.086    584.390    541.086    541.292    541.086
 25.170    583.000    565.024     17.976    540.765    564.829    540.765    540.977    540.765
 25.270    544.767    553.850     -9.084    540.445    553.641    540.445    540.663    540.445
 25.370    531.600    548.449    -16.848    540.125    548.229    540.125    540.349    540.125
 25.470    600.000    545.945     54.055    539.806    545.717    539.806    540.037    539.806
 25.570    565.000    544.597     20.403    539.488    544.361    539.488    539.726    539.488
 25.670    535.000    543.704     -8.704    539.170    543.460    539.170    539.417    539.170
 25.770    554.615    543.032     11.583    538.853    542.778    538.853    539.108    538.853
 25.870    562.000    542.493     19.507    538.537    542.230    538.537    538.801    538.537
 25.970    571.000    542.053     28.947    538.222    541.780    538.222    538.495    538.222
 26.070    516.573    541.681    -25.108    537.907    541.398    537.907    538.191    537.907
 26.170    564.000    541.369     22.631    537.592    541.074    537.592    537.888    537.592
 26.270    582.000    541.108     40.892    537.279    540.801    537.279    537.587    537.279
 26.370    556.000    540.896     15.104    536.966    540.575    536.966    537.288    536.966
 26.470    540.000    540.733     -0.733    536.654    540.397    536.654    536.990    536.654
 26.570    565.000    540.622     24.378    536.343    540.270    536.343    536.695    536.343
 26.670    541.000    540.568      0.432    536.033    540.198    536.033    536.403    536.033
 26.770    510.808    540.582    -29.775    535.723    540.193    535.723    536.113    535.723
 26.870    514.000    540.701    -26.701    535.415    540.289    535.415    535.825    535.415
 26.970    570.566    540.913     29.653    535.107    540.478    535.107    535.541    535.107
 27.070    523.322    541.228    -17.905    534.799    540.766    534.799    535.261    534.799
 27.170    590.000    541.703     48.297    534.493    541.212    534.493    534.984    534.493
 27.270    580.000    542.398     37.602    534.188    541.873    534.188    534.712    534.188
 27.370    548.000    543.402      4.598    533.883    542.840    533.883    534.445    533.883
 27.470    502.223    544.879    -42.656    533.580    544.273    533.580    534.183    533.580
 27.570    536.000    547.243    -11.243    533.277    546.589    533.277    533.929    533.277
 27.670    561.000    551.930      9.070    532.975    551.219    532.975    533.682    532.975
 27.770    555.000    563.747     -8.747    532.674    562.967    532.674    533.445    532.674
 27.870    650.000    594.583     55.417    532.374    593.719    532.374    533.220    532.374
 27.970    686.000    662.516     23.484    532.075    661.543    532.075    533.008    532.075
 28.070    803.000    775.227     27.773    531.777    774.121    531.777    532.812    531.777
 28.170    849.072    900.911    -51.839    531.480    899.655    531.480    532.638    531.480
 28.270    980.000    962.924     17.076    531.183    961.523    531.183    532.489    531.183
 28.370    883.780    910.481    -26.701    530.888    908.935    530.888    532.374    530.888
 28.470    848.000    797.625     50.375    530.594    795.891    530.594    532.303    530.594
 28.570    697.979    710.278    -12.298    530.301    708.275    530.301    532.292    530.301
 28.670    696.408    692.796      3.612    530.008    690.419    530.008    532.370    530.008
 28.770    712.128    740.534    -28.406    529.717    737.645    529.717    532.587    529.717
 28.870    811.000    812.349     -1.349    529.427    808.723    529.427    533.041    529.427
 28.970    898.407    846.281     52.127    529.138    841.519    529.138    533.903    529.138
 29.070    794.443    805.593    -11.150    528.850    799.013    528.850    535.443    528.850
 29.170    703.000    722.705    -19.705    528.562    713.270    528.562    538.011    528.562
 29.270    624.000    647.394    -23.394    528.276    633.740    528.276    541.939    528.276
 29.370    625.000    601.908     23.092    527.992    582.564    527.992    547.338    527.992
 29.470    589.000    583.061      5.939    527.708    557.026    527.708    553.741    527.708
 29.570    613.000    578.189     34.811    527.425    546.032    527.425    559.578    527.425
 29.670    574.542    576.205     -1.663    527.143    541.171    527.143    562.173    527.143
 29.770    614.000    571.499     42.501    526.863    538.551    526.863    559.806    526.863
 29.870    594.853    564.055     30.799    526.583    536.839    526.583    553.795    526.583
 29.970    569.000    556.140     12.860    526.305    535.632    526.305    546.810    526.305
 30.070    554.000    549.396      4.604    526.028    534.795    526.028    540.627    526.028
 30.170    539.866    544.428     -4.562    525.752    534.302    525.752    535.876    525.752
 30.270    573.000    541.302     31.698    525.477    534.253    525.477    532.523    525.477
 30.370    529.081    540.140    -11.058    525.203    535.078    525.203    530.261    525.203
 30.470    506.751    541.752    -35.001    524.931    537.941    524.931    528.735    524.931
 30.570    576.000    548.078     27.922    524.659    545.065    524.659    527.660    524.659
 30.670    542.000    561.438    -19.438    524.389    558.957    524.389    526.847    524.389
 30.770    590.000    581.763      8.237    524.120    579.657    524.120    526.188    524.120
 30.870    584.000    602.993    -18.993    523.853    601.168    523.853    525.625    523.853
 30.970    614.000    612.729      1.271    523.586    611.132    523.586    525.127    523.586
 31.070    558.603    602.744    -44.142    523.321    601.343    523.321    524.676    523.321
 31.170    590.736    580.675     10.061    523.057    579.442    523.057    524.260    523.057
 31.270    565.000    558.923      6.077    522.794    557.829    522.794    523.872    522.794
 31.370    534.000    543.816     -9.816    522.532    542.835    522.532    523.506    522.532
 31.470    511.000    535.536    -24.536    522.272    534.646    522.272    523.157    522.272
 31.570    534.000    531.620      2.380    522.012    530.807    522.012    522.823    522.012
 31.670    551.939    529.787     22.152    521.755    529.039    521.755    522.501    521.755
 31.770    558.000    528.798     29.202    521.498    528.105    521.498    522.188    521.498
 31.870    523.000    528.161     -5.161    521.243    527.517    521.243    521.885    521.243
 31.970    550.000    527.714     22.286    520.988    527.113    520.988    521.589    520.988
 32.070    554.000    527.403     26.597    520.736    526.838    520.736    521.299    520.736
 32.170    578.000    527.206     50.794    520.484    526.674    520.484    521.015    520.484
 32.270    523.000    527.112     -4.112    520.234    526.609    520.234    520.736    520.234
 32.370    516.000    527.121    -11.121    519.985    526.644    519.985    520.462    519.985
 32.470    546.000    527.243     18.757    519.738    526.788    519.738    520.191    519.738
 32.570    491.949    527.493    -35.544    519.491    527.059    519.491    519.925    519.491
 32.670    598.000    527.897     70.103    519.246    527.481    519.246    519.661    519.246
 32.770    548.942    528.490     20.452    519.003    528.090    519.003    519.401    519.003
 32.870    545.202    529.326     15.877    518.760    528.941    518.760    519.144    518.760
 32.970    499.843    530.483    -30.640    518.519    530.112    518.519    518.890    518.519
 33.070    572.000    532.084     39.916    518.280    531.725    518.280    518.638    518.280
 33.170    567.888    534.344     33.544    518.042    533.995    518.042    518.389    518.042
 33.270    500.979    537.765    -36.787    517.805    537.426    517.805    518.142    517.805
 33.370    553.000    543.736      9.264    517.569    543.405    517.569    517.897    517.569
 33.470    545.000    556.009    -11.009    517.335    555.684    517.335    517.654    517.335
 33.570    576.288    583.006     -6.718    517.102    582.684    517.102    517.414    517.102
 33.670    577.000    638.507    -61.507    516.871    638.182    516.871    517.175    516.871
 33.770    794.000    735.544     58.456    516.641    735.211    516.641    516.939    516.641
 33.870    886.784    870.947     15.837    516.412    870.602    516.412    516.704    516.412
 33.970    985.000   1007.684    -22.684    516.185   1007.336    516.185    516.472    516.185
 34.070   1116.049   1074.910     41.139    515.959   1074.577    515.959    516.241    515.959
 34.170    975.373   1024.430    -49.056    515.734   1024.129    515.734    516.012    515.734
 34.270    931.000    894.016     36.984    515.511    893.743    515.511    515.785    515.511
 34.370    718.123    755.006    -36.883    515.290    754.747    515.290    515.559    515.290
 34.470    612.000    650.453    -38.453    515.069    650.197    515.069    515.336    515.069
 34.570    575.000    588.150    -13.150    514.851    587.893    514.851    515.114    514.851
 34.670    572.000    556.717     15.283    514.633    556.460    514.633    514.893    514.633
 34.770    566.246    542.019     24.226    514.417    541.763    514.417    514.675    514.417
 34.870    538.864    534.739      4.126    514.203    534.483    514.203    514.458    514.203
 34.970    522.000    530.475     -8.475    513.989    530.222    513.989    514.243    513.989
 35.070    515.648    527.542    -11.894    513.778    527.290    513.778    514.029    513.778
 35.170    524.000    525.330     -1.330    513.568    525.080    513.568    513.817    513.568
 35.270    538.000    523.585     14.415    513.359    523.337    513.359    513.607    513.359
 35.370    572.000    522.172     49.828    513.151    521.926    513.151    513.398    513.151
 35.470    526.655    521.004      5.651    512.945    520.758    512.945    513.191    512.945
 35.570    530.000    520.020      9.980    512.741    519.776    512.741    512.985    512.741
 35.670    477.000    519.179    -42.179    512.538    518.936    512.538    512.781    512.538
 35.770    516.401    518.451     -2.050    512.336    518.208    512.336    512.579    512.336
 35.870    518.513    517.812      0.701    512.136    517.570    512.136    512.378    512.136
 35.970    558.000    517.246     40.754    511.938    517.005    511.938    512.179    511.938
 36.070    499.000    516.741    -17.741    511.740    516.500    511.740    511.981    511.740
 36.170    553.165    516.287     36.877    511.545    516.047    511.545    511.786    511.545
 36.270    521.000    515.878      5.122    511.351    515.637    511.351    511.591    511.351
 36.370    504.000    515.507    -11.507    511.158    515.266    511.158    511.398    511.158
 36.470    517.000    515.172      1.828    510.967    514.932    510.967    511.207    510.967
 36.570    497.180    514.872    -17.692    510.777    514.632    510.777    511.017    510.777
 36.670    463.000    514.608    -51.608    510.588    514.367    510.588    510.829    510.588
 36.770    498.000    514.384    -16.384    510.402    514.142    510.402    510.643    510.402
 36.870    518.000    514.217      3.783    510.216    513.975    510.216    510.458    510.216
 36.970    473.327    514.154    -40.827    510.032    513.912    510.032    510.275    510.032
 37.070    531.820    514.316     17.504    509.850    514.074    509.850    510.093    509.850
 37.170    527.000    514.947     12.053    509.669    514.704    509.669    509.913    509.669
 37.270    492.000    516.413    -24.413    509.490    516.169    509.490    509.734    509.490
 37.370    507.901    519.040    -11.139    509.312    518.796    509.312    509.557    509.312
 37.470    485.892    522.759    -36.867    509.136    522.515    509.136    509.382    509.136
 37.570    527.610    526.711      0.899    508.961    526.467    508.961    509.208    508.961
 37.670    525.000    529.213     -4.213    508.787    528.969    508.787    509.035    508.787
 37.770    523.000    528.858     -5.858    508.615    528.615    508.615    508.865    508.615
 37.870    493.868    526.009    -32.141    508.445    525.768    508.445    508.696    508.445
 37.970    523.000    522.210      0.790    508.276    521.968    508.276    508.528    508.276
 38.070    558.931    518.657     40.274    508.109    518.415    508.109    508.362    508.109
 38.170    504.000    515.810    -11.810    507.943    515.565    507.943    508.198    507.943
 38.270    485.000    513.740    -28.740    507.779    513.491    507.779    508.035    507.779
 38.370    475.000    512.338    -37.338    507.616    512.084    507.616    507.873    507.616
 38.470    442.000    511.423    -69.423    507.454    511.166    507.454    507.714    507.454
 38.570    483.000    510.829    -27.829    507.295    510.569    507.295    507.556    507.295
 38.670    485.000    510.427    -25.427    507.136    510.165    507.136    507.399    507.136
 38.770    500.000    510.132    -10.132    506.979    509.867    506.979    507.244    506.979
 38.870    523.000    509.892     13.108    506.824    509.626    506.824    507.091    506.824
 38.970    503.000    509.683     -6.683    506.670    509.415    506.670    506.939    506.670
 39.070    504.000    509.494     -5.494    506.518    509.223    506.518    506.789    506.518
 39.170    520.000    509.319     10.681    506.367    509.046    506.367    506.641    506.367
 39.270    520.000    509.155     10.845    506.218    508.880    506.218    506.494    506.218
 39.370    534.265    509.001     25.264    506.070    508.723    506.070    506.348    506.070
 39.470    527.000    508.856     18.144    505.924    508.576    505.924    506.205    505.924
 39.570    510.000    508.720      1.280    505.779    508.437    505.779    506.062    505.779
 39.670    498.335    508.591    -10.255    505.636    508.305    505.636    505.922    505.636
 39.770    501.000    508.469     -7.469    505.494    508.181    505.494    505.783    505.494
 39.870    520.468    508.355     12.114    505.354    508.064    505.354    505.645    505.354
 39.970    470.490    508.248    -37.758    505.216    507.954    505.216    505.510    505.216
 40.070    497.291    508.149    -10.858    505.078    507.852    505.078    505.376    505.078
 40.170    487.000    508.058    -21.058    504.943    507.758    504.943    505.243    504.943
 40.270    471.000    507.976    -36.976    504.809    507.673    504.809    505.112    504.809
 40.370    496.000    507.903    -11.903    504.676    507.597    504.676    504.983    504.676
 40.470    501.000    507.841     -6.841    504.545    507.531    504.545    504.855    504.545
 40.570    475.121    507.790    -32.668    504.415    507.476    504.415    504.729    504.415
 40.670    487.119    507.752    -20.633    504.287    507.435    504.287    504.605    504.287
 40.770    528.000    507.729     20.271    504.161    507.409    504.161    504.482    504.161
 40.870    486.000    507.725    -21.725    504.036    507.400    504.036    504.361    504.036
 40.970    534.000    507.741     26.259    503.912    507.412    503.912    504.241    503.912
 41.070    519.077    507.783     11.294    503.790    507.450    503.790    504.123    503.790
 41.170    514.000    507.856      6.144    503.669    507.519    503.669    504.007    503.669
 41.270    477.000    507.967    -30.967    503.550    507.626    503.550    503.892    503.550
 41.370    495.000    508.129    -13.129    503.433    507.783    503.433    503.779    503.433
 41.470    482.697    508.354    -25.657    503.317    508.004    503.317    503.668    503.317
 41.570    469.244    508.667    -39.423    503.202    508.312    503.202    503.558    503.202
 41.670    522.000    509.109     12.891    503.089    508.749    503.089    503.450    503.089
 41.770    483.000    509.771    -26.771    502.977    509.407    502.977    503.344    502.977
 41.870    548.160    510.883     37.277    502.867    510.514    502.867    503.239    502.867
 41.970    484.000    512.986    -28.986    502.759    512.612    502.759    503.136    502.759
 42.070    504.000    517.197    -13.197    502.651    516.820    502.651    503.034    502.651
 42.170    567.000    525.360     41.640    502.546    524.980    502.546    502.935    502.546
 42.270    512.000    539.659    -27.659    502.442    539.279    502.442    502.837    502.442
 42.370    577.000    561.317     15.683    502.339    560.942    502.339    502.741    502.339
 42.470    570.000    588.602    -18.602    502.238    588.234    502.238    502.646    502.238
 42.570    585.119    615.092    -29.973    502.138    614.732    502.138    502.553    502.138
 42.670    608.000    630.290    -22.290    502.040    629.934    502.040    502.462    502.040
 42.770    592.000    626.179    -34.179    501.943    625.817    501.943    502.373    501.943
 42.870    580.000    605.200    -25.200    501.848    604.822    501.848    502.285    501.848
 42.970    578.370    577.354      1.016    501.754    576.953    501.754    502.200    501.754
 43.070    586.382    551.769     34.613    501.662    551.345    501.662    502.116    501.662
 43.170    562.666    532.899     29.766    501.571    532.455    501.571    502.033    501.571
 43.270    511.887    521.095     -9.208    501.481    520.634    501.481    501.953    501.481
 43.370    550.904    514.578     36.326    501.393    514.103    501.393    501.874    501.393
 43.470    514.000    511.221      2.779    501.307    510.734    501.307    501.798    501.307
 43.570    505.570    509.470     -3.900    501.222    508.972    501.222    501.723    501.222
 43.670    508.000    508.460     -0.460    501.138    507.950    501.138    501.650    501.138
 43.770    509.607    507.794      1.812    501.056    507.273    501.056    501.579    501.056
 43.870    464.000    507.309    -43.309    500.975    506.775    500.975    501.510    500.975
 43.970    470.611    506.935    -36.325    500.896    506.389    500.896    501.443    500.896
 44.070    487.000    506.641    -19.641    500.818    506.082    500.818    501.378    500.818
 44.170    515.000    506.408      8.592    500.742    505.835    500.742    501.315    500.742
 44.270    514.000    506.222      7.778    500.667    505.635    500.667    501.254    500.667
 44.370    521.000    506.075     14.925    500.593    505.473    500.593    501.196    500.593
 44.470    488.581    505.959    -17.379    500.521    505.342    500.521    501.139    500.521
 44.570    520.000    505.871     14.129    500.450    505.237    500.450    501.085    500.450
 44.670    462.000    505.807    -43.807    500.381    505.155    500.381    501.033    500.381
 44.770    506.000    505.763      0.237    500.313    505.093    500.313    500.983    500.313
 44.870    509.000    505.739      3.261    500.247    505.050    500.247    500.936    500.247
 44.970    502.000    505.732     -3.732    500.182    505.022    500.182    500.892    500.182
 45.070    532.549    505.742     26.807    500.118    505.011    500.118    500.850    500.118
 45.170    490.271    505.769    -15.497    500.056    505.014    500.056    500.811    500.056
 45.270    523.000    505.811     17.189    499.995    505.032    499.995    500.774    499.995
 45.370    516.000    505.870     10.130    499.936    505.065    499.936    500.741    499.936
 45.470    520.425    505.945     14.479    499.878    505.112    499.878    500.711    499.878
 45.570    513.558    506.038      7.520    499.821    505.175    499.821    500.684    499.821
 45.670    523.000    506.149     16.851    499.766    505.254    499.766    500.660    499.766
 45.770    463.944    506.279    -42.335    499.712    505.351    499.712    500.640    499.712
 45.870    491.000    506.431    -15.431    499.659    505.466    499.659    500.624    499.659
 45.970    525.000    506.607     18.393    499.608    505.602    499.608    500.613    499.608
 46.070    520.377    506.808     13.569    499.558    505.761    499.558    500.605    499.558
 46.170    538.928    507.039     31.889    499.510    505.946    499.510    500.603    499.510
 46.270    502.479    507.304     -4.825    499.463    506.161    499.463    500.605    499.463
 46.370    509.841    507.609      2.232    499.417    506.412    499.417    500.614    499.417
 46.470    514.000    507.960      6.040    499.373    506.704    499.373    500.628    499.373
 46.570    476.000    508.366    -32.366    499.330    507.045    499.330    500.650    499.330
 46.670    517.000    508.844      8.156    499.288    507.453    499.288    500.679    499.288
 46.770    517.815    509.420      8.395    499.248    507.951    499.248    500.716    499.248
 46.870    478.000    510.143    -32.143    499.209    508.588    499.209    500.763    499.209
 46.970    553.000    511.130     41.870    499.171    509.479    499.171    500.820    499.171
 47.070    461.000    512.641    -51.641    499.135    510.883    499.135    500.889    499.135
 47.170    544.000    515.191     28.809    499.100    513.314    499.100    500.972    499.100
 47.270    565.000    519.643     45.357    499.066    517.630    499.066    501.071    499.066
 47.370    487.000    527.115    -40.115    499.033    524.948    499.033    501.188    499.033
 47.470    498.108    538.546    -40.437    499.002    536.200    499.002    501.326    499.002
 47.570    509.334    553.903    -44.569    498.972    551.354    498.972    501.489    498.972
 47.670    614.209    571.330     42.880    498.944    568.546    498.944    501.682    498.944
 47.770    610.522    586.674     23.848    498.917    583.625    498.917    501.911    498.917
 47.870    612.000    594.391     17.609    498.891    591.041    498.891    502.183    498.891
 47.970    599.000    591.191      7.809    498.866    587.496    498.866    502.508    498.866
 48.070    592.000    579.326     12.674    498.842    575.227    498.842    502.900    498.842
 48.170    557.000    564.198     -7.198    498.820    559.610    498.820    503.378    498.820
 48.270    552.000    550.480      1.520    498.799    545.284    498.799    503.974    498.799
 48.370    534.000    540.667     -6.667    498.780    534.692    498.780    504.742    498.780
 48.470    497.000    535.313    -38.313    498.761    528.290    498.761    505.776    498.761
 48.570    514.000    533.870    -19.870    498.744    525.365    498.744    507.244    498.744
 48.670    501.000    535.568    -34.568    498.728    524.867    498.728    509.425    498.728
 48.770    535.077    539.987     -4.909    498.714    525.948    498.714    512.747    498.714
 48.870    520.000    547.231    -27.231    498.700    528.133    498.700    517.794    498.700
 48.970    577.321    557.833     19.488    498.688    531.286    498.688    525.228    498.688
 49.070    609.000    572.538     36.462    498.677    535.581    498.677    535.626    498.677
 49.170    583.000    592.191     -9.191    498.667    541.661    498.667    549.187    498.667
 49.270    661.526    617.996     43.529    498.658    551.277    498.658    565.365    498.658
 49.370    667.951    652.614     15.337    498.651    568.839    498.651    582.406    498.651
 49.470    701.000    702.573     -1.573    498.645    604.197    498.645    596.989    498.645
 49.570    749.763    782.061    -32.297    498.640    675.882    498.640    604.767    498.640
 49.670    920.000    915.913      4.087    498.636    811.685    498.636    602.780    498.636
 49.770   1162.000   1134.681     27.319    498.633   1041.308    498.633    591.881    498.633
 49.870   1515.987   1455.309     60.679    498.632   1377.857    498.632    575.920    498.632
 49.970   1912.619   1853.759     58.860    498.631   1793.250    498.631    558.964    498.631
 50.070   2296.000   2247.431     48.569    498.632   2202.225    498.632    543.699    498.632
 50.170   2554.000   2507.899     46.101    498.634   2475.129    498.634    531.361    498.634
 50.270   2459.000   2522.950    -63.950    498.637   2499.502    498.637    522.167    498.637
 50.370   2308.000   2281.232     26.768    498.641   2264.312    498.641    515.735    498.641
 50.470   1854.000   1883.568    -29.568    498.647   1870.987    498.647    511.432    498.647
 50.570   1435.843   1463.454    -27.611    498.653   1453.678    498.653    508.613    498.653
 50.670   1078.049   1115.895    -37.846    498.661   1107.942    498.661    506.754    498.661
 50.770    733.000    877.575   -144.575    498.670    870.854    498.670    505.487    498.670
 50.870    711.000    739.222    -28.222    498.680    733.387    498.680    504.580    498.680
 50.970    674.680    669.747      4.933    498.690    664.588    498.690    503.898    498.690
 51.070    608.000    636.819    -28.819    498.703    632.198    498.703    503.364    498.703
 51.170    671.000    617.541     53.459    498.716    613.358    498.716    502.935    498.716
 51.270    560.760    600.784    -40.025    498.730    596.961    498.730    502.584    498.730
 51.370    612.000    584.087     27.913    498.745    580.561    498.745    502.295    498.745
 51.470    565.000    568.643     -3.643    498.762    565.367    498.762    502.055    498.762
 51.570    599.000    555.947     43.053    498.779    552.882    498.779    501.855    498.779
 51.670    526.191    546.646    -20.454    498.797    543.762    498.797    501.689    498.797
 51.770    534.000    540.527     -6.527    498.817    537.797    498.817    501.552    498.817
 51.870    529.116    536.906     -7.790    498.838    534.310    498.838    501.438    498.838
 51.970    520.903    535.041    -14.138    498.859    532.559    498.859    501.345    498.859
 52.070    545.000    534.375     10.625    498.882    531.989    498.882    501.270    498.882
 52.170    514.000    534.607    -20.607    498.905    532.305    498.905    501.210    498.905
 52.270    576.000    535.678     40.322    498.930    533.446    498.930    501.164    498.930
 52.370    553.000    537.785     15.215    498.956    535.612    498.956    501.130    498.956
 52.470    506.560    541.530    -34.970    498.982    539.407    498.982    501.106    498.982
 52.570    577.125    548.284     28.841    499.010    546.202    499.010    501.093    499.010
 52.670    622.000    560.758     61.242    499.039    558.708    499.039    501.089    499.039
 52.770    620.000    583.596     36.404    499.068    581.571    499.068    501.093    499.068
 52.870    653.000    623.422     29.578    499.099    621.415    499.099    501.104    499.099
 52.970    638.602    687.542    -48.939    499.130    685.546    499.130    501.123    499.130
 53.070    782.000    780.747      1.253    499.163    778.758    499.163    501.149    499.163
 53.170    851.716    900.717    -49.002    499.196    898.732    499.196    501.181    499.196
 53.270   1043.000   1033.627      9.373    499.231   1031.643    499.231    501.219    499.231
 53.370   1188.289   1152.235     36.054    499.266   1150.253    499.266    501.263    499.266
 53.470   1190.000   1220.935    -30.935    499.302   1218.953    499.302    501.313    499.302
 53.570   1196.112   1213.646    -17.534    499.340   1211.657    499.340    501.368    499.340
 53.670   1152.226   1133.648     18.578    499.378   1131.643    499.378    501.430    499.378
 53.770   1015.000   1010.543      4.457    499.417   1008.508    499.417    501.497    499.417
 53.870    889.000    879.080      9.920    499.457    877.005    499.457    501.570    499.457
 53.970    772.000    764.039      7.961    499.497    761.917    499.497    501.649    499.497
 54.070    634.771    676.872    -42.101    499.539    674.698    499.539    501.733    499.539
 54.170    626.000    618.242      7.758    499.582    616.012    499.582    501.824    499.582
 54.270    588.000    582.605      5.395    499.625    580.317    499.625    501.921    499.625
 54.370    558.000    562.633     -4.633    499.669    560.282    499.669    502.025    499.669
 54.470    556.000    552.036      3.964    499.715    549.618    499.715    502.136    499.715
 54.570    539.932    546.560     -6.628    499.761    544.069    499.761    502.254    499.761
 54.670    588.392    543.780     44.611    499.807    541.210    499.807    502.379    499.807
 54.770    607.000    542.490     64.510    499.855    539.834    499.855    502.513    499.855
 54.870    589.000    542.149     46.851    499.904    539.398    499.904    502.656    499.904
 54.970    529.091    542.535    -13.443    499.953    539.681    499.953    502.808    499.953
 55.070    557.000    543.567     13.433    500.003    540.602    500.003    502.970    500.003
 55.170    538.302    545.240     -6.938    500.054    542.152    500.054    503.143    500.054
 55.270    586.000    547.593     38.407    500.106    544.372    500.106    503.328    500.106
 55.370    547.608    550.714     -3.105    500.158    547.347    500.158    503.526    500.158
 55.470    560.000    554.761      5.239    500.211    551.235    500.211    503.738    500.211
 55.570    568.000    560.035      7.965    500.266    556.335    500.266    503.966    500.266
 55.670    564.000    567.160     -3.160    500.320    563.269    500.320    504.212    500.320
 55.770    564.861    577.501    -12.640    500.376    573.399    500.376    504.477    500.376
 55.870    622.000    593.994     28.006    500.432    589.660    500.432    504.764    500.432
 55.970    640.000    622.498     17.502    500.489    617.907    500.489    505.076    500.489
 56.070    681.000    673.438      7.562    500.547    668.560    500.547    505.414    500.547
 56.170    766.000    762.780      3.220    500.606    757.581    500.606    505.784    500.606
 56.270    963.883    910.556     53.326    500.665    904.998    500.665    506.190    500.665
 56.370   1194.298   1135.119     59.179    500.725   1129.161    500.725    506.636    500.725
 56.470   1478.401   1442.886     35.515    500.785   1436.487    500.785    507.128    500.785
 56.570   1698.000   1816.368   -118.368    500.847   1809.490    500.847    507.675    500.847
 56.670   2064.000   2205.420   -141.420    500.909   2198.024    500.909    508.284    500.909
 56.770   2530.000   2527.477      2.523    500.971   2519.522    500.971    508.967    500.971
 56.870   2751.209   2687.839     63.370    501.035   2679.263    501.035    509.736    501.035
 56.970   2613.000   2629.585    -16.585    501.099   2620.289    501.099    510.607    501.099
 57.070   2396.000   2375.962     20.038    501.163   2365.788    501.163    511.602    501.163
 57.170   2045.200   2010.803     34.397    501.228   1999.556    501.228    512.747    501.228
 57.270   1611.000   1625.794    -14.794    501.294   1613.250    501.294    514.079    501.294
 57.370   1294.443   1287.072      7.371    501.361   1272.971    501.361    515.651    501.361
 57.470   1075.859   1026.991     48.868    501.428   1011.004    501.428    517.548    501.428
 57.570    796.672    849.359    -52.687    501.496    831.028    501.496    519.912    501.496
 57.670    748.396    740.664      7.731    501.564    719.296    501.564    522.983    501.564
 57.770    666.994    681.811    -14.817    501.633    656.303    501.633    527.167    501.633
 57.870    681.000    656.362     24.638    501.703    624.961    501.703    533.115    501.703
 57.970    681.462    654.152     27.310    501.773    614.123    501.773    541.801    501.773
 58.070    692.000    671.452     20.548    501.843    618.724    501.843    554.560    501.843
 58.170    757.948    709.143     48.805    501.915    638.029    501.915    573.007    501.915
 58.270    760.000    770.293    -10.293    501.986    673.448    501.986    598.797    501.986
 58.370    903.867    857.511     46.357    502.059    726.327    502.059    633.194    502.059
 58.470    947.000    970.447    -23.447    502.132    796.033    502.132    676.486    502.132
 58.570   1159.756   1103.731     56.024    502.205    878.566    502.205    727.303    502.205
 58.670   1275.939   1245.913     30.026    502.279    966.244    502.279    781.881    502.279
 58.770   1340.980   1380.510    -39.531    502.353   1049.474    502.353    833.330    502.353
 58.870   1513.077   1489.142     23.935    502.428   1119.867    502.428    871.659    502.428
 58.970   1553.000   1554.834     -1.834    502.504   1170.788    502.504    886.525    502.504
 59.070   1541.666   1566.059    -24.393    502.580   1195.494    502.580    873.143    502.580
 59.170   1521.000   1522.568     -1.568    502.656   1189.323    502.656    835.918    502.656
 59.270   1403.000   1437.992    -34.992    502.733   1155.694    502.733    785.055    502.733
 59.370   1279.999   1334.742    -54.743    502.810   1106.938    502.810    730.629    502.810
 59.470   1287.000   1235.368     51.632    502.888   1058.558    502.888    679.692    502.888
 59.570   1221.000   1158.443     62.557    502.966   1025.221    502.966    636.147    502.966
 59.670   1080.000   1119.353    -39.353    503.045   1020.845    503.045    601.469    503.045
 59.770   1148.138   1129.645     18.493    503.124   1057.196    503.124    575.438    503.124
 59.870   1236.000   1192.307     43.693    503.203   1138.494    503.203    556.825    503.203
 59.970   1354.000   1296.979     57.021    503.283   1256.032    503.283    543.985    503.283
 60.070   1440.000   1418.472     21.528    503.363   1386.256    503.363    535.294    503.363
 60.170   1454.206   1519.524    -65.318    503.444   1493.266    503.444    529.405    503.444
 60.270   1495.140   1560.626    -65.486    503.525   1538.554    503.525    525.324    503.525
 60.370   1579.000   1518.756     60.244    503.606   1499.755    503.606    522.389    503.606
 60.470   1459.000   1401.465     57.535    503.688   1384.816    503.688    520.186    503.688
 60.570   1329.000   1239.433     89.567    503.770   1224.639    503.770    518.473    503.770
 60.670   1189.000   1067.850    121.150    503.853   1054.546    503.853    517.110    503.853
 60.770    944.000    913.863     30.137    503.936    901.757    503.936    516.022    503.936
 60.870    786.000    792.421     -6.421    504.019    781.266    504.019    515.168    504.019
 60.970    736.700    707.300     29.400    504.102    696.871    504.102    514.528    504.102
 61.070    675.000    654.967     20.033    504.186    645.052    504.186    514.095    504.186
 61.170    675.808    629.341     46.467    504.270    619.733    504.270    513.867    504.270
 61.270    577.190    625.686    -48.496    504.354    616.182    504.354    513.840    504.354
 61.370    704.000    642.707     61.293    504.439    633.118    504.439    513.997    504.439
 61.470    654.661    682.708    -28.047    504.524    672.876    504.524    514.308    504.524
 61.570    767.000    749.992     17.008    504.609    739.818    504.609    514.711    504.609
 61.670    799.896    847.839    -47.943    504.695    837.320    504.695    515.113    504.695
 61.770   1013.471    974.749     38.722    504.780    964.010    504.780    515.386    504.780
 61.870   1074.000   1121.068    -47.068    504.866   1110.374    504.866    515.398    504.866
 61.970   1238.000   1267.274    -29.274    504.953   1256.968    504.953    515.080    504.953
 62.070   1343.984   1385.230    -41.246    505.039   1375.629    505.039    514.461    505.039
 62.170   1443.000   1444.907     -1.907    505.126   1436.226    505.126    513.653    505.126
 62.270   1423.000   1428.057     -5.057    505.213   1420.379    505.213    512.779    505.213
 62.370   1322.000   1339.709    -17.709    505.300   1333.007    505.300    511.938    505.300
 62.470   1200.954   1204.559     -3.605    505.387   1198.731    505.387    511.188    505.387
 62.570    987.000   1053.001    -66.001    505.474   1047.914    505.474    510.561    505.474
 62.670    943.585    910.098     33.487    505.562    905.611    505.562    510.061    505.562
 62.770    712.000    791.251    -79.251    505.650    787.235    505.650    509.681    505.650
 62.870    659.000    702.185    -43.185    505.738    698.535    505.738    509.401    505.738
 62.970    668.399    641.293     27.107    505.826    637.925    505.826    509.202    505.826
 63.070    614.822    602.945     11.877    505.914    599.801    505.914    509.062    505.914
 63.170    584.109    580.527      3.582    506.002    577.563    506.002    508.966    506.002
 63.270    550.000    568.392    -18.392    506.091    565.578    506.091    508.902    506.091
 63.370    602.142    562.678     39.464    506.180    559.994    506.180    508.859    506.180
 63.470    531.826    561.353    -29.527    506.268    558.782    506.268    508.833    506.268
 63.570    567.000    563.953      3.047    506.357    561.482    506.357    508.819    506.357
 63.670    541.333    571.304    -29.971    506.446    568.921    506.446    508.816    506.446
 63.770    650.000    585.270     64.730    506.535    582.965    506.535    508.821    506.535
 63.870    602.000    608.409     -6.409    506.624    606.171    506.624    508.833    506.624
 63.970    684.000    643.358     40.642    506.713    641.177    506.713    508.852    506.713
 64.070    655.717    691.884    -36.167    506.802    689.752    506.802    508.875    506.802
 64.170    744.000    753.709     -9.709    506.892    751.616    506.892    508.904    506.892
 64.270    830.718    825.378      5.340    506.981    823.320    506.981    508.938    506.981
 64.370    879.846    899.555    -19.709    507.070    897.529    507.070    508.977    507.070
 64.470    966.887    965.262      1.626    507.159    963.274    507.159    509.020    507.159
 64.570    952.564   1010.206    -57.642    507.249   1008.263    507.249    509.066    507.249
 64.670   1003.000   1025.564    -22.564    507.338   1023.675    507.338    509.115    507.338
 64.770   1058.000   1009.922     48.078    507.427   1008.094    507.427    509.168    507.427
 64.870    955.000    968.837    -13.837    507.517    967.071    507.517    509.223    507.517
 64.970    962.000    911.829     50.171    507.606    910.123    507.606    509.282    507.606
 65.070    829.000    849.237    -20.237    507.695    847.583    507.695    509.342    507.695
 65.170    815.000    789.359     25.641    507.784    787.750    507.784    509.405    507.784
 65.270    763.000    736.869     26.131    507.874    735.295    507.874    509.471    507.874
 65.370    661.000    693.099    -32.099    507.963    691.552    507.963    509.538    507.963
 65.470    678.332    657.533     20.799    508.052    656.005    508.052    509.608    508.052
 65.570    614.000    629.166    -15.166    508.141    627.652    508.141    509.679    508.141
 65.670    622.000    607.024     14.976    508.230    605.520    508.230    509.753    508.230
 65.770    542.000    590.184    -48.184    508.318    588.688    508.318    509.828    508.318
 65.870    579.708    577.798      1.910    508.407    576.309    508.407    509.904    508.407
 65.970    605.632    569.109     36.524    508.496    567.625    508.496    509.983    508.496
 66.070    544.000    563.447    -19.447    508.584    561.969    508.584    510.063    508.584
 66.170    546.268    560.224    -13.956    508.672    558.752    508.672    510.145    508.672
 66.270    533.000    558.947    -25.947    508.761    557.479    508.761    510.228    508.761
 66.370    546.000    559.242    -13.242    508.849    557.778    508.849    510.313    508.849
 66.470    543.600    560.901    -17.301    508.937    559.439    508.937    510.399    508.937
 66.570    595.000    563.934     31.066    509.024    562.473    509.024    510.487    509.024
 66.670    574.000    568.680      5.320    509.112    567.217    509.112    510.576    509.112
 66.770    540.000    576.000    -36.000    509.199    574.534    509.199    510.667    509.199
 66.870    568.000    587.621    -19.621    509.287    586.148    509.287    510.760    509.287
 66.970    559.000    606.625    -47.625    509.374    605.144    509.374    510.854    509.374
 67.070    605.000    638.006    -33.006    509.461    636.514    509.461    510.949    509.461
 67.170    701.618    689.038     12.580    509.547    687.532    509.547    511.047    509.547
 67.270    770.000    769.071      0.929    509.634    767.547    509.634    511.146    509.634
 67.370    872.438    888.259    -15.820    509.720    886.716    509.720    511.247    509.720
 67.470    930.000   1054.959   -124.959    509.806   1053.399    509.806    511.349    509.806
 67.570   1307.000   1271.990     35.010    509.892   1270.417    509.892    511.454    509.892
 67.670   1515.000   1532.582    -17.582    509.977   1531.007    509.977    511.561    509.977
 67.770   1806.493   1817.271    -10.778    510.062   1815.706    510.062    511.669    510.062
 67.870   2178.000   2092.913     85.087    510.147   2091.375    510.147    511.780    510.147
 67.970   2359.107   2315.360     43.747    510.232   2313.860    510.232    511.894    510.232
 68.070   2502.000   2438.826     63.174    510.316   2437.369    510.316    512.010    510.316
 68.170   2350.884   2433.280    -82.396    510.400   2431.854    510.400    512.128    510.400
 68.270   2256.000   2300.253    -44.253    510.484   2298.828    510.484    512.250    510.484
 68.370   2060.000   2071.883    -11.883    510.568   2070.421    510.568    512.375    510.568
 68.470   1883.000   1794.326     88.674    510.651   1792.793    510.651    512.503    510.651
 68.570   1456.297   1510.998    -54.702    510.734   1509.370    510.734    512.635    510.734
 68.670   1312.000   1253.915     58.085    510.816   1252.179    510.816    512.771    510.816
 68.770   1078.890   1041.394     37.495    510.899   1039.546    510.899    512.912    510.899
 68.870    859.000    879.257    -20.257    510.981    877.297    510.981    513.057    510.981
 68.970    743.920    764.066    -20.146    511.062    762.000    511.062    513.208    511.062
 69.070    705.000    687.190     17.810    511.143    685.021    511.143    513.364    511.143
 69.170    654.848    638.467     16.381    511.224    636.197    511.224    513.527    511.224
 69.270    626.000    608.694     17.306    511.304    606.322    511.304    513.697    511.304
 69.370    634.981    590.780     44.200    511.384    588.304    511.384    513.875    511.384
 69.470    563.667    579.896    -16.229    511.464    577.308    511.464    514.062    511.464
 69.570    593.000    573.059     19.941    511.543    570.350    511.543    514.259    511.543
 69.670    596.277    568.574     27.704    511.622    565.734    511.622    514.466    511.622
 69.770    530.193    565.539    -35.346    511.700    562.556    511.700    514.687    511.700
 69.870    567.000    563.496      3.504    511.778    560.357    511.778    514.921    511.778
 69.970    528.000    562.222    -34.222    511.856    558.908    511.856    515.171    511.856
 70.070    549.712    561.610    -11.898    511.933    558.105    511.933    515.440    511.933
 70.170    600.000    561.629     38.371    512.010    557.910    512.010    515.729    512.010
 70.270    618.000    562.304     55.696    512.086    558.347    512.086    516.041    512.086
 70.370    592.000    563.742     28.258    512.162    559.520    512.162    516.382    512.162
 70.470    568.000    566.181      1.819    512.237    561.662    512.237    516.753    512.237
 70.570    591.161    570.089     21.072    512.312    565.234    512.312    517.162    512.312
 70.670    579.000    576.334      2.666    512.386    571.099    512.386    517.614    512.386
 70.770    542.000    586.419    -44.419    512.460    580.750    512.460    518.119    512.460
 70.870    632.000    602.768     29.232    512.533    596.597    512.533    518.687    512.533
 70.970    624.625    628.968     -4.343    512.606    622.212    512.606    519.335    512.606
 71.070    619.000    669.840    -50.840    512.678    662.387    512.678    520.091    512.678
 71.170    682.000    731.113    -49.113    512.750    722.808    512.750    520.996    512.750
 71.270    766.061    818.532    -52.471    512.821    809.150    512.821    522.121    512.821
 71.370    929.103    936.340     -7.238    512.892    925.543    512.892    523.578    512.892
 71.470   1066.000   1085.326    -19.326    512.962   1072.594    512.962    525.551    512.962
 71.570   1201.555   1260.870    -59.315    513.031   1245.412    513.031    528.318    513.031
 71.670   1481.641   1451.556     30.084    513.100   1432.183    513.100    532.279    513.100
 71.770   1597.000   1638.831    -41.831    513.169   1613.821    513.169    537.972    513.169
 71.870   1758.227   1798.325    -40.098    513.237   1765.298    513.237    546.062    513.237
 71.970   1909.400   1904.104      5.296    513.304   1859.947    513.304    557.281    513.304
 72.070   1999.000   1936.852     62.148    513.371   1877.759    513.371    572.320    513.371
 72.170   1925.000   1892.842     32.158    513.437   1814.516    513.437    591.660    513.437
 72.270   1754.000   1786.098    -32.098    513.502   1684.165    513.502    615.369    513.502
 72.370   1642.194   1641.183      1.012    513.567   1511.815    513.567    642.894    513.567
 72.470   1572.000   1483.354     88.646    513.632   1324.081    513.632    672.883    513.632
 72.570   1323.033   1332.296     -9.263    513.695   1142.935    513.695    703.043    513.695
 72.670   1202.000   1199.720      2.280    513.758    983.344    513.758    730.123    513.758
 72.770   1070.000   1089.427    -19.427    513.821    853.035    513.821    750.200    513.821
 72.870    957.000    999.259    -42.259    513.882    753.530    513.882    759.598    513.882
 72.970    936.000    924.374     11.626    513.943    681.954    513.943    756.348    513.943
 73.070    783.000    860.285    -77.285    514.004    633.084    514.004    741.189    514.004
 73.170    764.115    804.214    -40.099    514.064    601.106    514.064    717.158    514.064
 73.270    759.644    754.880      4.764    514.123    580.799    514.123    688.193    514.123
 73.370    746.788    711.847     34.941    514.181    568.097    514.181    657.922    514.181
 73.470    649.021    675.049    -26.027    514.239    560.171    514.239    629.111    514.239
 73.570    629.007    644.503    -15.496    514.296    555.240    514.296    603.556    514.296
 73.670    591.000    620.115    -29.115    514.352    552.284    514.352    582.183    514.352
 73.770    576.541    601.563    -25.022    514.408    550.772    514.408    565.203    514.408
 73.870    564.000    588.279    -24.279    514.463    550.440    514.463    552.309    514.463
 73.970    552.054    579.502    -27.448    514.517    551.138    514.517    542.894    514.517
 74.070    590.000    574.352     15.648    514.570    552.712    514.570    536.227    514.570
 74.170    609.000    571.903     37.097    514.623    554.946    514.623    531.605    514.623
 74.270    601.484    571.233     30.251    514.675    557.516    514.675    528.422    514.675
 74.370    585.398    571.443     13.954    514.726    559.992    514.726    526.214    514.726
 74.470    659.000    571.695     87.305    514.777    561.869    514.777    524.645    514.777
 74.570    628.000    571.280     56.720    514.827    562.662    514.827    523.489    514.827
 74.670    638.000    569.749     68.251    514.875    562.068    514.875    522.602    514.875
 74.770    629.000    567.026     61.974    514.924    560.098    514.924    521.894    514.924
 74.870    586.276    563.384     22.893    514.971    557.082    514.971    521.312    514.971
 74.970    619.000    559.304     59.696    515.018    553.533    515.018    520.821    515.018
 75.070    616.000    555.327     60.673    515.064    550.015    515.064    520.401    515.064
 75.170    582.000    551.973     30.027    515.109    547.062    515.109    520.039    515.109
 75.270    591.000    549.732     41.268    515.153    545.175    515.153    519.723    515.153
 75.370    553.666    549.080      4.586    515.196    544.836    515.196    519.448    515.196
 75.470    570.000    550.512     19.488    515.239    546.548    515.239    519.205    515.239
 75.570    558.022    554.556      3.466    515.281    550.841    515.281    518.992    515.281
 75.670    539.279    561.750    -22.471    515.322    558.258    515.322    518.804    515.322
 75.770    548.000    572.560    -24.560    515.362    569.269    515.362    518.637    515.362
 75.870    625.465    587.241     38.224    515.401    584.129    515.401    518.489    515.401
 75.970    622.000    605.655     16.345    515.440    602.704    515.440    518.358    515.440
 76.070    625.000    627.098     -2.098    515.477    624.294    515.477    518.241    515.477
 76.170    623.000    650.188    -27.188    515.514    647.515    515.514    518.136    515.514
 76.270    681.000    672.828      8.172    515.550    670.278    515.550    518.043    515.550
 76.370    724.000    692.326     31.674    515.585    689.889    515.585    517.960    515.585
 76.470    711.230    705.732      5.498    515.619    703.402    515.619    517.885    515.619
 76.570    705.000    710.577     -5.577    515.653    708.350    515.653    517.818    515.653
 76.670    727.000    705.830     21.170    515.685    703.701    515.685    517.758    515.685
 76.770    662.000    692.399    -30.399    515.717    690.364    515.717    517.704    515.717
 76.870    674.968    672.679      2.290    515.747    670.733    515.747    517.655    515.747
 76.970    667.139    649.596     17.543    515.777    647.732    515.777    517.612    515.777
 77.070    644.000    625.855     18.145    515.806    624.067    515.806    517.572    515.806
 77.170    588.000    603.563    -15.563    515.834    601.846    515.834    517.537    515.834
 77.270    561.434    584.109    -22.674    515.861    582.455    515.861    517.504    515.861
 77.370    532.401    568.172    -35.771    515.887    566.577    515.887    517.475    515.887
 77.470    545.000    555.837    -10.837    515.912    554.297    515.912    517.449    515.912
 77.570    534.000    546.767    -12.767    515.936    545.276    515.936    517.425    515.936
 77.670    547.925    540.391      7.535    515.960    538.945    515.960    517.404    515.960
 77.770    575.638    536.073     39.565    515.982    534.670    515.982    517.384    515.982
 77.870    508.000    533.226    -25.226    516.004    531.863    516.004    517.366    516.004
 77.970    532.000    531.377      0.623    516.024    530.051    516.024    517.349    516.024
 78.070    509.000    530.174    -21.174    516.044    528.882    516.044    517.334    516.044
 78.170    541.000    529.377     11.623    516.062    528.118    516.062    517.321    516.062
 78.270    487.351    528.834    -41.484    516.080    527.606    516.080    517.308    516.080
 78.370    488.931    528.441    -39.510    516.097    527.241    516.097    517.296    516.097
 78.470    487.000    528.162    -41.162    516.112    526.988    516.112    517.285    516.112
 78.570    528.000    528.009     -0.009    516.127    526.860    516.127    517.275    516.127
 78.670    517.000    527.956    -10.956    516.141    526.829    516.141    517.266    516.141
 78.770    506.000    528.008    -22.008    516.154    526.903    516.154    517.258    516.154
 78.870    535.000    528.185      6.815    516.165    527.098    516.165    517.251    516.165
 78.970    540.000    528.511     11.489    516.176    527.441    516.176    517.246    516.176
 79.070    519.124    529.019     -9.894    516.186    527.962    516.186    517.242    516.186
 79.170    560.000    529.739     30.261    516.195    528.692    516.195    517.240    516.195
 79.270    523.000    530.704     -7.704    516.202    529.663    516.202    517.241    516.202
 79.370    543.000    531.941     11.059    516.209    530.902    516.209    517.246    516.209
 79.470    529.711    533.478     -3.766    516.215    532.434    516.215    517.255    516.215
 79.570    525.791    535.345     -9.554    516.220    534.289    516.220    517.272    516.220
 79.670    526.300    537.592    -11.292    516.223    536.515    516.223    517.295    516.223
 79.770    519.000    540.300    -21.300    516.226    539.194    516.226    517.327    516.226
 79.870    513.000    543.611    -30.611    516.228    542.466    516.228    517.367    516.228
 79.970    565.000    547.751     17.249    516.228    546.558    516.228    517.417    516.228
 80.070    505.000    553.055    -48.055    516.228    551.805    516.228    517.474    516.228
 80.170    525.000    559.970    -34.970    516.227    558.657    516.227    517.537    516.227
 80.270    565.131    569.002     -3.871    516.224    567.624    516.224    517.601    516.224
 80.370    621.603    580.621     40.982    516.220    579.180    516.220    517.663    516.220
 80.470    582.384    595.134    -12.750    516.216    593.640    516.216    517.715    516.216
 80.570    614.763    612.575      2.188    516.210    611.043    516.210    517.751    516.210
 80.670    599.000    632.614    -33.614    516.204    631.068    516.204    517.763    516.204
 80.770    641.000    654.507    -13.507    516.196    652.976    516.196    517.747    516.196
 80.870    686.732    677.122      9.610    516.187    675.632    516.187    517.703    516.187
 80.970    683.000    699.050    -16.050    516.177    697.625    516.177    517.635    516.177
 81.070    743.128    718.819     24.309    516.166    717.474    516.166    517.551    516.166
 81.170    756.000    735.085     20.915    516.154    733.831    516.154    517.456    516.154
 81.270    776.481    746.761     29.719    516.141    745.598    516.141    517.358    516.141
 81.370    762.000    753.100      8.900    516.127    752.025    516.127    517.262    516.127
 81.470    839.000    753.789     85.211    516.112    752.794    516.112    517.171    516.112
 81.570    706.634    748.965    -42.331    516.095    748.041    516.095    517.087    516.095
 81.670    714.000    739.159    -25.159    516.078    738.295    516.078    517.012    516.078
 81.770    683.273    725.261    -41.987    516.059    724.446    516.059    516.945    516.059
 81.870    720.226    708.476     11.750    516.040    707.699    516.040    516.886    516.040
 81.970    658.515    690.162    -31.647    516.019    689.415    516.019    516.834    516.019
 82.070    738.000    671.544     66.456    515.997    670.819    515.997    516.787    515.997
 82.170    694.000    653.494     40.506    515.974    652.784    515.974    516.745    515.974
 82.270    650.000    636.480     13.520    515.950    635.781    515.950    516.706    515.950
 82.370    642.000    620.686     21.314    515.925    619.994    515.925    516.669    515.925
 82.470    597.000    606.193     -9.193    515.899    605.505    515.899    516.633    515.899
 82.570    574.000    593.107    -19.107    515.871    592.421    515.871    516.598    515.871
 82.670    531.000    581.592    -50.592    515.843    580.906    515.843    516.563    515.843
 82.770    568.000    571.828     -3.828    515.813    571.140    515.813    516.528    515.813
 82.870    549.329    563.974    -14.645    515.783    563.283    515.783    516.493    515.783
 82.970    479.000    558.151    -79.151    515.751    557.457    515.751    516.457    515.751
 83.070    577.925    554.429     23.496    515.718    553.730    515.718    516.421    515.718
 83.170    541.000    552.805    -11.805    515.684    552.102    515.684    516.384    515.684
 83.270    576.000    553.185     22.815    515.649    552.477    515.649    516.346    515.649
 83.370    551.000    555.360     -4.360    515.612    554.647    515.612    516.308    515.612
 83.470    562.000    558.996      3.004    515.575    558.277    515.575    516.269    515.575
 83.570    587.344    563.632     23.713    515.536    562.908    515.536    516.229    515.536
 83.670    528.420    568.693    -40.273    515.497    567.964    515.497    516.188    515.497
 83.770    555.000    573.519    -18.519    515.456    572.786    515.456    516.147    515.456
 83.870    555.000    577.415    -22.415    515.414    576.679    515.414    516.104    515.414
 83.970    531.000    579.744    -48.744    515.371    579.008    515.371    516.061    515.371
 84.070    598.700    580.060     18.640    515.327    579.325    515.327    516.017    515.327
 84.170    529.000    578.228    -49.228    515.281    577.496    515.281    515.972    515.281
 84.270    561.000    574.462    -13.462    515.235    573.732    515.235    515.926    515.235
 84.370    512.000    569.232    -57.232    515.187    568.507    515.187    515.879    515.187
 84.470    548.000    563.123    -15.123    515.139    562.401    515.139    515.832    515.139
 84.570    567.000    556.706     10.294    515.089    555.989    515.089    515.783    515.089
 84.670    564.000    550.470     13.530    515.038    549.756    515.038    515.734    515.038
 84.770    541.000    544.778     -3.778    514.986    544.066    514.986    515.683    514.986
 84.870    520.000    539.862    -19.862    514.932    539.151    514.932    515.632    514.932
 84.970    533.000    535.826     -2.826    514.878    535.116    514.878    515.580    514.878
 85.070    561.157    532.673     28.484    514.822    531.962    514.822    515.527    514.822
 85.170    525.000    530.331     -5.331    514.765    529.618    514.765    515.473    514.765
 85.270    487.000    528.686    -41.686    514.708    527.971    514.708    515.418    514.708
 85.370    537.200    527.617      9.584    514.649    526.898    514.649    515.363    514.649
 85.470    533.000    527.011      5.989    514.588    526.289    514.588    515.306    514.588
 85.570    565.000    526.787     38.213    514.527    526.061    514.527    515.249    514.527
 85.670    513.000    526.898    -13.898    514.465    526.167    514.465    515.191    514.465
 85.770    508.000    527.338    -19.338    514.401    526.601    514.401    515.132    514.401
 85.870    515.094    528.145    -13.051    514.336    527.403    514.336    515.072    514.336
 85.970    531.000    529.405      1.595    514.271    528.656    514.271    515.011    514.271
 86.070    507.238    531.244    -24.006    514.203    530.487    514.203    514.949    514.203
 86.170    519.105    533.827    -14.722    514.135    533.061    514.135    514.887    514.135
 86.270    530.416    537.347     -6.931    514.066    536.570    514.066    514.823    514.066
 86.370    529.584    542.000    -12.416    513.996    541.211    513.996    514.759    513.996
 86.470    564.619    547.954     16.664    513.924    547.151    513.924    514.694    513.924
 86.570    546.000    555.340     -9.340    513.851    554.521    513.851    514.629    513.851
 86.670    560.665    564.177     -3.512    513.777    563.340    513.777    514.562    513.777
 86.770    537.552    574.322    -36.770    513.702    573.466    513.702    514.495    513.702
 86.870    607.000    585.459     21.541    513.626    584.582    513.626    514.427    513.626
 86.970    610.000    597.074     12.926    513.549    596.177    513.549    514.358    513.549
 87.070    631.000    608.460     22.540    513.471    607.543    513.471    514.289    513.471
 87.170    635.000    618.749     16.251    513.391    617.813    513.391    514.219    513.391
 87.270    640.000    626.990     13.010    513.310    626.040    513.310    514.148    513.310
 87.370    579.000    632.304    -53.304    513.229    631.343    513.229    514.075    513.229
 87.470    608.000    634.083    -26.083    513.146    633.114    513.146    514.003    513.146
 87.570    678.000    632.169     45.831    513.062    631.196    513.062    513.930    513.062
 87.670    624.000    626.903     -2.903    512.976    625.928    512.976    513.857    512.976
 87.770    620.872    619.018      1.854    512.890    618.042    512.890    513.783    512.890
 87.870    637.000    609.455     27.545    512.803    608.479    512.803    513.709    512.803
 87.970    614.000    599.211     14.789    512.714    598.235    512.714    513.634    512.714
 88.070    622.000    589.227     32.773    512.624    588.250    512.624    513.559    512.624
 88.170    537.797    580.317    -42.520    512.534    579.336    512.534    513.484    512.534
 88.270    576.427    573.120      3.307    512.442    572.133    512.442    513.408    512.442
 88.370    582.000    568.074     13.926    512.349    567.080    512.349    513.332    512.349
 88.470    566.000    565.413      0.587    512.254    564.410    512.254    513.256    512.254
 88.570    548.679    565.166    -16.487    512.159    564.151    512.159    513.180    512.159
 88.670    579.080    567.174     11.906    512.063    566.147    512.063    513.104    512.063
 88.770    580.000    571.109      8.891    511.965    570.068    511.965    513.028    511.965
 88.870    595.000    576.491     18.509    511.867    575.435    511.867    512.952    511.867
 88.970    538.346    582.717    -44.371    511.767    581.645    511.767    512.876    511.767
 89.070    631.000    589.091     41.909    511.666    588.002    511.666    512.800    511.666
 89.170    558.373    594.861    -36.488    511.565    593.752    511.565    512.725    511.565
 89.270    624.536    599.285     25.251    511.462    598.153    511.462    512.651    511.462
 89.370    594.037    601.727     -7.689    511.358    600.569    511.358    512.577    511.358
 89.470    563.596    601.780    -38.184    511.252    600.593    511.252    512.504    511.252
 89.570    583.281    599.362    -16.082    511.146    598.141    511.146    512.432    511.146
 89.670    594.000    594.721     -0.721    511.039    593.461    511.039    512.362    511.039
 89.770    581.000    588.350     -7.350    510.931    587.046    510.931    512.293    510.931
 89.870    569.680    580.857    -11.177    510.821    579.505    510.821    512.226    510.821
 89.970    576.821    572.855      3.966    510.711    571.451    510.711    512.160    510.711
 90.070    530.000    564.884    -34.884    510.599    563.424    510.599    512.098    510.599
 90.170    575.000    557.379     17.621    510.486    555.860    510.486    512.038    510.486
 90.270    523.069    550.651    -27.582    510.373    549.068    510.373    511.981    510.373
 90.370    561.058    544.883     16.175    510.258    543.233    510.258    511.928    510.258
 90.470    548.000    540.149      7.851    510.142    538.426    510.142    511.880    510.142
 90.570    512.569    536.429    -23.860    510.025    534.628    510.025    511.838    510.025
 90.670    497.000    533.641    -36.641    509.907    531.754    509.907    511.802    509.907
 90.770    553.463    531.663     21.800    509.789    529.681    509.789    511.775    509.789
 90.870    536.000    530.331      5.669    509.669    528.243    509.669    511.759    509.669
 90.970    508.000    529.597    -21.597    509.548    527.388    509.548    511.758    509.548
 91.070    527.000    529.360     -2.360    509.426    527.009    509.426    511.776    509.426
 91.170    516.000    529.550    -13.550    509.303    527.032    509.303    511.820    509.303
 91.270    479.000    530.156    -51.156    509.179    527.433    509.179    511.900    509.179
 91.370    541.165    531.209      9.956    509.053    528.234    509.053    512.026    509.053
 91.470    512.000    532.793    -20.793    508.927    529.501    508.927    512.216    508.927
 91.570    533.000    535.034     -2.034    508.800    531.342    508.800    512.488    508.800
 91.670    520.000    538.115    -18.115    508.672    533.910    508.672    512.869    508.672
 91.770    554.159    542.258     11.900    508.543    537.401    508.543    513.391    508.543
 91.870    582.084    547.715     34.369    508.413    542.029    508.413    514.086    508.413
 91.970    559.000    554.751      4.249    508.282    548.026    508.282    514.991    508.282
 92.070    552.776    563.630    -10.854    508.150    555.614    508.150    516.145    508.150
 92.170    614.000    574.576     39.424    508.017    564.984    508.017    517.583    508.017
 92.270    585.933    587.748     -1.815    507.883    576.264    507.883    519.335    507.883
 92.370    596.289    603.202     -6.913    507.749    589.492    507.749    521.419    507.749
 92.470    655.000    620.863     34.137    507.613    604.590    507.613    523.840    507.613
 92.570    660.000    640.500     19.500    507.476    621.343    507.476    526.579    507.476
 92.670    648.000    661.707    -13.707    507.338    639.388    507.338    529.596    507.338
 92.770    679.000    683.903     -4.903    507.200    658.215    507.200    532.821    507.200
 92.870    734.540    706.342     28.199    507.060    677.179    507.060    536.150    507.060
 92.970    712.000    728.179    -16.179    506.920    695.573    506.920    539.448    506.920
 93.070    767.000    748.571     18.429    506.778    712.725    506.778    542.544    506.778
 93.170    820.000    766.795     53.205    506.636    728.112    506.636    545.239    506.636
 93.270    777.993    782.389     -4.396    506.493    741.485    506.493    547.316    506.493
 93.370    794.303    795.193     -0.890    506.348    752.884    506.348    548.578    506.348
 93.470    846.000    805.320     40.680    506.203    762.563    506.203    548.884    506.203
 93.570    815.000    813.080      1.920    506.058    770.878    506.058    548.186    506.058
 93.670    870.405    818.922     51.483    505.911    778.215    505.911    546.547    505.911
 93.770    850.832    823.411     27.421    505.763    784.988    505.763    544.117    505.763
 93.870    775.361    827.230    -51.869    505.615    791.678    505.615    541.101    505.615
 93.970    852.000    831.152     20.848    505.465    798.841    505.465    537.714    505.465
 94.070    806.616    835.933    -29.317    505.315    807.036    505.315    534.151    505.315
 94.170    800.000    842.136    -42.136    505.164    816.662    505.164    530.579    505.164
 94.270    906.000    849.955     56.045    505.012    827.780    505.012    527.130    505.012
 94.370    921.000    859.094     61.906    504.860    839.998    504.860    523.901    504.860
 94.470    933.000    868.749     64.251    504.706    852.446    504.706    520.958    504.706
 94.570    893.897    877.660     16.237    504.552    863.827    504.552    518.338    504.552
 94.670    940.541    884.263     56.278    504.397    872.562    504.397    516.057    504.397
 94.770    946.000    886.911     59.089    504.241    877.011    504.241    514.107    504.241
 94.870    918.000    884.190     33.810    504.084    875.780    504.084    512.469    504.084
 94.970    892.000    875.252     16.748    503.927    868.051    503.927    511.112    503.927
 95.070    842.314    860.041    -17.727    503.769    853.803    503.769    509.999    503.769
 95.170    810.039    839.319    -29.281    503.610    833.836    503.610    509.093    503.610
 95.270    866.000    814.485     51.515    503.450    809.584    503.450    508.356    503.450
 95.370    806.000    787.304     18.696    503.290    782.846    503.290    507.756    503.290
 95.470    793.000    759.727     33.273    503.128    755.603    503.128    507.263    503.128
 95.570    788.000    733.650     54.350    502.966    729.775    502.966    506.853    502.966
 95.670    728.000    710.847     17.153    502.804    707.154    502.804    506.505    502.804
 95.770    737.000    692.918     44.082    502.641    689.358    502.641    506.206    502.641
 95.870    688.522    681.262      7.260    502.476    677.795    502.476    505.943    502.476
 95.970    719.944    677.073     42.871    502.312    673.670    502.312    505.708    502.312
 96.070    713.054    681.352     31.702    502.146    677.988    502.146    505.495    502.146
 96.170    702.000    694.917      7.083    501.980    691.574    501.980    505.300    501.980
 96.270    710.000    718.378     -8.378    501.814    715.039    501.814    505.118    501.814
 96.370    748.000    752.101     -4.101    501.646    748.753    501.646    504.950    501.646
 96.470    748.000    796.133    -48.133    501.478    792.763    501.478    504.792    501.478
 96.570    887.000    850.098     36.902    501.310    846.696    501.310    504.645    501.310
 96.670    866.000    913.088    -47.088    501.141    909.644    501.141    504.507    501.141
 96.770    935.000    983.562    -48.562    500.971    980.067    500.971    504.379    500.971
 96.870   1070.130   1059.284     10.846    500.800   1055.730    500.800    504.260    500.800
 96.970   1080.550   1137.302    -56.753    500.629   1133.683    500.629    504.151    500.629
 97.070   1180.000   1213.991    -33.991    500.458   1210.300    500.458    504.051    500.458
 97.170   1314.333   1285.179     29.154    500.286   1281.409    500.286    503.961    500.286
 97.270   1289.130   1346.393    -57.263    500.113   1342.540    500.113    503.882    500.113
 97.370   1387.473   1393.293     -5.820    499.940   1389.349    499.940    503.813    499.940
 97.470   1354.252   1422.274    -68.022    499.766   1418.231    499.766    503.757    499.766
 97.570   1475.000   1431.121     43.879    499.592   1426.969    499.592    503.713    499.592
 97.670   1438.682   1419.459     19.223    499.417   1415.184    499.417    503.684    499.417
 97.770   1340.665   1388.773    -48.108    499.241   1384.356    499.241    503.670    499.241
 97.870   1334.690   1342.009     -7.319    499.066   1337.430    499.066    503.675    499.066
 97.970   1221.000   1283.003    -62.003    498.889   1278.237    498.889    503.700    498.889
 98.070   1269.841   1215.939     53.902    498.713   1210.956    498.713    503.750    498.713
 98.170   1221.000   1144.966     76.034    498.535   1139.731    498.535    503.830    498.535
 98.270   1123.000   1073.950     49.050    498.358   1068.421    498.358    503.948    498.358
 98.370    993.000   1006.318    -13.318    498.180   1000.444    498.180    504.113    498.180
 98.470    875.000    944.978    -69.978    498.001    938.695    498.001    504.338    498.001
 98.570    923.374    892.298     31.076    497.823    885.524    497.823    504.643    497.823
 98.670    853.805    850.135      3.671    497.643    842.764    497.643    505.052    497.643
 98.770    806.000    819.889    -13.889    497.464    811.784    497.464    505.596    497.464
 98.870    775.000    802.585    -27.585    497.284    793.569    497.284    506.317    497.284
 98.970    800.000    798.948      1.052    497.103    788.791    497.103    507.267    497.103
 99.070    849.307    809.510     39.798    496.923    797.920    496.923    508.511    496.923
 99.170    847.000    834.597     12.403    496.742    821.205    496.742    510.123    496.742
 99.270    825.329    874.338    -49.009    496.560    858.687    496.560    512.193    496.560
 99.370    959.000    928.631     30.369    496.379    910.168    496.379    514.819    496.379
 99.470   1049.000    997.062     51.938    496.197    975.126    496.197    518.108    496.197
 99.570   1107.805   1078.804     29.000    496.015   1052.628    496.015    522.166    496.015
 99.670   1189.000   1172.513     16.487    495.832   1141.227    495.832    527.097    495.832
 99.770   1316.000   1276.228     39.772    495.650   1238.871    495.650    532.991    495.650
 99.870   1358.027   1387.299    -29.272    495.467   1342.849    495.467    539.913    495.467
 99.970   1428.263   1502.373    -74.110    495.284   1449.776    495.284    547.892    495.284
100.070   1577.000   1617.457    -40.457    495.100   1555.674    495.100    556.914    495.100
100.170   1747.000   1728.110     18.890    494.917   1656.175    494.917    566.906    494.917
100.270   1859.764   1829.782     29.983    494.733   1746.865    494.733    577.729    494.733
100.370   1908.000   1918.218    -10.218    494.549   1823.700    494.549    589.173    494.549
100.470   2036.000   1989.818     46.182    494.365   1883.367    494.365    600.949    494.365
100.570   2114.000   2041.806     72.194    494.181   1923.460    494.181    612.685    494.181
100.670   2045.000   2072.219    -27.219    493.997   1942.465    493.997    623.930    493.997
100.770   2097.784   2079.862     17.922    493.812   1939.709    493.812    634.162    493.812
100.870   2082.000   2064.404     17.596    493.628   1915.429    493.628    642.813    493.628
100.970   2075.000   2026.632     48.368    493.444   1870.976    493.444    649.317    493.444
101.070   2044.000   1968.709     75.291    493.259   1809.001    493.259    653.187    493.259
101.170   1865.000   1894.196    -29.196    493.074   1733.390    493.074    654.097    493.074
101.270   1860.041   1807.742     52.299    492.890   1648.885    492.890    651.956    492.890
101.370   1675.000   1714.535    -39.535    492.705   1560.511    492.705    646.926    492.705
101.470   1686.000   1619.699     66.301    492.520   1473.014    492.520    639.389    492.520
101.570   1527.000   1527.804     -0.804    492.336   1390.443    492.336    629.863    492.336
101.670   1406.000   1442.535    -36.535    492.151   1315.913    492.151    618.923    492.151
101.770   1382.000   1366.523     15.477    491.967   1251.494    491.967    607.128    491.967
101.870   1361.697   1301.286     60.412    491.782   1198.204    491.782    594.982    491.782
101.970   1276.559   1247.259     29.300    491.598   1156.049    491.598    582.913    491.598
102.070   1243.000   1203.891     39.109    491.414   1124.130    491.414    571.269    491.414
102.170   1166.000   1169.776     -3.776    491.230   1100.778    491.230    560.316    491.230
102.270   1096.000   1142.846    -46.846    491.046   1083.733    491.046    550.242    491.046
102.370   1078.000   1120.599    -42.599    490.862   1070.375    490.862    541.166    490.862
102.470   1094.000   1100.380     -6.380    490.678   1057.995    490.678    533.143    490.678
102.570   1023.000   1079.706    -56.706    490.495   1044.107    490.495    526.175    490.495
102.670    993.000   1056.587    -63.587    490.312   1026.763    490.312    520.219    490.312
102.770   1036.000   1029.759      6.241    490.129   1004.771    490.129    515.202    490.129
102.870    971.000    998.772    -27.772    489.946    977.773    489.946    511.029    489.946
102.970    988.000    963.895     24.105    489.763    946.146    489.763    507.596    489.763
103.070    939.000    925.925     13.075    489.581    910.793    489.581    504.795    489.581
103.170    866.000    885.957    -19.957    489.399    872.913    489.399    502.520    489.399
103.270    851.669    845.198      6.471    489.217    833.811    489.217    500.677    489.217
103.370    808.000    804.830      3.170    489.036    794.753    489.036    499.180    489.036
103.470    778.000    765.920     12.080    488.855    756.879    488.855    497.956    488.855
103.570    677.749    729.359    -51.610    488.674    721.140    488.674    496.946    488.674
103.670    675.000    695.827    -20.827    488.494    688.267    488.494    496.100    488.494
103.770    629.853    665.777    -35.923    488.314    658.750    488.314    495.380    488.314
103.870    642.513    639.450      3.063    488.135    632.861    488.135    494.756    488.135
103.970    653.000    616.876     36.124    487.956    610.652    487.956    494.207    487.956
104.070    565.583    597.916    -32.333    487.778    592.002    487.778    493.713    487.778
104.170    603.000    582.307     20.693    487.600    576.663    487.600    493.260    487.600
104.270    603.522    569.714     33.808    487.422    564.302    487.422    492.847    487.422
104.370    566.000    559.748      6.252    487.245    554.539    487.245    492.463    487.245
104.470    573.000    552.017     20.983    487.069    546.989    487.069    492.103    487.069
104.570    558.000    546.149     11.851    486.893    541.283    486.893    491.763    486.893
104.670    550.000    541.812      8.188    486.718    537.091    486.718    491.441    486.718
104.770    566.000    538.722     27.278    486.543    534.132    486.543    491.135    486.543
104.870    497.213    536.655    -39.441    486.369    532.181    486.369    490.842    486.369
104.970    517.494    535.438    -17.944    486.196    531.070    486.196    490.561    486.196
105.070    614.000    534.948     79.052    486.023    530.685    486.023    490.283    486.023
105.170    542.000    535.140      6.860    485.851    530.962    485.851    490.023    485.851
105.270    543.000    535.987      7.013    485.680    531.885    485.680    489.776    485.680
105.370    564.000    537.510     26.490    485.509    533.474    485.509    489.537    485.509
105.470    522.924    539.765    -16.841    485.339    535.787    485.339    489.307    485.339
105.570    537.000    542.836     -5.836    485.170    538.910    485.170    489.085    485.170
105.670    507.862    546.826    -38.964    485.002    542.943    485.002    488.871    485.002
105.770    557.000    551.840      5.160    484.834    547.994    484.834    488.664    484.834
105.870    589.000    557.977     31.023    484.667    554.160    484.667    488.465    484.667
105.970    586.000    565.308     20.692    484.502    561.516    484.502    488.272    484.502
106.070    574.538    573.867      0.671    484.337    570.094    484.337    488.086    484.337
106.170    590.203    583.636      6.567    484.173    579.875    484.173    487.905    484.173
106.270    554.964    594.530    -39.566    484.009    590.777    484.009    487.731    484.009
106.370    618.000    606.400     11.600    483.847    602.649    483.847    487.564    483.847
106.470    605.000    619.020    -14.020    483.686    615.267    483.686    487.401    483.686
106.570    669.226    632.097     37.129    483.526    628.337    483.526    487.245    483.526
106.670    648.372    645.276      3.097    483.367    641.505    483.367    487.094    483.367
106.770    629.323    658.149    -28.825    483.208    654.364    483.208    486.949    483.208
106.870    646.000    670.278    -24.278    483.051    666.475    483.051    486.810    483.051
106.970    637.000    681.221    -44.221    482.895    677.395    482.895    486.676    482.895
107.070    637.000    690.570    -53.570    482.740    686.719    482.740    486.548    482.740
107.170    739.232    698.006     41.226    482.587    694.126    482.587    486.425    482.587
107.270    715.000    703.346     11.654    482.434    699.433    482.434    486.308    482.434
107.370    713.000    706.589      6.411    482.282    702.640    482.282    486.197    482.282
107.470    649.000    707.922    -58.922    482.132    703.931    482.132    486.091    482.132
107.570    677.000    707.690    -30.690    481.983    703.654    481.983    485.991    481.983
107.670    663.061    706.341    -43.280    481.835    702.256    481.835    485.898    481.835
107.770    633.000    704.358    -71.358    481.689    700.218    481.689    485.811    481.689
107.870    710.092    702.195      7.897    481.543    697.995    481.543    485.730    481.543
107.970    694.000    700.233     -6.233    481.399    695.967    481.399    485.655    481.399
108.070    709.265    698.746     10.519    481.257    694.409    481.257    485.587    481.257
108.170    666.042    697.885    -31.843    481.116    693.472    481.116    485.526    481.116
108.270    677.000    697.669    -20.669    480.976    693.173    480.976    485.473    480.976
108.370    710.000    697.983     12.017    480.837    693.399    480.837    485.426    480.837
108.470    671.000    698.590    -27.590    480.700    693.911    480.700    485.388    480.700
108.570    683.000    699.152    -16.152    480.565    694.371    480.565    485.357    480.565
108.670    685.000    699.261    -14.261    480.431    694.371    480.431    485.335    480.431
108.770    673.000    698.485    -25.485    480.299    693.479    480.299    485.322    480.299
108.870    680.053    696.429    -16.376    480.168    691.298    480.168    485.318    480.168
108.970    696.000    692.789      3.211    480.038    687.525    480.038    485.324    480.038
109.070    726.000    687.403     38.597    479.911    681.997    479.911    485.340    479.911
109.170    709.000    680.267     28.733    479.785    674.710    479.785    485.366    479.785
109.270    679.000    671.529      7.471    479.660    665.809    479.660    485.404    479.660
109.370    656.000    661.429     -5.429    479.537    655.536    479.537    485.454    479.537
109.470    640.572    650.332     -9.760    479.416    644.255    479.416    485.517    479.416
109.570    666.000    638.625     27.375    479.297    632.351    479.297    485.593    479.297
109.670    627.000    626.656      0.344    479.179    620.172    479.179    485.684    479.179
109.770    611.000    614.769     -3.769    479.064    608.060    479.064    485.791    479.064
109.870    584.000    603.272    -19.272    478.950    596.324    478.950    485.914    478.950
109.970    568.707    592.427    -23.720    478.838    585.223    478.838    486.056    478.838
110.070    555.670    582.440    -26.769    478.727    574.963    478.727    486.217    478.727
110.170    579.000    573.463      5.537    478.619    565.693    478.619    486.400    478.619
110.270    530.000    565.593    -35.593    478.513    557.507    478.513    486.607    478.513
110.370    595.690    558.874     36.816    478.408    550.447    478.408    486.842    478.408
110.470    531.000    553.306    -22.306    478.306    544.509    478.306    487.107    478.306
110.570    562.661    548.850     13.811    478.205    539.650    478.205    487.408    478.205
110.670    543.000    545.442     -2.442    478.107    535.800    478.107    487.750    478.107
110.770    571.000    542.999     28.001    478.011    532.868    478.011    488.140    478.011
110.870    517.000    541.427    -24.427    477.916    530.752    477.916    488.590    477.916
110.970    552.000    540.632     11.368    477.824    529.343    477.824    489.109    477.824
111.070    529.055    540.523    -11.468    477.734    528.538    477.734    489.715    477.734
111.170    543.000    541.020      1.980    477.647    528.235    477.647    490.426    477.647
111.270    564.000    542.057     21.943    477.561    528.344    477.561    491.268    477.561
111.370    511.000    543.583    -32.583    477.478    528.784    477.478    492.270    477.478
111.470    546.114    545.565      0.548    477.397    529.484    477.397    493.470    477.397
111.570    579.715    547.992     31.723    477.318    530.387    477.318    494.914    477.318
111.670    536.000    550.868    -14.868    477.242    531.446    477.242    496.656    477.242
111.770    575.000    554.224     20.776    477.168    532.623    477.168    498.759    477.168
111.870    543.000    558.108    -15.108    477.096    533.894    477.096    501.300    477.096
111.970    550.000    562.591    -12.591    477.027    535.246    477.027    504.362    477.027
112.070    627.000    567.766     59.234    476.961    536.674    476.961    508.041    476.961
112.170    564.000    573.743     -9.743    476.896    538.186    476.896    512.442    476.896
112.270    604.663    580.649     24.014    476.835    539.797    476.835    517.675    476.835
112.370    599.000    588.626     10.374    476.776    541.531    476.776    523.858    476.776
112.470    604.000    597.822      6.178    476.719    543.419    476.719    531.108    476.719
112.570    610.000    608.389      1.611    476.665    545.502    476.665    539.538    476.665
112.670    592.000    620.481    -28.481    476.614    547.829    476.614    549.251    476.614
112.770    628.026    634.248     -6.222    476.566    550.460    476.566    560.337    476.566
112.870    662.352    649.832     12.520    476.520    553.475    476.520    572.859    476.520
112.970    610.000    667.370    -57.370    476.477    556.975    476.477    586.852    476.477
113.070    731.269    686.990     44.278    476.436    561.091    476.436    602.314    476.436
113.170    754.000    708.819     45.181    476.399    565.999    476.399    619.195    476.399
113.270    697.095    732.986    -35.892    476.364    571.926    476.364    637.398    476.364
113.370    793.000    759.639     33.361    476.332    579.176    476.332    656.766    476.332
113.470    758.000    788.953    -30.953    476.304    588.142    476.304    677.082    476.304
113.570    767.501    821.159    -53.658    476.278    599.333    476.278    698.066    476.278
113.670    903.000    856.558     46.442    476.255    613.402    476.255    719.368    476.255
113.770    948.000    895.560     52.440    476.235    631.172    476.235    740.574    476.235
113.870   1016.000    938.704     77.296    476.218    653.662    476.218    761.202    476.218
113.970    965.000    986.698    -21.698    476.204    682.122    476.204    780.713    476.204
114.070   1027.000   1040.452    -13.452    476.194    718.049    476.194    798.517    476.194
114.170   1050.000   1101.115    -51.115    476.186    763.205    476.186    814.004    476.186
114.270   1163.000   1170.117     -7.117    476.182    819.618    476.182    826.570    476.182
114.370   1233.000   1249.199    -16.199    476.181    889.573    476.181    835.675    476.181
114.470   1294.000   1340.438    -46.438    476.183    975.573    476.183    840.892    476.183
114.570   1419.000   1446.239    -27.239    476.188   1080.279    476.188    841.964    476.188
114.670   1546.333   1569.281    -22.948    476.197   1206.427    476.197    838.835    476.197
114.770   1765.199   1712.410     52.789    476.209   1356.702    476.209    831.662    476.209
114.870   1845.000   1878.464    -33.464    476.225   1533.598    476.225    820.794    476.225
114.970   2125.000   2070.057     54.943    476.244   1739.238    476.244    806.719    476.244
115.070   2342.071   2289.332     52.739    476.266   1975.188    476.266    790.018    476.266
115.170   2670.000   2537.699    132.301    476.292   2242.245    476.292    771.301    476.292
115.270   2761.662   2815.598    -53.936    476.322   2540.249    476.322    751.174    476.322
115.370   3001.000   3122.284   -121.284    476.355   2867.887    476.355    730.203    476.355
115.470   3413.000   3455.658    -42.658    476.392   3222.550    476.392    708.902    476.392
115.570   3861.739   3812.150     49.589    476.432   3600.222    476.432    687.718    476.432
115.670   4204.000   4186.664     17.336    476.476   3995.426    476.476    667.035    476.476
115.770   4426.000   4572.590   -146.590    476.524   4401.241    476.524    647.167    476.524
115.870   4844.976   4961.887   -116.911    476.575   4809.378    476.575    628.364    476.575
115.970   5241.000   5345.239   -104.239    476.631   5210.337    476.631    610.812    476.631
116.070   5628.000   5712.290    -84.290    476.690   5593.637    476.690    594.638    476.690
116.170   5951.000   6051.970   -100.970    476.753   5948.136    476.753    579.914    476.753
116.270   6226.000   6352.925   -126.925    476.820   6262.455    476.820    566.667    476.820
116.370   6597.000   6604.102     -7.102    476.891   6525.559    476.891    554.880    476.891
116.470   6836.664   6795.491     41.173    476.966   6727.485    476.966    544.503    476.966
116.570   6855.000   6918.840    -63.840    477.044   6860.056    477.044    535.457    477.044
116.670   7002.283   6968.524     33.758    477.127   6917.741    477.127    527.647    477.127
116.770   6859.000   6942.145    -83.145    477.215   6898.245    477.215    520.964    477.215
116.870   6686.984   6840.802   -153.818    477.306   6802.778    477.306    515.291    477.306
116.970   6709.000   6668.935     40.065    477.401   6635.893    477.401    510.511    477.401
117.070   6471.000   6433.801     37.199    477.501   6404.956    477.501    506.511    477.501
117.170   6120.000   6144.713    -24.713    477.605   6119.386    477.605    503.180    477.605
117.270   5827.000   5812.235     14.765    477.713   5789.844    477.713    500.420    477.713
117.370   5481.919   5447.445     34.474    477.826   5427.498    477.826    498.141    477.826
117.470   4986.000   5061.338    -75.338    477.942   5043.423    477.942    496.262    477.942
117.570   4615.000   4664.359    -49.359    478.064   4648.135    478.064    494.714    478.064
117.670   4265.325   4266.062     -0.736    478.190   4251.246    478.190    493.437    478.190
117.770   4032.000   3874.853    157.147    478.320   3861.215    478.320    492.383    478.320
117.870   3453.810   3497.832    -44.022    478.455   3485.186    478.455    491.510    478.455
117.970   3219.000   3140.698     78.302    478.594   3128.891    478.594    490.784    478.594
118.070   2884.000   2807.735     76.265    478.738   2796.648    478.738    490.178    478.738
118.170   2583.000   2501.864     81.136    478.887   2491.399    478.887    489.669    478.887
118.270   2262.000   2224.746     37.254    479.041   2214.825    479.041    489.242    479.041
118.370   1989.350   1976.925     12.424    479.199   1967.485    479.199    488.881    479.199
118.470   1826.000   1758.001     67.999    479.362   1748.991    479.362    488.576    479.362
118.570   1482.000   1566.810    -84.810    479.530   1558.191    479.530    488.319    479.530
118.670   1394.980   1401.612     -6.632    479.702   1393.350    479.702    488.103    479.702
118.770   1276.000   1260.268     15.732    479.880   1252.334    479.880    487.924    479.880
118.870   1115.000   1140.402    -25.402    480.063   1132.774    480.063    487.777    480.063
118.970   1081.135   1039.547     41.588    480.250   1032.203    480.250    487.659    480.250
119.070    957.000    955.257      1.743    480.443    948.181    480.443    487.568    480.443
119.170    893.000    885.205      7.795    480.641    878.379    480.641    487.501    480.641
119.270    834.000    827.239      6.761    480.844    820.648    480.844    487.459    480.844
119.370    738.000    779.425    -41.425    481.052    773.056    481.052    487.438    481.052
119.470    756.292    740.065     16.227    481.265    733.903    481.265    487.438    481.265
119.570    666.000    707.695    -41.695    481.484    701.726    481.484    487.460    481.484
119.670    622.000    681.078    -59.078    481.707    675.289    481.707    487.501    481.707
119.770    670.000    659.183     10.817    481.937    653.560    481.937    487.563    481.937
119.870    680.402    641.163     39.239    482.171    635.692    482.171    487.644    482.171
119.970    595.000    626.331    -31.331    482.411    620.998    482.411    487.746    482.411
120.070    586.000    614.133    -28.133    482.657    608.924    482.657    487.867    482.657
120.170    604.000    604.128     -0.128    482.908    599.028    482.908    488.010    482.908
120.270    630.760    595.968     34.792    483.165    590.961    483.165    488.174    483.165
120.370    605.000    589.377     15.623    483.427    584.447    483.427    488.360    483.427
120.470    568.000    584.142    -16.142    483.695    579.272    483.695    488.568    483.695
120.570    558.000    580.095    -22.095    483.969    575.266    483.969    488.801    483.969
120.670    620.977    577.106     43.872    484.248    572.299    484.248    489.058    484.248
120.770    577.000    575.073      1.927    484.533    570.269    484.533    489.341    484.533
120.870    592.000    573.917     18.083    484.825    569.095    484.825    489.651    484.825
120.970    570.000    573.575     -3.575    485.122    568.713    485.122    489.989    485.122
121.070    558.021    573.993    -15.972    485.425    569.069    485.425    490.356    485.425
121.170    582.644    575.125      7.518    485.733    570.116    485.733    490.752    485.733
121.270    582.000    576.927      5.073    486.049    571.808    486.049    491.177    486.049
121.370    569.000    579.354    -10.354    486.370    574.102    486.370    491.633    486.370
121.470    568.520    582.357    -13.837    486.697    576.949    486.697    492.118    486.697
121.570    557.106    585.880    -28.774    487.030    580.292    487.030    492.633    487.030
121.670    623.000    589.860     33.140    487.370    584.072    487.370    493.176    487.370
121.770    557.326    594.227    -36.901    487.716    588.217    487.716    493.746    487.716
121.870    573.443    598.895    -25.451    488.068    592.648    488.068    494.338    488.068
121.970    616.564    603.777     12.786    488.427    597.276    488.427    494.954    488.427
122.070    603.000    608.772     -5.772    488.792    602.004    488.792    495.589    488.792
122.170    677.000    613.771     63.229    489.163    606.727    489.163    496.239    489.163
122.270    605.000    618.657    -13.657    489.541    611.333    489.541    496.899    489.541
122.370    618.000    623.312     -5.312    489.926    615.709    489.926    497.565    489.926
122.470    625.000    627.614     -2.614    490.317    619.740    490.317    498.231    490.317
122.570    656.000    631.449     24.551    490.715    623.316    490.715    498.890    490.715
122.670    665.894    634.710     31.184    491.120    626.337    491.120    499.536    491.120
122.770    673.960    637.305     36.655    491.531    628.720    491.531    500.162    491.531
122.870    644.665    639.166      5.499    491.949    630.401    491.949    500.761    491.949
122.970    591.122    640.249    -49.127    492.375    631.345    492.375    501.326    492.375
123.070    597.742    640.541    -42.799    492.807    631.544    492.807    501.852    492.807
123.170    656.824    640.056     16.768    493.246    631.016    493.246    502.333    493.246
123.270    620.000    638.833    -18.833    493.692    629.805    493.692    502.767    493.692
123.370    695.000    636.935     58.065    494.145    627.972    494.145    503.153    494.145
123.470    613.000    634.436    -21.436    494.605    625.594    494.605    503.491    494.605
123.570    668.375    631.425     36.950    495.072    622.755    495.072    503.784    495.072
123.670    589.000    627.992    -38.992    495.547    619.542    495.547    504.037    495.547
123.770    623.000    624.231     -1.231    496.029    616.042    496.029    504.255    496.029
123.870    622.000    620.231      1.769    496.518    612.338    496.518    504.445    496.518
123.970    610.000    616.076     -6.076    497.015    608.508    497.015    504.614    497.015
124.070    592.000    611.842    -19.842    497.519    604.620    497.519    504.768    497.519
124.170    589.849    607.594    -17.746    498.030    600.734    498.030    504.915    498.030
124.270    575.000    603.387    -28.387    498.550    596.898    498.550    505.060    498.550
124.370    609.000    599.263      9.737    499.076    593.148    499.076    505.210    499.076
124.470    590.197    595.250     -5.053    499.611    589.508    499.611    505.369    499.611
124.570    597.587    591.367      6.220    500.153    585.991    500.153    505.542    500.153
124.670    590.027    587.629      2.399    500.703    582.610    500.703    505.732    500.703
124.770    552.793    584.035    -31.242    501.260    579.361    501.260    505.944    501.260
124.870    599.000    580.583     18.417    501.826    576.237    501.826    506.179    501.826
124.970    588.017    577.265     10.753    502.399    573.229    502.399    506.440    502.399
