neutron_powder_diffraction_0210
R_wp: 3.945
Temperature (K): 1074.100
Counts: 84245.00
Wavelength (Ã…): 2.52098
COMMENTS
Test file for demonstrating the .xyy file format in Reel1.0
END OF HEADER
   tth       Y_obs     Y_calc      Y_res    Background    Phase_1_Nuc    Phase_1_Mag    Phase_2_Nuc    Phase_2_Mag
  9.970    619.186    576.046     43.140    575.348    576.000    575.348    575.394    575.348
 10.070    578.000    576.102      1.898    575.347    576.055    575.347    575.394    575.347
 10.170    624.000    576.160     47.840    575.342    576.114    575.342    575.388    575.342
 10.270    609.339    576.224     33.115    575.331    576.177    575.331    575.377    575.331
 10.370    605.000    576.295     28.705    575.315    576.247    575.315    575.362    575.315
 10.470    607.828    576.375     31.453    575.294    576.328    575.294    575.342    575.294
 10.570    536.448    576.470    -40.022    575.269    576.421    575.269    575.317    575.269
 10.670    601.679    576.588     25.091    575.239    576.534    575.239    575.292    575.239
 10.770    577.000    576.726      0.274    575.204    576.671    575.204    575.258    575.204
 10.870    592.024    576.897     15.127    575.164    576.842    575.164    575.219    575.164
 10.970    600.791    577.114     23.677    575.120    577.058    575.120    575.175    575.120
 11.070    587.192    577.394      9.798    575.071    577.338    575.071    575.126    575.071
 11.170    596.910    577.763     19.146    575.018    577.706    575.018    575.073    575.018
 11.270    620.030    578.260     41.770    574.960    578.203    574.960    575.016    574.960
 11.370    627.000    578.953     48.047    574.898    578.895    574.898    574.954    574.898
 11.470    575.000    579.989     -4.989    574.831    579.930    574.831    574.887    574.831
 11.570    562.536    581.779    -19.243    574.760    581.718    574.760    574.817    574.760
 11.670    583.000    585.494     -2.494    574.685    585.431    574.685    574.742    574.685
 11.770    618.000    593.859     24.141    574.605    593.791    574.605    574.662    574.605
 11.870    649.000    611.278     37.722    574.521    611.200    574.521    574.579    574.521
 11.970    662.000    641.178     20.822    574.433    641.083    574.433    574.491    574.433
 12.070    732.000    679.709     52.291    574.341    679.593    574.341    574.399    574.341
 12.170    711.000    710.012      0.988    574.245    709.877    574.245    574.304    574.245
 12.270    653.000    710.902    -57.902    574.145    710.764    574.145    574.207    574.145
 12.370    639.000    681.486    -42.486    574.041    681.362    574.041    574.104    574.041
 12.470    639.573    642.582     -3.009    573.933    642.479    573.933    573.997    573.933
 12.570    574.000    611.803    -37.803    573.821    611.718    573.821    573.885    573.821
 12.670    605.000    593.588     11.412    573.705    593.512    573.705    573.770    573.705
 12.770    549.966    584.687    -34.721    573.585    584.615    573.585    573.651    573.585
 12.870    565.000    580.630    -15.630    573.462    580.560    573.462    573.528    573.462
 12.970    585.453    578.588      6.865    573.335    578.519    573.335    573.401    573.335
 13.070    561.581    577.334    -15.753    573.204    577.265    573.204    573.270    573.204
 13.170    590.000    576.435     13.565    573.069    576.366    573.069    573.136    573.069
 13.270    542.000    575.736    -33.736    572.931    575.668    572.931    572.998    572.931
 13.370    575.000    575.169     -0.169    572.790    575.101    572.790    572.857    572.790
 13.470    580.000    574.694      5.306    572.644    574.625    572.644    572.712    572.644
 13.570    538.513    574.284    -35.770    572.496    574.215    572.496    572.564    572.496
 13.670    595.628    573.921     21.706    572.344    573.852    572.344    572.412    572.344
 13.770    528.000    573.594    -45.594    572.188    573.525    572.188    572.257    572.188
 13.870    551.000    573.294    -22.294    572.030    573.224    572.030    572.099    572.030
 13.970    610.000    573.014     36.986    571.867    572.944    571.867    571.937    571.867
 14.070    600.563    572.749     27.814    571.702    572.679    571.702    571.772    571.702
 14.170    613.314    572.496     40.818    571.533    572.425    571.533    571.604    571.533
 14.270    609.662    572.252     37.410    571.362    572.181    571.362    571.432    571.362
 14.370    562.000    572.015    -10.015    571.187    571.944    571.187    571.258    571.187
 14.470    586.000    571.783     14.217    571.009    571.711    571.009    571.080    571.009
 14.570    498.000    571.555    -73.555    570.828    571.483    570.828    570.899    570.828
 14.670    552.000    571.333    -19.333    570.644    571.260    570.644    570.716    570.644
 14.770    573.000    571.112      1.888    570.456    571.038    570.456    570.529    570.456
 14.870    554.000    570.891    -16.891    570.266    570.816    570.266    570.341    570.266
 14.970    553.000    570.670    -17.670    570.073    570.595    570.073    570.149    570.073
 15.070    605.295    570.449     34.846    569.878    570.373    569.878    569.953    569.878
 15.170    531.000    570.228    -39.228    569.679    570.152    569.679    569.755    569.679
 15.270    542.000    570.007    -28.007    569.477    569.930    569.477    569.554    569.477
 15.370    556.768    569.785    -13.016    569.273    569.708    569.273    569.350    569.273
 15.470    586.910    569.562     17.349    569.066    569.484    569.066    569.144    569.066
 15.570    554.000    569.338    -15.338    568.857    569.260    568.857    568.934    568.857
 15.670    563.000    569.113     -6.113    568.644    569.035    568.644    568.723    568.644
 15.770    602.000    568.887     33.113    568.430    568.808    568.430    568.508    568.430
 15.870    527.398    568.659    -41.261    568.212    568.580    568.212    568.291    568.212
 15.970    571.000    568.430      2.570    567.992    568.350    567.992    568.072    567.992
 16.070    553.000    568.199    -15.199    567.770    568.119    567.770    567.850    567.770
 16.170    522.438    567.967    -45.529    567.545    567.886    567.545    567.625    567.545
 16.270    531.824    567.734    -35.910    567.318    567.653    567.318    567.399    567.318
 16.370    578.994    567.500     11.494    567.088    567.419    567.088    567.169    567.088
 16.470    559.848    567.263     -7.415    566.856    567.181    566.856    566.938    566.856
 16.570    566.000    567.024     -1.024    566.621    566.942    566.621    566.704    566.621
 16.670    578.873    566.784     12.089    566.385    566.700    566.385    566.468    566.385
 16.770    572.000    566.541      5.459    566.146    566.458    566.146    566.229    566.146
 16.870    562.000    566.297     -4.297    565.905    566.213    565.905    565.989    565.905
 16.970    593.952    566.052     27.901    565.662    565.967    565.662    565.746    565.662
 17.070    567.338    565.804      1.534    565.416    565.719    565.416    565.501    565.416
 17.170    533.000    565.555    -32.555    565.169    565.469    565.169    565.254    565.169
 17.270    530.219    565.305    -35.086    564.919    565.218    564.919    565.006    564.919
 17.370    554.000    565.057    -11.057    564.667    564.965    564.667    564.759    564.667
 17.470    598.171    564.807     33.364    564.414    564.713    564.414    564.508    564.414
 17.570    574.000    564.552      9.448    564.158    564.457    564.158    564.253    564.158
 17.670    589.829    564.295     25.534    563.901    564.199    563.901    563.997    563.901
 17.770    568.000    564.036      3.964    563.641    563.940    563.641    563.738    563.641
 17.870    560.000    563.776     -3.776    563.380    563.679    563.380    563.477    563.380
 17.970    585.625    563.514     22.111    563.117    563.416    563.117    563.215    563.117
 18.070    580.000    563.251     16.749    562.852    563.152    562.852    562.951    562.852
 18.170    565.000    562.986      2.014    562.585    562.887    562.585    562.685    562.585
 18.270    537.631    562.719    -25.088    562.317    562.620    562.317    562.417    562.317
 18.370    587.000    562.452     24.548    562.047    562.351    562.047    562.148    562.047
 18.470    529.509    562.183    -32.673    561.775    562.081    561.775    561.876    561.775
 18.570    554.140    561.912     -7.772    561.502    561.810    561.502    561.604    561.502
 18.670    534.121    561.640    -27.520    561.227    561.537    561.227    561.330    561.227
 18.770    520.474    561.367    -40.893    560.950    561.264    560.950    561.054    560.950
 18.870    564.787    561.093      3.695    560.672    560.988    560.672    560.776    560.672
 18.970    582.242    560.817     21.425    560.392    560.712    560.392    560.498    560.392
 19.070    546.000    560.541    -14.541    560.111    560.435    560.111    560.217    560.111
 19.170    588.102    560.263     27.839    559.829    560.156    559.829    559.936    559.829
 19.270    560.000    559.985      0.015    559.545    559.878    559.545    559.652    559.545
 19.370    585.854    559.707     26.147    559.259    559.598    559.259    559.368    559.259
 19.470    541.558    559.426    -17.868    558.973    559.316    558.973    559.082    558.973
 19.570    564.000    559.144      4.856    558.685    559.033    558.685    558.795    558.685
 19.670    527.000    558.861    -31.861    558.395    558.749    558.395    558.507    558.395
 19.770    564.000    558.577      5.423    558.105    558.465    558.105    558.217    558.105
 19.870    550.000    558.292     -8.292    557.813    558.179    557.813    557.926    557.813
 19.970    549.000    558.008     -9.008    557.520    557.894    557.520    557.634    557.520
 20.070    552.000    557.735     -5.735    557.225    557.620    557.225    557.341    557.225
 20.170    544.481    557.458    -12.977    556.930    557.342    556.930    557.046    556.930
 20.270    568.551    557.172     11.379    556.633    557.054    556.633    556.751    556.633
 20.370    523.000    556.884    -33.884    556.336    556.765    556.336    556.454    556.336
 20.470    564.137    556.595      7.541    556.037    556.476    556.037    556.157    556.037
 20.570    544.000    556.306    -12.306    555.737    556.186    555.737    555.858    555.737
 20.670    545.000    556.017    -11.017    555.437    555.895    555.437    555.559    555.437
 20.770    505.000    555.728    -50.728    555.135    555.604    555.135    555.258    555.135
 20.870    582.000    555.438     26.562    554.832    555.313    554.832    554.957    554.832
 20.970    523.000    555.148    -32.148    554.529    555.022    554.529    554.654    554.529
 21.070    553.000    554.858     -1.858    554.224    554.731    554.224    554.351    554.224
 21.170    569.096    554.568     14.528    553.919    554.440    553.919    554.047    553.919
 21.270    572.000    554.278     17.722    553.613    554.149    553.613    553.742    553.613
 21.370    583.449    553.989     29.460    553.306    553.858    553.306    553.437    553.306
 21.470    529.000    553.700    -24.700    552.998    553.567    552.998    553.130    552.998
 21.570    521.000    553.411    -32.411    552.689    553.277    552.689    552.823    552.689
 21.670    596.000    553.124     42.876    552.380    552.988    552.380    552.516    552.380
 21.770    577.542    552.840     24.703    552.070    552.700    552.070    552.210    552.070
 21.870    532.000    552.555    -20.555    551.759    552.413    551.759    551.901    551.759
 21.970    523.000    552.271    -29.271    551.448    552.127    551.448    551.592    551.448
 22.070    528.074    551.997    -23.923    551.136    551.851    551.136    551.282    551.136
 22.170    563.000    551.801     11.199    550.823    551.653    550.823    550.971    550.823
 22.270    590.000    551.566     38.434    550.510    551.416    550.510    550.660    550.510
 22.370    553.000    551.320      1.680    550.196    551.169    550.196    550.348    550.196
 22.470    589.000    551.053     37.947    549.882    550.900    549.882    550.036    549.882
 22.570    540.748    550.793    -10.045    549.567    550.638    549.567    549.723    549.567
 22.670    559.123    550.581      8.542    549.252    550.424    549.252    549.410    549.252
 22.770    570.679    550.345     20.334    548.936    550.185    548.936    549.096    548.936
 22.870    552.465    550.099      2.366    548.620    549.938    548.620    548.782    548.620
 22.970    550.250    549.862      0.388    548.304    549.697    548.304    548.468    548.304
 23.070    541.000    549.635     -8.635    547.987    549.468    547.987    548.154    547.987
 23.170    583.946    549.422     34.523    547.669    549.253    547.669    547.839    547.669
 23.270    564.000    549.227     14.773    547.352    549.055    547.352    547.524    547.352
 23.370    556.000    549.055      6.945    547.034    548.880    547.034    547.209    547.034
 23.470    543.000    548.911     -5.911    546.716    548.734    546.716    546.894    546.716
 23.570    519.000    548.806    -29.806    546.397    548.625    546.397    546.578    546.397
 23.670    538.000    548.752    -10.752    546.078    548.569    546.078    546.263    546.078
 23.770    512.909    548.772    -35.862    545.759    548.585    545.759    545.947    545.759
 23.870    535.000    548.889    -13.889    545.440    548.699    545.440    545.632    545.440
 23.970    553.000    549.162      3.838    545.121    548.969    545.121    545.316    545.121
 24.070    536.118    549.723    -13.605    544.801    549.526    544.801    545.000    544.801
 24.170    572.000    550.939     21.061    544.482    550.740    544.482    544.685    544.482
 24.270    540.000    553.801    -13.801    544.162    553.599    544.162    544.369    544.162
 24.370    565.000    560.373      4.627    543.842    560.172    543.842    544.054    543.842
 24.470    589.000    573.518     15.482    543.522    573.322    543.522    543.738    543.522
 24.570    571.918    594.649    -22.730    543.202    594.463    543.202    543.423    543.202
 24.670    634.850    619.634     15.216    542.882    619.462    542.882    543.109    542.882
 24.770    649.566    636.174     13.393    542.562    636.008    542.562    542.794    542.562
 24.870    592.138    632.093    -39.955    542.242    631.919    542.242    542.480    542.242
 24.970    604.000    610.709     -6.709    541.922    610.514    541.922    542.166    541.922
 25.070    599.000    585.693     13.307    541.603    585.473    541.603    541.853    541.603
 25.170    606.461    566.597     39.864    541.283    566.357    541.283    541.540    541.283
 25.270    530.871    555.333    -24.462    540.963    555.077    540.963    541.228    540.963
 25.370    586.000    549.690     36.310    540.644    549.422    540.644    540.916    540.644
 25.470    496.000    546.968    -50.968    540.324    546.691    540.324    540.605    540.324
 25.570    562.000    545.492     16.508    540.005    545.204    540.005    540.295    540.005
 25.670    571.562    544.525     27.037    539.686    544.227    539.686    539.985    539.686
 25.770    564.000    543.803     20.197    539.367    543.495    539.367    539.677    539.367
 25.870    522.042    543.227    -21.185    539.048    542.908    539.048    539.369    539.048
 25.970    522.000    542.751    -20.751    538.730    542.420    538.730    539.062    538.730
 26.070    518.000    542.355    -24.355    538.412    542.010    538.412    538.757    538.412
 26.170    574.000    542.023     31.977    538.094    541.665    538.094    538.453    538.094
 26.270    574.806    541.744     33.062    537.777    541.370    537.777    538.151    537.777
 26.370    523.000    541.515    -18.515    537.459    541.125    537.459    537.850    537.459
 26.470    534.000    541.339     -7.339    537.142    540.931    537.142    537.551    537.142
 26.570    532.000    541.240     -9.240    536.826    540.812    536.826    537.254    536.826
 26.670    602.000    541.195     60.805    536.510    540.746    536.510    536.959    536.510
 26.770    602.000    541.194     60.806    536.194    540.721    536.194    536.667    536.194
 26.870    566.227    541.269     24.958    535.878    540.769    535.878    536.377    535.878
 26.970    581.517    541.443     40.075    535.564    540.914    535.564    536.091    535.564
 27.070    550.000    541.742      8.258    535.249    541.181    535.249    535.809    535.249
 27.170    527.966    542.199    -14.234    534.935    541.603    534.935    535.531    534.935
 27.270    504.000    542.880    -38.880    534.621    542.243    534.621    535.257    534.621
 27.370    551.000    543.859      7.141    534.308    543.177    534.308    534.989    534.308
 27.470    513.000    545.306    -32.306    533.996    544.572    533.996    534.728    533.996
 27.570    596.000    547.587     48.413    533.684    546.794    533.684    534.474    533.684
 27.670    536.886    552.127    -15.241    533.372    551.266    533.372    534.230    533.372
 27.770    573.611    563.684      9.927    533.061    562.742    533.061    533.996    533.061
 27.870    589.000    594.286     -5.286    532.751    593.243    532.751    533.775    532.751
 27.970    626.435    662.624    -36.188    532.441    661.454    532.441    533.570    532.441
 28.070    762.000    776.976    -14.976    532.132    775.649    532.132    533.384    532.132
 28.170    914.000    905.028      8.972    531.824    903.524    531.824    533.222    531.824
 28.270    953.000    968.276    -15.276    531.516    966.596    531.516    533.091    531.516
 28.370    963.470    914.745     48.725    531.208    912.888    531.208    532.999    531.208
 28.470    823.000    799.703     23.297    530.902    797.616    530.902    532.960    530.902
 28.570    727.000    711.037     15.963    530.596    708.625    530.596    532.994    530.596
 28.670    709.000    693.734     15.266    530.291    690.871    530.291    533.136    530.291
 28.770    720.000    742.517    -22.517    529.986    739.032    529.986    533.449    529.986
 28.870    775.893    815.443    -39.550    529.683    811.071    529.683    534.039    529.683
 28.970    841.452    850.004     -8.552    529.380    844.311    529.380    535.072    529.380
 29.070    834.527    809.231     25.296    529.078    801.537    529.078    536.782    529.078
 29.170    718.000    725.741     -7.741    528.776    715.092    528.776    539.436    528.776
 29.270    628.000    649.626    -21.626    528.476    634.854    528.476    543.255    528.476
 29.370    670.000    603.264     66.736    528.176    583.189    528.176    548.253    528.176
 29.470    572.696    583.469    -10.773    527.877    557.394    527.877    553.952    527.877
 29.570    625.000    577.679     47.321    527.579    546.289    527.579    558.967    527.579
 29.670    666.000    575.215     90.785    527.281    541.380    527.281    561.115    527.281
 29.770    629.000    570.803     58.197    526.985    538.734    526.985    559.052    526.985
 29.870    653.000    564.117     88.883    526.689    537.005    526.689    553.800    526.689
 29.970    541.942    556.915    -14.974    526.395    535.783    526.395    547.525    526.395
 30.070    513.721    550.605    -36.884    526.101    534.936    526.101    541.768    526.101
 30.170    544.083    545.771     -1.689    525.808    534.436    525.808    537.142    525.808
 30.270    568.000    542.571     25.429    525.516    534.385    525.516    533.699    525.516
 30.370    526.385    541.241    -14.856    525.225    535.217    525.225    531.245    525.225
 30.470    559.000    542.672     16.328    524.935    538.087    524.935    529.515    524.935
 30.570    548.000    548.793     -0.793    524.646    545.162    524.646    528.266    524.646
 30.670    592.000    561.828     30.172    524.358    558.843    524.358    527.320    524.358
 30.770    606.551    581.632     24.919    524.071    579.104    524.071    526.561    524.071
 30.870    610.838    602.267      8.571    523.785    600.080    523.785    525.920    523.785
 30.970    671.000    611.680     59.320    523.500    609.766    523.500    525.358    523.500
 31.070    583.000    601.881    -18.881    523.216    600.199    523.216    524.851    523.216
 31.170    603.000    580.281     22.719    522.933    578.797    522.933    524.387    522.933
 31.270    571.000    558.926     12.074    522.651    557.606    522.651    523.955    522.651
 31.370    536.867    543.995     -7.129    522.370    542.809    522.370    523.548    522.370
 31.470    516.000    535.727    -19.727    522.091    534.651    522.091    523.162    522.091
 31.570    544.000    531.765     12.235    521.812    530.781    521.812    522.793    521.812
 31.670    505.350    529.886    -24.536    521.534    528.980    521.534    522.438    521.534
 31.770    557.000    528.862     28.138    521.258    528.023    521.258    522.095    521.258
 31.870    516.000    528.200    -12.200    520.982    527.419    520.982    521.762    520.982
 31.970    523.000    527.731     -4.731    520.708    527.001    520.708    521.437    520.708
 32.070    510.000    527.401    -17.401    520.435    526.716    520.435    521.119    520.435
 32.170    500.000    527.186    -27.186    520.163    526.541    520.163    520.808    520.163
 32.270    523.000    527.081     -4.081    519.892    526.470    519.892    520.502    519.892
 32.370    574.000    527.088     46.912    519.623    526.508    519.623    520.202    519.623
 32.470    490.273    527.211    -36.938    519.354    526.658    519.354    519.906    519.354
 32.570    560.000    527.465     32.535    519.087    526.938    519.087    519.614    519.087
 32.670    520.000    527.879     -7.879    518.821    527.374    518.821    519.326    518.821
 32.770    513.000    528.492    -15.492    518.556    528.006    518.556    519.041    518.556
 32.870    547.470    529.358     18.112    518.293    528.891    518.293    518.759    518.293
 32.970    493.322    530.561    -37.239    518.030    530.110    518.030    518.480    518.030
 33.070    522.000    532.228    -10.228    517.769    531.792    517.769    518.205    517.769
 33.170    572.390    534.591     37.799    517.509    534.167    517.509    517.931    517.509
 33.270    518.000    538.181    -20.181    517.251    537.769    517.251    517.660    517.251
 33.370    555.563    544.451     11.112    516.993    544.050    516.993    517.392    516.993
 33.470    579.000    557.256     21.744    516.737    556.861    516.737    517.126    516.737
 33.570    629.221    585.022     44.199    516.483    584.632    516.483    516.862    516.483
 33.670    654.000    641.206     12.794    516.229    640.813    516.229    516.600    516.229
 33.770    776.612    738.142     38.470    515.977    737.742    515.977    516.340    515.977
 33.870    861.862    872.181    -10.319    515.726    871.769    515.726    516.082    515.726
 33.970    999.000   1006.857     -7.857    515.477   1006.441    515.477    515.826    515.477
 34.070   1089.000   1072.893     16.107    515.228   1072.492    515.228    515.571    515.228
 34.170   1033.000   1023.227      9.773    514.981   1022.859    514.981    515.319    514.981
 34.270    892.000    894.770     -2.770    514.736    894.433    514.736    515.068    514.736
 34.370    745.182    757.255    -12.072    514.492    756.934    514.492    514.820    514.492
 34.470    581.000    652.964    -71.964    514.249    652.648    514.249    514.573    514.249
 34.570    595.000    590.035      4.965    514.007    589.721    514.007    514.327    514.007
 34.670    568.317    557.788     10.529    513.767    557.474    513.767    514.084    513.767
 34.770    530.885    542.478    -11.593    513.529    542.165    513.529    513.842    513.529
 34.870    509.000    534.820    -25.820    513.291    534.510    513.291    513.602    513.291
 34.970    496.000    530.327    -34.327    513.055    530.019    513.055    513.363    513.055
 35.070    554.000    527.239     26.761    512.821    526.933    512.821    513.126    512.821
 35.170    505.010    524.909    -19.899    512.588    524.605    512.588    512.891    512.588
 35.270    532.000    523.070      8.930    512.356    522.768    512.356    512.657    512.356
 35.370    534.000    521.577     12.423    512.126    521.276    512.126    512.425    512.126
 35.470    490.000    520.339    -30.339    511.897    520.041    511.897    512.195    511.897
 35.570    519.494    519.296      0.198    511.669    518.998    511.669    511.966    511.669
 35.670    553.000    518.402     34.598    511.443    518.106    511.443    511.739    511.443
 35.770    521.000    517.626      3.374    511.219    517.330    511.219    511.514    511.219
 35.870    483.000    516.943    -33.943    510.996    516.649    510.996    511.290    510.996
 35.970    542.000    516.337     25.663    510.774    516.044    510.774    511.068    510.774
 36.070    488.136    515.795    -27.659    510.554    515.502    510.554    510.847    510.554
 36.170    483.753    515.306    -31.554    510.335    515.013    510.335    510.628    510.335
 36.270    547.220    514.864     32.356    510.118    514.571    510.118    510.411    510.118
 36.370    539.361    514.463     24.898    509.902    514.170    509.902    510.195    509.902
 36.470    518.000    514.100      3.900    509.688    513.807    509.688    509.981    509.688
 36.570    490.000    513.773    -23.773    509.475    513.480    509.475    509.768    509.475
 36.670    548.328    513.484     34.844    509.264    513.191    509.264    509.557    509.264
 36.770    470.965    513.239    -42.273    509.054    512.945    509.054    509.348    509.054
 36.870    547.399    513.055     34.345    508.846    512.761    508.846    509.140    508.846
 36.970    498.931    512.983    -14.052    508.639    512.688    508.639    508.934    508.639
 37.070    546.656    513.144     33.512    508.434    512.848    508.434    508.729    508.434
 37.170    537.000    513.774     23.226    508.230    513.478    508.230    508.526    508.230
 37.270    494.000    515.214    -21.214    508.028    514.918    508.028    508.325    508.028
 37.370    493.808    517.753    -23.945    507.827    517.456    507.827    508.125    507.827
 37.470    512.116    521.305     -9.190    507.628    521.008    507.628    507.927    507.628
 37.570    498.577    525.059    -26.482    507.430    524.761    507.430    507.731    507.430
 37.670    519.000    527.431     -8.431    507.234    527.133    507.234    507.536    507.234
 37.770    528.000    527.096      0.904    507.040    526.799    507.040    507.343    507.040
 37.870    551.000    524.392     26.608    506.847    524.096    506.847    507.152    506.847
 37.970    534.000    520.758     13.242    506.655    520.462    506.655    506.962    506.655
 38.070    540.000    517.303     22.697    506.466    517.006    506.466    506.774    506.466
 38.170    508.000    514.467     -6.467    506.277    514.166    506.277    506.587    506.277
 38.270    535.000    512.351     22.649    506.090    512.046    506.090    506.402    506.090
 38.370    505.000    510.886     -5.886    505.905    510.577    505.905    506.219    505.905
 38.470    509.000    509.912     -0.912    505.722    509.599    505.722    506.037    505.722
 38.570    557.000    509.268     47.732    505.540    508.951    505.540    505.857    505.540
 38.670    508.000    508.826     -0.826    505.359    508.506    505.359    505.679    505.359
 38.770    510.183    508.496      1.687    505.180    508.174    505.180    505.503    505.180
 38.870    525.067    508.227     16.840    505.003    507.902    505.003    505.328    505.003
 38.970    501.000    507.991     -6.991    504.827    507.664    504.827    505.154    504.827
 39.070    483.000    507.776    -24.776    504.653    507.446    504.653    504.983    504.653
 39.170    476.000    507.577    -31.577    504.480    507.244    504.480    504.813    504.480
 39.270    481.074    507.390    -26.315    504.309    507.054    504.309    504.645    504.309
 39.370    505.783    507.213     -1.431    504.140    506.875    504.140    504.478    504.140
 39.470    521.000    507.046     13.954    503.972    506.705    503.972    504.314    503.972
 39.570    517.000    506.888     10.112    503.806    506.544    503.806    504.151    503.806
 39.670    529.942    506.738     23.204    503.641    506.391    503.641    503.989    503.641
 39.770    499.075    506.596     -7.521    503.478    506.246    503.478    503.829    503.478
 39.870    540.148    506.462     33.686    503.317    506.108    503.317    503.671    503.317
 39.970    475.000    506.336    -31.336    503.157    505.978    503.157    503.515    503.157
 40.070    520.129    506.218     13.911    502.999    505.857    502.999    503.361    502.999
 40.170    474.000    506.109    -32.109    502.842    505.744    502.842    503.208    502.842
 40.270    487.000    506.009    -19.009    502.687    505.640    502.687    503.057    502.687
 40.370    468.000    505.919    -37.919    502.534    505.546    502.534    502.907    502.534
 40.470    524.702    505.840     18.862    502.382    505.463    502.382    502.760    502.382
 40.570    505.000    505.773     -0.773    502.232    505.392    502.232    502.614    502.232
 40.670    480.817    505.721    -24.904    502.084    505.335    502.084    502.470    502.084
 40.770    541.202    505.685     35.517    501.937    505.294    501.937    502.328    501.937
 40.870    532.000    505.667     26.333    501.791    505.272    501.791    502.187    501.791
 40.970    494.821    505.673    -10.851    501.648    505.273    501.648    502.048    501.648
 41.070    518.285    505.705     12.579    501.505    505.300    501.505    501.911    501.505
 41.170    504.000    505.771     -1.771    501.365    505.361    501.365    501.776    501.365
 41.270    492.000    505.878    -13.878    501.226    505.463    501.226    501.642    501.226
 41.370    518.438    506.038     12.400    501.089    505.617    501.089    501.511    501.089
 41.470    499.482    506.267     -6.785    500.953    505.841    500.953    501.381    500.953
 41.570    494.000    506.589    -12.589    500.819    506.157    500.819    501.253    500.819
 41.670    480.104    507.050    -26.946    500.687    506.612    500.687    501.126    500.687
 41.770    472.000    507.749    -35.749    500.556    507.306    500.556    501.002    500.556
 41.870    498.000    508.930    -10.930    500.427    508.480    500.427    500.879    500.427
 41.970    519.000    511.154      7.846    500.299    510.698    500.299    500.758    500.299
 42.070    449.000    515.549    -66.549    500.173    515.088    500.173    500.639    500.173
 42.170    510.000    523.930    -13.930    500.049    523.466    500.049    500.522    500.049
 42.270    529.000    538.387     -9.387    499.926    537.922    499.926    500.407    499.926
 42.370    566.000    560.025      5.975    499.805    559.562    499.805    500.294    499.805
 42.470    601.000    587.065     13.935    499.685    586.608    499.685    500.183    499.685
 42.570    625.671    613.198     12.473    499.568    612.747    499.568    500.073    499.568
 42.670    591.790    628.150    -36.360    499.451    627.701    499.451    499.965    499.451
 42.770    593.664    624.077    -30.414    499.337    623.621    499.337    499.860    499.337
 42.870    616.342    603.374     12.968    499.224    602.899    499.224    499.756    499.224
 42.970    587.103    575.827     11.276    499.112    575.329    499.112    499.654    499.112
 43.070    546.000    550.372     -4.372    499.002    549.849    499.002    499.555    499.002
 43.170    512.000    531.413    -19.413    498.894    530.868    498.894    499.457    498.894
 43.270    510.000    519.387     -9.387    498.787    518.823    498.787    499.361    498.787
 43.370    487.000    512.629    -25.629    498.682    512.050    498.682    499.268    498.682
 43.470    535.567    509.083     26.484    498.579    508.489    498.579    499.176    498.579
 43.570    467.438    507.202    -39.764    498.477    506.595    498.477    499.087    498.477
 43.670    479.035    506.106    -27.071    498.377    505.485    498.377    499.000    498.377
 43.770    513.000    505.379      7.621    498.278    504.743    498.278    498.915    498.278
 43.870    511.000    504.846      6.154    498.181    504.196    498.181    498.832    498.181
 43.970    498.000    504.434     -6.434    498.085    503.769    498.085    498.751    498.085
 44.070    536.000    504.106     31.894    497.991    503.426    497.991    498.673    497.991
 44.170    488.869    503.844    -14.975    497.899    503.146    497.899    498.597    497.899
 44.270    510.000    503.632      6.368    497.808    502.917    497.808    498.524    497.808
 44.370    554.000    503.461     50.539    497.719    502.728    497.719    498.453    497.719
 44.470    532.920    503.324     29.596    497.632    502.572    497.632    498.384    497.632
 44.570    504.000    503.217      0.783    497.546    502.445    497.546    498.318    497.546
 44.670    530.000    503.134     26.866    497.461    502.341    497.461    498.255    497.461
 44.770    485.214    503.074    -17.860    497.378    502.259    497.378    498.194    497.378
 44.870    500.000    503.034     -3.034    497.297    502.195    497.297    498.136    497.297
 44.970    510.000    503.013      6.987    497.217    502.149    497.217    498.082    497.217
 45.070    534.656    503.010     31.646    497.139    502.120    497.139    498.030    497.139
 45.170    481.000    503.024    -22.024    497.063    502.106    497.063    497.981    497.063
 45.270    498.000    503.056     -5.056    496.988    502.107    496.988    497.936    496.988
 45.370    532.482    503.104     29.378    496.914    502.124    496.914    497.894    496.914
 45.470    509.000    503.170      5.830    496.842    502.156    496.842    497.856    496.842
 45.570    523.000    503.255     19.745    496.772    502.205    496.772    497.822    496.772
 45.670    471.000    503.359    -32.359    496.703    502.270    496.703    497.791    496.703
 45.770    467.000    503.483    -36.483    496.636    502.353    496.636    497.765    496.636
 45.870    526.000    503.630     22.370    496.570    502.456    496.570    497.744    496.570
 45.970    532.562    503.802     28.760    496.506    502.580    496.506    497.728    496.506
 46.070    476.000    504.002    -28.002    496.443    502.728    496.443    497.717    496.443
 46.170    501.000    504.233     -3.233    496.382    502.903    496.382    497.711    496.382
 46.270    497.000    504.500     -7.500    496.322    503.109    496.322    497.712    496.322
 46.370    446.000    504.809    -58.809    496.264    503.353    496.264    497.719    496.264
 46.470    513.000    505.168      7.832    496.207    503.640    496.207    497.734    496.207
 46.570    496.000    505.586     -9.586    496.152    503.980    496.152    497.757    496.152
 46.670    506.000    506.081     -0.081    496.098    504.389    496.098    497.789    496.098
 46.770    501.000    506.679     -5.679    496.046    504.892    496.046    497.831    496.046
 46.870    548.215    507.435     40.780    495.996    505.544    495.996    497.885    495.996
 46.970    481.984    508.472    -26.488    495.947    506.466    495.947    497.951    495.947
 47.070    475.000    510.061    -35.061    495.899    507.926    495.899    498.031    495.899
 47.170    485.119    512.725    -27.606    495.853    510.445    495.853    498.128    495.853
 47.270    514.000    517.316     -3.316    495.808    514.872    495.808    498.244    495.808
 47.370    558.239    524.919     33.320    495.765    522.289    495.765    498.381    495.765
 47.470    522.647    536.413    -13.766    495.723    533.570    495.723    498.544    495.723
 47.570    563.000    551.721     11.279    495.683    548.634    495.683    498.737    495.683
 47.670    533.546    568.999    -35.453    495.644    565.633    495.644    498.965    495.644
 47.770    587.898    584.172      3.726    495.607    580.488    495.607    499.236    495.607
 47.870    607.000    591.826     15.174    495.571    587.779    495.571    499.559    495.571
 47.970    642.000    588.735     53.265    495.537    584.272    495.537    499.946    495.537
 48.070    546.000    577.097    -31.097    495.504    572.143    495.504    500.414    495.504
 48.170    579.000    562.222     16.778    495.472    556.675    495.472    500.988    495.472
 48.270    568.343    548.699     19.645    495.442    542.410    495.442    501.710    495.442
 48.370    577.000    539.001     37.999    495.413    531.755    495.413    502.646    495.413
 48.470    552.000    533.734     18.266    495.386    525.200    495.386    503.912    495.386
 48.570    540.163    532.427      7.736    495.360    522.088    495.360    505.693    495.360
 48.670    550.000    534.358     15.642    495.336    521.412    495.336    508.278    495.336
 48.770    541.000    539.097      1.903    495.313    522.335    495.313    512.071    495.313
 48.870    518.000    546.665    -28.665    495.291    524.374    495.291    517.579    495.291
 48.970    500.000    557.443    -57.443    495.271    527.378    495.271    525.331    495.271
 49.070    537.247    571.992    -34.745    495.252    531.504    495.252    535.735    495.252
 49.170    589.000    590.990     -1.990    495.235    537.369    495.235    548.850    495.235
 49.270    619.936    615.559      4.377    495.219    546.683    495.219    564.086    495.219
 49.370    678.381    648.425     29.956    495.204    563.798    495.204    579.817    495.204
 49.470    742.319    696.421     45.898    495.191    598.515    495.191    593.072    495.191
 49.570    824.000    774.353     49.647    495.179    669.418    495.179    600.068    495.179
 49.670    864.724    907.767    -43.044    495.168    804.575    495.168    598.280    495.168
 49.770   1178.719   1127.622     51.098    495.159   1034.224    495.159    588.429    495.159
 49.870   1509.505   1450.850     58.655    495.151   1371.998    495.151    573.829    495.151
 49.970   1877.838   1852.921     24.917    495.144   1789.816    495.144    558.055    495.144
 50.070   2218.193   2250.139    -31.945    495.139   2201.578    495.139    543.534    495.139
 50.170   2429.497   2512.761    -83.264    495.135   2476.373    495.135    531.450    495.135
 50.270   2631.000   2527.789    103.211    495.132   2500.869    495.132    522.103    495.132
 50.370   2296.000   2284.002     11.998    495.131   2264.006    495.131    515.273    495.131
 50.470   1792.000   1883.170    -91.170    495.131   1867.998    495.131    510.487    495.131
 50.570   1468.950   1460.110      8.840    495.132   1448.202    495.132    507.211    495.132
 50.670   1020.000   1110.762    -90.762    495.135   1101.054    495.135    504.974    495.135
 50.770    801.000    871.891    -70.891    495.139    863.702    495.139    503.419    495.139
 50.870    679.000    733.726    -54.726    495.144    726.634    495.144    502.298    495.144
 50.970    663.000    664.665     -1.665    495.150    658.405    495.150    501.457    495.150
 51.070    624.000    632.145     -8.145    495.158    626.540    495.158    500.802    495.158
 51.170    596.000    613.265    -17.265    495.167    608.189    495.167    500.277    495.167
 51.270    567.666    596.937    -29.270    495.177    592.296    495.177    499.847    495.177
 51.370    579.000    580.679     -1.679    495.189    576.399    495.189    499.492    495.189
 51.470    609.461    565.618     43.843    495.201    561.640    495.201    499.196    495.201
 51.570    565.334    553.187     12.147    495.215    549.465    495.215    498.949    495.215
 51.670    531.991    544.024    -12.033    495.230    540.520    495.230    498.742    495.230
 51.770    536.000    537.958     -1.958    495.247    534.641    495.247    498.569    495.247
 51.870    504.000    534.360    -30.360    495.264    531.204    495.264    498.424    495.264
 51.970    552.000    532.533     19.467    495.283    529.514    495.283    498.305    495.283
 52.070    582.000    531.940     50.060    495.303    529.039    495.303    498.206    495.303
 52.170    539.000    532.287      6.713    495.324    529.486    495.324    498.127    495.324
 52.270    591.000    533.516     57.484    495.347    530.801    495.347    498.063    495.347
 52.370    546.000    535.839     10.161    495.370    533.195    495.370    498.015    495.370
 52.470    588.000    539.887     48.113    495.395    537.303    495.395    497.979    495.395
 52.570    567.000    547.074     19.926    495.420    544.539    495.420    497.956    495.420
 52.670    634.000    560.143     73.857    495.447    557.647    495.447    497.943    495.447
 52.770    574.000    583.702     -9.702    495.476    581.236    495.476    497.940    495.476
 52.870    681.000    624.202     56.798    495.505    621.757    495.505    497.946    495.505
 52.970    742.000    688.610     53.390    495.535    686.179    495.535    497.961    495.535
 53.070    789.000    781.331      7.669    495.567    778.907    495.567    497.984    495.567
 53.170    893.000    899.852     -6.852    495.599    897.431    495.599    498.015    495.599
 53.270   1059.631   1030.595     29.037    495.633   1028.173    495.633    498.054    495.633
 53.370   1160.000   1147.013     12.987    495.668   1144.589    495.668    498.099    495.668
 53.470   1226.512   1214.378     12.134    495.704   1211.949    495.704    498.152    495.704
 53.570   1188.000   1207.215    -19.215    495.741   1204.777    495.741    498.212    495.741
 53.670   1063.000   1128.755    -65.755    495.779   1126.295    495.779    498.278    495.779
 53.770   1029.000   1007.919     21.081    495.818   1005.425    495.818    498.352    495.818
 53.870    901.000    878.583     22.417    495.858    876.044    495.858    498.432    495.858
 53.970    791.000    764.888     26.112    495.899    762.294    495.899    498.520    495.899
 54.070    723.432    678.120     45.312    495.942    675.465    495.942    498.614    495.942
 54.170    579.000    619.183    -40.183    495.985    616.463    495.985    498.716    495.985
 54.270    627.457    582.923     44.533    496.029    580.134    496.029    498.826    496.029
 54.370    563.000    562.321      0.679    496.075    559.456    496.075    498.944    496.075
 54.470    525.000    551.233    -26.233    496.121    548.287    496.121    499.070    496.121
 54.570    549.000    545.428      3.572    496.168    542.394    496.168    499.205    496.168
 54.670    564.000    542.448     21.552    496.217    539.316    496.217    499.349    496.217
 54.770    525.000    541.043    -16.043    496.266    537.807    496.266    499.503    496.266
 54.870    534.000    540.644     -6.644    496.316    537.293    496.316    499.668    496.316
 54.970    549.000    541.011      7.989    496.367    537.535    496.367    499.844    496.367
 55.070    546.000    542.057      3.943    496.420    538.445    496.420    500.033    496.420
 55.170    539.000    543.772     -4.772    496.473    540.011    496.473    500.234    496.473
 55.270    566.000    546.195     19.805    496.527    542.272    496.527    500.451    496.527
 55.370    607.000    549.416     57.584    496.582    545.316    496.582    500.683    496.582
 55.470    523.550    553.601    -30.050    496.638    549.307    496.638    500.932    496.638
 55.570    552.000    559.062     -7.062    496.695    554.557    496.695    501.201    496.695
 55.670    526.743    566.449    -39.706    496.753    561.712    496.753    501.490    496.753
 55.770    587.000    577.177      9.823    496.811    572.184    496.811    501.804    496.811
 55.870    585.000    594.253     -9.253    496.871    588.978    496.871    502.143    496.871
 55.970    590.189    623.619    -33.430    496.931    618.032    496.931    502.512    496.931
 56.070    694.000    675.727     18.273    496.993    669.792    496.993    502.915    496.993
 56.170    740.000    766.407    -26.407    497.055    760.083    497.055    503.355    497.055
 56.270    869.000    915.304    -46.304    497.118    908.546    497.118    503.838    497.118
 56.370   1090.000   1140.150    -50.150    497.182   1132.906    497.182    504.370    497.182
 56.470   1406.000   1446.760    -40.760    497.246   1438.981    497.246    504.958    497.246
 56.570   1790.000   1817.480    -27.480    497.312   1809.115    497.312    505.611    497.312
 56.670   2068.000   2202.746   -134.746    497.378   2193.743    497.378    506.339    497.378
 56.770   2583.221   2521.256     61.965    497.446   2511.559    497.446    507.156    497.446
 56.870   2723.000   2679.791     43.209    497.514   2669.324    497.514    508.077    497.514
 56.970   2598.000   2622.341    -24.341    497.582   2610.984    497.582    509.122    497.582
 57.070   2419.223   2371.835     47.388    497.652   2359.410    497.652    510.315    497.652
 57.170   2031.858   2010.831     21.027    497.722   1997.113    497.722    511.690    497.722
 57.270   1689.000   1629.578     59.422    497.793   1614.301    497.793    513.295    497.793
 57.370   1291.448   1293.274     -1.827    497.865   1276.119    497.865    515.199    497.865
 57.470    986.308   1034.113    -47.805    497.938   1014.665    497.938    517.513    497.938
 57.570    917.000    856.370     60.630    498.011    834.046    498.011    520.419    498.011
 57.670    754.019    747.228      6.792    498.085    721.156    498.085    524.206    498.085
 57.770    708.000    688.153     19.847    498.160    657.003    498.160    529.336    498.160
 57.870    671.000    663.007      7.993    498.235    624.757    498.235    536.496    498.235
 57.970    674.000    661.693     12.307    498.311    613.357    498.311    546.648    498.311
 58.070    691.414    680.339     11.074    498.388    617.709    498.388    561.009    498.388
 58.170    749.000    719.614     29.386    498.466    637.107    498.466    580.952    498.466
 58.270    772.000    782.299    -10.299    498.544    673.037    498.544    607.774    498.544
 58.370    870.721    870.697      0.024    498.623    726.940    498.623    642.337    498.623
 58.470   1021.117    984.274     36.844    498.702    798.307    498.702    684.616    498.702
 58.570   1093.000   1117.599    -24.599    498.782    883.165    498.782    733.158    498.782
 58.670   1267.000   1259.379      7.621    498.863    973.759    498.863    784.429    498.863
 58.770   1334.054   1393.509    -59.454    498.944   1060.269    498.944    832.140    498.944
 58.870   1557.000   1502.213     54.787    499.026   1133.886    499.026    867.327    499.026
 58.970   1613.000   1569.163     43.837    499.109   1187.372    499.109    880.894    499.109
 59.070   1598.000   1582.817     15.183    499.192   1213.335    499.192    868.691    499.192
 59.170   1522.835   1541.923    -19.089    499.276   1206.692    499.276    834.541    499.276
 59.270   1523.881   1458.973     64.907    499.360   1170.954    499.360    787.417    499.360
 59.370   1321.570   1355.926    -34.356    499.445   1119.046    499.445    736.351    499.445
 59.470   1286.000   1255.477     30.523    499.531   1067.242    499.531    687.767    499.531
 59.570   1177.000   1176.568      0.432    499.617   1030.828    499.617    645.320    499.617
 59.670   1165.000   1134.967     30.033    499.703   1024.035    499.703    610.553    499.703
 59.770   1198.595   1142.518     56.077    499.790   1058.624    499.790    583.548    499.790
 59.870   1237.000   1202.392     34.608    499.878   1138.598    499.878    563.475    499.878
 59.970   1356.000   1304.337     51.663    499.966   1254.996    499.966    549.054    499.966
 60.070   1386.869   1423.283    -36.413    500.055   1384.133    500.055    538.909    500.055
 60.170   1609.000   1522.153     86.847    500.144   1490.174    500.144    531.812    500.144
 60.270   1490.472   1561.664    -71.192    500.233   1534.817    500.233    526.793    500.233
 60.370   1493.000   1518.924    -25.924    500.323   1495.864    500.323    523.151    500.323
 60.470   1445.000   1401.388     43.612    500.414   1381.217    500.414    520.420    500.414
 60.570   1305.000   1239.475     65.525    500.505   1221.572    500.505    518.305    500.505
 60.670   1072.965   1068.112      4.854    500.596   1052.023    500.596    516.630    500.596
 60.770    966.000    914.267     51.733    500.688    899.641    500.688    515.289    500.688
 60.870    810.000    792.833     17.167    500.780    779.379    500.780    514.224    500.780
 60.970    676.000    707.614    -31.614    500.873    695.082    500.873    513.400    500.873
 61.070    656.000    655.156      0.844    500.966    643.316    500.966    512.799    500.966
 61.170    666.534    629.455     37.079    501.059    618.095    501.059    512.407    501.059
 61.270    635.000    625.826      9.174    501.153    614.747    501.153    512.211    501.153
 61.370    643.000    642.991      0.009    501.247    632.014    501.247    512.192    501.247
 61.470    673.000    683.229    -10.229    501.341    672.205    501.341    512.315    501.341
 61.570    769.000    750.768     18.232    501.436    739.602    501.436    512.527    501.436
 61.670    840.000    848.790     -8.790    501.531    837.469    501.531    512.746    501.531
 61.770    991.000    975.710     15.290    501.627    964.330    501.627    512.867    501.627
 61.870   1131.000   1121.855      9.145    501.723   1110.626    501.723    512.781    501.723
 61.970   1288.000   1267.770     20.230    501.819   1256.967    501.819    512.432    501.819
 62.070   1442.178   1385.440     56.737    501.915   1375.323    501.915    511.842    501.915
 62.170   1489.398   1444.976     44.422    502.012   1435.724    502.012    511.098    502.012
 62.270   1404.000   1428.213    -24.213    502.109   1419.900    502.109    510.300    502.109
 62.370   1277.512   1340.148    -62.635    502.206   1332.752    502.206    509.526    502.206
 62.470   1169.000   1205.337    -36.337    502.304   1198.777    502.304    508.828    502.304
 62.570   1097.000   1054.012     42.988    502.402   1048.175    502.402    508.230    502.402
 62.670    956.758    911.124     45.634    502.500    905.890    502.500    507.741    502.500
 62.770    786.470    792.053     -5.583    502.598    787.308    502.598    507.355    502.598
 62.870    680.000    702.594    -22.594    502.696    698.242    502.696    507.059    502.696
 62.970    589.000    641.249    -52.249    502.795    637.212    502.795    506.839    502.795
 63.070    632.649    602.491     30.158    502.894    598.709    502.894    506.678    502.894
 63.170    626.283    579.762     46.521    502.993    576.191    502.993    506.563    502.993
 63.270    561.000    567.439     -6.439    503.092    564.047    503.092    506.481    503.092
 63.370    573.029    561.658     11.370    503.192    558.420    503.192    506.424    503.192
 63.470    566.000    560.382      5.618    503.291    557.279    503.291    506.387    503.291
 63.570    577.843    563.142     14.701    503.391    560.159    503.391    506.365    503.391
 63.670    556.000    570.759    -14.759    503.491    567.881    503.491    506.354    503.491
 63.770    556.000    585.072    -29.072    503.591    582.288    503.591    506.354    503.591
 63.870    650.850    608.578     42.272    503.691    605.876    503.691    506.362    503.691
 63.970    688.000    643.808     44.192    503.791    641.176    503.791    506.378    503.791
 64.070    754.000    692.394     61.606    503.891    689.821    503.891    506.401    503.891
 64.170    760.000    753.926      6.074    503.992    751.404    503.992    506.430    503.992
 64.270    859.960    824.878     35.082    504.092    822.400    504.092    506.465    504.092
 64.370    912.000    897.923     14.077    504.193    895.488    504.193    506.504    504.193
 64.470    958.265    962.189     -3.924    504.293    959.800    504.293    506.549    504.293
 64.570   1044.000   1005.568     38.432    504.394   1003.232    504.394    506.597    504.394
 64.670   1002.000   1019.491    -17.491    504.495   1017.218    504.495    506.650    504.495
 64.770   1008.368   1002.823      5.545    504.595   1000.618    504.595    506.706    504.595
 64.870    993.000    961.304     31.696    504.696    959.168    504.696    506.766    504.696
 64.970    890.108    904.446    -14.337    504.797    902.376    504.797    506.830    504.797
 65.070    865.000    842.400     22.600    504.898    840.390    504.898    506.896    504.898
 65.170    800.000    783.244     16.756    504.998    781.284    504.998    506.965    504.998
 65.270    749.000    731.502     17.498    505.099    729.583    505.099    507.037    505.099
 65.370    737.438    688.450     48.988    505.200    686.563    505.200    507.111    505.200
 65.470    620.279    653.565    -33.286    505.300    651.702    505.300    507.188    505.300
 65.570    600.252    625.841    -25.589    505.401    623.996    505.401    507.267    505.401
 65.670    592.000    604.285    -12.285    505.501    602.455    505.501    507.349    505.501
 65.770    560.000    587.952    -27.952    505.602    586.133    505.602    507.433    505.602
 65.870    562.000    575.968    -13.968    505.702    574.158    505.702    507.518    505.702
 65.970    550.000    567.565    -17.565    505.802    565.764    505.802    507.606    505.802
 66.070    542.000    562.086    -20.086    505.903    560.293    505.903    507.696    505.903
 66.170    583.000    558.968     24.032    506.003    557.182    506.003    507.788    506.003
 66.270    549.586    557.749     -8.163    506.103    555.969    506.103    507.882    506.103
 66.370    553.000    558.086     -5.086    506.202    556.310    506.202    507.977    506.202
 66.470    545.000    559.792    -14.792    506.302    558.019    506.302    508.075    506.302
 66.570    537.009    562.899    -25.890    506.401    561.126    506.401    508.174    506.401
 66.670    545.000    567.761    -22.761    506.501    565.986    506.501    508.276    506.501
 66.770    617.894    575.258     42.635    506.600    573.480    506.600    508.379    506.600
 66.870    566.358    587.136    -20.778    506.699    585.351    506.699    508.484    506.699
 66.970    577.000    606.477    -29.477    506.798    604.681    506.798    508.591    506.798
 67.070    648.605    638.230     10.375    506.896    636.422    506.896    508.700    506.896
 67.170    674.000    689.547    -15.547    506.995    687.721    506.995    508.811    506.995
 67.270    802.000    769.532     32.468    507.093    767.686    507.093    508.924    507.093
 67.370    900.000    887.981     12.019    507.191    886.114    507.191    509.038    507.191
 67.470    995.000   1052.842    -57.842    507.288   1050.953    507.288    509.155    507.288
 67.570   1242.724   1266.609    -23.885    507.386   1264.701    507.386    509.275    507.386
 67.670   1544.000   1522.471     21.529    507.483   1520.553    507.483    509.397    507.483
 67.770   1763.000   1801.352    -38.352    507.580   1799.436    507.580    509.522    507.580
 67.870   2047.000   2070.963    -23.963    507.677   2069.063    507.677    509.650    507.677
 67.970   2231.000   2288.339    -57.339    507.773   2286.467    507.773    509.781    507.773
 68.070   2328.425   2408.910    -80.486    507.869   2407.072    507.869    509.915    507.869
 68.170   2443.000   2403.442     39.558    507.965   2401.627    507.965    510.052    507.965
 68.270   2260.000   2273.447    -13.447    508.060   2271.626    508.060    510.193    508.060
 68.370   2000.183   2050.238    -50.055    508.155   2048.375    508.155    510.337    508.155
 68.470   1775.890   1778.747     -2.858    508.250   1776.809    508.250    510.486    508.250
 68.570   1572.037   1501.216     70.821    508.344   1499.177    508.344    510.639    508.344
 68.670   1298.213   1248.828     49.386    508.438   1246.675    508.438    510.798    508.438
 68.770   1061.000   1039.537     21.463    508.532   1037.265    508.532    510.961    508.532
 68.870    856.000    879.228    -23.228    508.625    876.834    508.625    511.131    508.625
 68.970    827.000    764.791     62.209    508.718    762.279    508.718    511.306    508.718
 69.070    679.000    688.002     -9.002    508.811    685.373    508.811    511.489    508.811
 69.170    649.000    639.049      9.951    508.903    636.304    508.903    511.680    508.903
 69.270    582.000    608.962    -26.962    508.995    606.098    508.995    511.879    508.995
 69.370    551.798    590.770    -38.972    509.086    587.782    509.086    512.088    509.086
 69.470    575.000    579.683     -4.683    509.177    576.562    509.177    512.307    509.177
 69.570    544.424    572.716    -28.292    509.267    569.451    509.267    512.538    509.267
 69.670    573.279    568.159      5.120    509.357    564.738    509.357    512.783    509.357
 69.770    568.957    565.094      3.863    509.447    561.502    509.447    513.042    509.447
 69.870    569.000    563.050      5.950    509.536    559.270    509.536    513.319    509.536
 69.970    589.862    561.797     28.064    509.624    557.809    509.624    513.614    509.624
 70.070    614.000    561.228     52.772    509.712    557.010    509.712    513.931    509.712
 70.170    579.000    561.309     17.691    509.800    556.836    509.800    514.273    509.800
 70.270    567.000    562.070      4.930    509.887    557.313    509.887    514.643    509.887
 70.370    551.000    563.621    -12.621    509.974    558.547    509.974    515.045    509.974
 70.470    597.000    566.208     30.792    510.060    560.778    510.060    515.486    510.060
 70.570    581.000    570.312     10.688    510.145    564.482    510.145    515.971    510.145
 70.670    534.000    576.817    -42.817    510.230    570.532    510.230    516.508    510.230
 70.770    590.000    587.234      2.766    510.315    580.430    510.315    517.107    510.315
 70.870    562.626    603.984    -41.358    510.398    596.579    510.398    517.785    510.398
 70.970    616.826    630.614    -13.788    510.482    622.506    510.482    518.562    510.482
 71.070    659.000    671.846    -12.846    510.564    662.897    510.564    519.472    510.564
 71.170    735.000    733.244      1.756    510.646    723.262    510.646    520.567    510.646
 71.270    825.337    820.333      5.004    510.728    809.042    510.728    521.933    510.728
 71.370    900.000    937.126    -37.126    510.809    924.118    510.809    523.702    510.809
 71.470   1018.000   1084.259    -66.259    510.889   1068.925    510.889    526.075    510.889
 71.570   1240.000   1257.131    -17.131    510.969   1238.573    510.969    529.347    510.969
 71.670   1432.739   1444.585    -11.846    511.048   1421.505    511.048    533.923    511.048
 71.770   1586.000   1628.557    -42.557    511.126   1599.143    511.126    540.323    511.126
 71.870   1757.000   1785.315    -28.315    511.204   1747.147    511.204    549.158    511.204
 71.970   1811.787   1889.546    -77.760    511.281   1839.563    511.281    561.071    511.281
 72.070   1910.000   1922.343    -12.343    511.358   1856.909    511.358    576.634    511.358
 72.170   1924.000   1879.969     44.031    511.433   1795.086    511.433    596.200    511.433
 72.270   1845.315   1775.997     69.318    511.509   1667.691    511.509    619.737    511.509
 72.370   1675.000   1634.295     40.705    511.583   1499.177    511.583    646.655    511.583
 72.470   1482.000   1479.451      2.549    511.657   1315.431    511.657    675.652    511.657
 72.570   1336.408   1330.680      5.728    511.730   1137.818    511.730    704.581    511.730
 72.670   1202.000   1199.537      2.463    511.802    980.926    511.802    730.409    511.802
 72.770   1107.412   1089.979     17.432    511.873    852.369    511.873    749.484    511.873
 72.870    898.000   1000.220   -102.220    511.944    753.771    511.944    758.394    511.944
 72.970    939.846    925.788     14.058    512.014    682.483    512.014    755.320    512.014
 73.070    759.000    862.393   -103.393    512.084    633.529    512.084    740.947    512.084
 73.170    699.000    807.237   -108.237    512.152    601.300    512.152    718.089    512.152
 73.270    755.568    758.900     -3.332    512.220    580.712    512.220    690.408    512.220
 73.370    704.506    716.766    -12.260    512.287    567.770    512.287    661.284    512.287
 73.470    628.000    680.612    -52.612    512.353    559.669    512.353    633.297    512.353
 73.570    612.000    650.354    -38.354    512.419    554.628    512.419    608.148    512.419
 73.670    618.756    625.885     -7.128    512.483    551.617    512.483    586.756    512.483
 73.770    619.000    606.941     12.059    512.547    550.092    512.547    569.404    512.547
 73.870    583.000    593.065    -10.065    512.610    549.780    512.610    555.906    512.610
 73.970    598.565    583.611     14.954    512.673    550.519    512.673    545.779    512.673
 74.070    623.000    577.798     45.202    512.734    552.151    512.734    538.400    512.734
 74.170    599.000    574.765     24.235    512.795    554.451    512.795    533.134    512.795
 74.270    624.000    573.615     50.385    512.854    557.089    512.854    529.411    512.854
 74.370    619.000    573.449     45.551    512.913    559.629    512.913    526.771    512.913
 74.470    593.000    573.408     19.592    512.971    561.555    512.971    524.867    512.971
 74.570    634.000    572.756     61.244    513.028    562.375    513.028    523.455    513.028
 74.670    605.000    571.019     33.981    513.084    561.778    513.084    522.371    513.084
 74.770    561.527    568.105     -6.578    513.140    559.778    513.140    521.509    513.140
 74.870    620.000    564.282     55.718    513.194    556.712    513.194    520.804    513.194
 74.970    571.637    560.036     11.601    513.248    553.105    513.248    520.212    513.248
 75.070    512.966    555.912    -42.946    513.301    549.533    513.301    519.707    513.301
 75.170    572.000    552.439     19.561    513.352    546.541    513.352    519.271    513.352
 75.270    531.000    550.113    -19.113    513.403    544.639    513.403    518.892    513.403
 75.370    534.358    549.419    -15.060    513.453    544.320    513.453    518.560    513.453
 75.470    534.000    550.854    -16.854    513.502    546.090    513.502    518.268    513.502
 75.570    531.000    554.947    -23.947    513.550    550.482    513.550    518.011    513.550
 75.670    523.470    562.227    -38.757    513.597    558.030    513.597    517.784    513.597
 75.770    540.437    573.144    -32.707    513.643    569.188    513.643    517.582    513.643
 75.870    563.000    587.933    -24.933    513.688    584.194    513.688    517.403    513.688
 75.970    617.000    606.436     10.564    513.733    602.891    513.733    517.244    513.733
 76.070    610.000    627.937    -17.937    513.776    624.568    513.776    517.102    513.776
 76.170    609.000    651.049    -42.049    513.818    647.841    513.818    516.975    513.818
 76.270    697.000    673.686     23.314    513.859    670.625    513.859    516.861    513.859
 76.370    714.000    693.163     20.837    513.900    690.239    513.900    516.759    513.900
 76.470    674.000    706.543    -32.543    513.939    703.748    513.939    516.668    513.939
 76.570    697.000    711.360    -14.360    513.977    708.687    513.977    516.586    513.977
 76.670    731.462    706.584     24.878    514.014    704.028    514.014    516.512    514.014
 76.770    729.000    693.124     35.876    514.050    690.680    514.050    516.446    514.050
 76.870    651.000    673.371    -22.371    514.086    671.031    514.086    516.386    514.086
 76.970    617.000    650.241    -33.241    514.120    647.999    514.120    516.332    514.120
 77.070    642.806    626.426     16.380    514.153    624.273    514.153    516.283    514.153
 77.170    589.000    604.023    -15.023    514.185    601.953    514.185    516.239    514.185
 77.270    596.000    584.417     11.583    514.216    582.424    514.216    516.199    514.216
 77.370    572.000    568.299      3.701    514.246    566.376    514.246    516.162    514.246
 77.470    515.000    555.769    -40.769    514.274    553.910    514.274    516.129    514.274
 77.570    513.966    546.507    -32.540    514.302    544.707    514.302    516.099    514.302
 77.670    564.000    539.957     24.043    514.329    538.212    514.329    516.072    514.329
 77.770    537.000    535.493      1.507    514.355    533.799    514.355    516.047    514.355
 77.870    522.000    532.531    -10.531    514.379    530.884    514.379    516.024    514.379
 77.970    495.000    530.592    -35.592    514.402    528.990    514.402    516.003    514.402
 78.070    522.000    529.320     -7.320    514.425    527.760    514.425    515.984    514.425
 78.170    515.010    528.453    -13.443    514.446    526.932    514.446    515.966    514.446
 78.270    506.000    527.849    -21.849    514.466    526.364    514.466    515.950    514.466
 78.370    527.000    527.445     -0.445    514.485    525.994    514.485    515.935    514.485
 78.470    579.000    527.173     51.827    514.503    525.754    514.503    515.921    514.503
 78.570    553.958    527.006     26.951    514.520    525.617    514.520    515.909    514.520
 78.670    552.000    526.940     25.060    514.535    525.577    514.535    515.897    514.535
 78.770    532.000    526.982      5.018    514.549    525.644    514.549    515.887    514.549
 78.870    505.000    527.149    -22.149    514.563    525.833    514.563    515.878    514.563
 78.970    540.000    527.466     12.534    514.575    526.169    514.575    515.870    514.575
 79.070    533.000    527.962      5.038    514.586    526.682    514.586    515.865    514.586
 79.170    547.041    528.669     18.371    514.596    527.401    514.596    515.862    514.596
 79.270    556.000    529.618     26.382    514.604    528.358    514.604    515.863    514.604
 79.370    507.000    530.838    -23.838    514.612    529.579    514.612    515.868    514.612
 79.470    521.000    532.357    -11.357    514.618    531.093    514.618    515.878    514.618
 79.570    534.397    534.211      0.186    514.623    532.935    514.623    515.895    514.623
 79.670    543.679    536.456      7.223    514.627    535.159    514.627    515.919    514.627
 79.770    499.000    539.186    -40.186    514.630    537.860    514.630    515.951    514.630
 79.870    557.000    542.556     14.444    514.631    541.190    514.631    515.991    514.631
 79.970    579.000    546.807     32.193    514.632    545.394    514.632    516.039    514.632
 80.070    551.949    552.295     -0.346    514.631    550.827    514.631    516.095    514.631
 80.170    563.380    559.485      3.895    514.629    557.955    514.629    516.155    514.629
 80.270    525.476    568.898    -43.423    514.625    567.306    514.625    516.216    514.625
 80.370    526.000    581.011    -55.011    514.621    579.359    514.621    516.274    514.621
 80.470    594.481    596.131     -1.649    514.615    594.428    514.615    516.322    514.615
 80.570    639.890    614.271     25.619    514.608    612.534    514.608    516.353    514.608
 80.670    588.000    635.069    -47.069    514.600    633.320    514.600    516.361    514.600
 80.770    610.000    657.727    -47.727    514.590    655.994    514.590    516.342    514.590
 80.870    689.000    681.047      7.953    514.579    679.356    514.579    516.295    514.579
 80.970    675.000    703.553    -28.553    514.567    701.926    514.567    516.225    514.567
 81.070    703.000    723.707    -20.707    514.554    722.162    514.554    516.137    514.554
 81.170    688.942    740.123    -51.182    514.540    738.668    514.540    516.040    514.540
 81.270    727.000    751.695    -24.695    514.524    750.333    514.524    515.938    514.524
 81.370    747.077    757.691    -10.614    514.507    756.418    514.507    515.838    514.507
 81.470    786.000    757.843     28.157    514.489    756.653    514.489    515.742    514.489
 81.570    770.042    752.361     17.681    514.469    751.244    514.469    515.652    514.469
 81.670    758.530    741.857     16.673    514.449    740.803    514.449    515.570    514.449
 81.770    768.000    727.292     40.708    514.427    726.291    514.427    515.495    514.427
 81.870    702.512    709.927     -7.415    514.403    708.969    514.403    515.429    514.403
 81.970    725.408    691.145     34.263    514.379    690.220    514.379    515.368    514.379
 82.070    726.000    672.174     53.826    514.353    671.275    514.353    515.314    514.353
 82.170    663.609    653.870      9.739    514.326    652.990    514.326    515.264    514.326
 82.270    666.000    636.676     29.324    514.297    635.811    514.297    515.217    514.297
 82.370    648.000    620.750     27.250    514.267    619.895    514.267    515.172    514.267
 82.470    631.000    606.148     24.852    514.236    605.299    514.236    515.130    514.236
 82.570    598.495    592.967      5.528    514.204    592.122    514.204    515.088    514.204
 82.670    616.957    581.370     35.587    514.170    580.526    514.170    515.046    514.170
 82.770    613.000    571.544     41.456    514.135    570.700    514.135    515.005    514.135
 82.870    546.000    563.659    -17.659    514.099    562.814    514.099    514.963    514.099
 82.970    557.000    557.851     -0.851    514.061    557.003    514.061    514.920    514.061
 83.070    546.000    554.199     -8.199    514.023    553.348    514.023    514.877    514.023
 83.170    584.886    552.712     32.174    513.982    551.857    513.982    514.834    513.982
 83.270    532.000    553.295    -21.295    513.941    552.435    513.941    514.789    513.941
 83.370    533.000    555.735    -22.735    513.898    554.870    513.898    514.744    513.898
 83.470    537.383    559.686    -22.302    513.854    558.815    513.854    514.698    513.854
 83.570    561.000    564.666     -3.666    513.808    563.790    513.808    514.651    513.808
 83.670    573.000    570.073      2.927    513.762    569.192    513.762    514.603    513.762
 83.770    583.511    575.213      8.298    513.714    574.329    513.714    514.554    513.714
 83.870    627.000    579.356     47.644    513.664    578.469    513.664    514.504    513.664
 83.970    622.000    581.832     40.168    513.613    580.944    513.613    514.453    513.613
 84.070    581.000    582.170     -1.170    513.561    581.283    513.561    514.401    513.561
 84.170    542.000    580.229    -38.229    513.508    579.345    513.508    514.348    513.508
 84.270    559.000    576.236    -17.236    513.453    575.355    513.453    514.294    513.453
 84.370    579.925    570.690      9.235    513.397    569.813    513.397    514.239    513.397
 84.470    521.024    564.209    -43.185    513.340    563.336    513.340    514.183    513.340
 84.570    541.000    557.399    -16.399    513.281    556.529    513.281    514.126    513.281
 84.670    513.000    550.774    -37.774    513.221    549.908    513.221    514.068    513.221
 84.770    571.000    544.723     26.277    513.159    543.858    513.159    514.008    513.159
 84.870    590.000    539.490     50.510    513.097    538.626    513.097    513.948    513.097
 84.970    535.000    535.188     -0.188    513.032    534.325    513.032    513.887    513.032
 85.070    573.586    531.821     41.764    512.967    530.957    512.967    513.825    512.967
 85.170    517.000    529.314    -12.314    512.900    528.447    512.900    513.762    512.900
 85.270    494.000    527.549    -33.549    512.832    526.678    512.832    513.697    512.832
 85.370    520.496    526.394     -5.899    512.763    525.520    512.763    513.632    512.763
 85.470    522.794    525.734     -2.940    512.692    524.855    512.692    513.566    512.692
 85.570    499.000    525.477    -26.477    512.620    524.593    512.620    513.498    512.620
 85.670    529.000    525.571      3.429    512.546    524.682    512.546    513.430    512.546
 85.770    556.000    526.006     29.994    512.471    525.111    512.471    513.361    512.471
 85.870    536.000    526.817      9.183    512.395    525.914    512.395    513.291    512.395
 85.970    466.000    528.081    -62.081    512.317    527.170    512.317    513.219    512.317
 86.070    555.000    529.920     25.080    512.239    528.999    512.239    513.147    512.239
 86.170    539.000    532.490      6.510    512.158    531.559    512.158    513.074    512.158
 86.270    555.000    535.974     19.026    512.077    535.031    512.077    512.999    512.077
 86.370    519.044    540.561    -21.517    511.994    539.604    511.994    512.924    511.994
 86.470    579.000    546.416     32.584    511.910    545.444    511.910    512.848    511.910
 86.570    559.000    553.650      5.350    511.824    552.661    511.824    512.771    511.824
 86.670    548.000    562.272    -14.272    511.737    561.263    511.737    512.693    511.737
 86.770    574.000    572.151      1.849    511.649    571.121    511.649    512.615    511.649
 86.870    612.000    582.982     29.018    511.559    581.930    511.559    512.535    511.559
 86.970    593.829    594.260     -0.431    511.469    593.186    511.469    512.455    511.469
 87.070    624.000    605.322     18.678    511.376    604.226    511.376    512.373    511.376
 87.170    625.538    615.334     10.204    511.283    614.218    511.283    512.291    511.283
 87.270    645.000    623.372     21.628    511.188    622.238    511.188    512.209    511.188
 87.370    673.000    628.580     44.420    511.091    627.432    511.091    512.125    511.091
 87.470    620.000    630.368    -10.368    510.994    629.208    510.994    512.041    510.994
 87.570    623.000    628.577     -5.577    510.895    627.411    510.895    511.956    510.895
 87.670    619.000    623.537     -4.537    510.795    622.366    510.795    511.871    510.795
 87.770    581.954    615.953    -34.000    510.693    614.779    510.693    511.785    510.693
 87.870    603.534    606.740     -3.206    510.590    605.563    510.590    511.698    510.590
 87.970    634.968    596.865     38.103    510.486    595.685    510.486    511.611    510.486
 88.070    627.000    587.248     39.752    510.381    586.062    510.381    511.523    510.381
 88.170    559.041    578.686    -19.645    510.274    577.494    510.274    511.435    510.274
 88.270    589.000    571.813     17.187    510.166    570.611    510.166    511.347    510.166
 88.370    542.000    567.068    -25.068    510.056    565.854    510.056    511.259    510.056
 88.470    599.000    564.688     34.312    509.945    563.461    509.945    511.170    509.945
 88.570    560.000    564.710     -4.710    509.833    563.468    509.833    511.081    509.833
 88.670    574.461    566.984      7.477    509.720    565.725    509.720    510.993    509.720
 88.770    549.000    571.182    -22.182    509.605    569.904    509.605    510.904    509.605
 88.870    606.000    576.825     29.175    509.489    575.528    509.489    510.815    509.489
 88.970    606.000    583.305     22.695    509.372    581.987    509.372    510.727    509.372
 89.070    612.000    589.913     22.087    509.254    588.571    509.254    510.640    509.254
 89.170    642.000    595.880     46.120    509.134    594.513    509.134    510.553    509.134
 89.270    605.000    600.447      4.553    509.013    599.051    509.013    510.466    509.013
 89.370    638.144    602.961     35.183    508.890    601.533    508.890    510.381    508.890
 89.470    602.000    603.005     -1.005    508.767    601.540    508.767    510.297    508.767
 89.570    639.541    600.492     39.049    508.642    598.985    508.642    510.214    508.642
 89.670    610.143    595.681     14.462    508.515    594.127    508.515    510.132    508.515
 89.770    551.018    589.080    -38.063    508.388    587.474    508.388    510.053    508.388
 89.870    592.848    581.318     11.531    508.259    579.655    508.259    509.975    508.259
 89.970    559.000    573.024    -14.024    508.129    571.299    508.129    509.901    508.129
 90.070    534.000    564.756    -30.756    507.998    562.966    507.998    509.828    507.998
 90.170    549.868    556.965     -7.098    507.866    555.104    507.866    509.759    507.866
 90.270    542.000    549.971     -7.971    507.732    548.034    507.732    509.695    507.732
 90.370    518.000    543.966    -25.966    507.597    541.948    507.597    509.636    507.597
 90.470    577.508    539.028     38.480    507.461    536.921    507.461    509.582    507.461
 90.570    580.000    535.139     44.861    507.323    532.937    507.323    509.536    507.323
 90.670    529.000    532.217     -3.217    507.185    529.910    507.185    509.499    507.185
 90.770    512.000    530.142    -18.142    507.045    527.720    507.045    509.472    507.045
 90.870    492.930    528.786    -35.857    506.904    526.233    506.904    509.460    506.904
 90.970    536.000    528.030      7.970    506.761    525.326    506.761    509.467    506.761
 91.070    526.000    527.778     -1.778    506.618    524.898    506.618    509.498    506.618
 91.170    500.000    527.937    -27.937    506.473    524.848    506.473    509.561    506.473
 91.270    567.926    528.563     39.363    506.327    525.222    506.327    509.667    506.327
 91.370    496.105    529.679    -33.575    506.180    526.028    506.180    509.828    506.180
 91.470    534.000    531.355      2.645    506.032    527.320    506.032    510.063    506.032
 91.570    529.000    533.726     -4.726    505.882    529.210    505.882    510.392    505.882
 91.670    515.000    536.969    -21.969    505.732    531.853    505.732    510.841    505.732
 91.770    517.993    541.306    -23.313    505.580    535.439    505.580    511.437    505.580
 91.870    505.413    546.988    -41.575    505.427    540.188    505.427    512.214    505.427
 91.970    549.000    554.281     -5.281    505.273    546.333    505.273    513.204    505.273
 92.070    550.000    563.441    -13.441    505.118    554.097    505.118    514.440    505.118
 92.170    579.000    574.686      4.314    504.961    563.668    504.961    515.953    504.961
 92.270    567.000    588.164    -21.164    504.804    575.172    504.804    517.763    504.804
 92.370    622.000    603.920     18.080    504.645    588.640    504.645    519.885    504.645
 92.470    623.091    621.867      1.224    504.485    603.989    504.485    522.316    504.485
 92.570    657.000    641.759     15.241    504.325    620.995    504.325    525.035    504.325
 92.670    693.000    663.182     29.818    504.163    639.284    504.163    527.999    504.163
 92.770    713.840    685.543     28.297    503.999    658.333    503.999    531.141    503.999
 92.870    695.000    708.087    -13.087    503.835    677.485    503.835    534.364    503.835
 92.970    648.000    729.966    -81.966    503.670    696.019    503.670    537.539    503.670
 93.070    704.000    750.333    -46.333    503.504    713.253    503.504    540.504    503.504
 93.170    790.000    768.474     21.526    503.336    728.658    503.336    543.071    503.336
 93.270    737.352    783.940    -46.588    503.168    741.988    503.168    545.039    503.168
 93.370    819.000    796.594     22.406    502.999    753.291    502.999    546.221    502.999
 93.470    874.000    806.570     67.430    502.828    762.835    502.828    546.486    502.828
 93.570    776.694    814.197    -37.503    502.657    770.988    502.657    545.791    502.657
 93.670    824.000    819.931      4.069    502.484    778.150    502.484    544.192    502.484
 93.770    826.000    824.338      1.662    502.310    784.746    502.310    541.832    502.310
 93.870    881.570    828.097     53.473    502.136    791.264    502.136    538.901    502.136
 93.970    836.044    831.977      4.067    501.960    798.270    501.960    535.602    501.960
 94.070    882.000    836.728     45.272    501.784    806.329    501.784    532.118    501.784
 94.170    836.000    842.908     -6.908    501.606    815.844    501.606    528.608    501.606
 94.270    889.716    850.702     39.013    501.428    826.873    501.428    525.196    501.428
 94.370    894.000    859.805     34.195    501.248    839.021    501.248    521.973    501.248
 94.470    839.000    869.398    -30.398    501.068    851.405    501.068    519.005    501.068
 94.570    897.238    878.216     19.022    500.886    862.719    500.886    516.331    500.886
 94.670    943.000    884.688     58.312    500.704    871.378    500.704    513.968    500.704
 94.770    907.431    887.172     20.260    500.521    875.737    500.521    511.917    500.521
 94.870    910.000    884.259     25.741    500.337    874.405    500.337    510.160    500.337
 94.970    920.000    875.115     44.885    500.151    866.567    500.151    508.679    500.151
 95.070    851.939    859.698     -7.759    499.966    852.210    499.966    507.442    499.966
 95.170    807.639    838.779    -31.140    499.779    832.137    499.779    506.415    499.779
 95.270    844.000    813.766     30.234    499.591    807.792    499.591    505.566    499.591
 95.370    803.394    786.436     16.958    499.402    780.980    499.402    504.863    499.402
 95.470    709.703    758.752    -49.049    499.213    753.694    499.213    504.278    499.213
 95.570    768.000    732.619     35.381    499.023    727.863    499.023    503.786    499.023
 95.670    722.000    709.821     12.179    498.832    705.290    498.832    503.368    498.832
 95.770    729.714    691.960     37.754    498.640    687.596    498.640    503.007    498.640
 95.870    705.000    680.434     24.566    498.447    676.189    498.447    502.690    498.447
 95.970    694.000    676.429     17.571    498.253    672.266    498.253    502.408    498.253
 96.070    677.000    680.931     -3.931    498.059    676.820    498.059    502.152    498.059
 96.170    663.000    694.729    -31.729    497.864    690.648    497.864    501.919    497.864
 96.270    724.000    718.410      5.590    497.668    714.337    497.668    501.705    497.668
 96.370    749.401    752.312     -2.911    497.472    748.230    497.472    501.506    497.472
 96.470    754.835    796.452    -41.618    497.274    792.346    497.274    501.321    497.274
 96.570    893.069    850.433     42.636    497.076    846.289    497.076    501.148    497.076
 96.670    894.000    913.336    -19.336    496.878    909.142    496.878    500.988    496.878
 96.770    966.000    983.616    -17.616    496.678    979.362    496.678    500.839    496.678
 96.870    984.000   1059.048    -75.048    496.478   1054.723    496.478    500.702    496.478
 96.970   1086.000   1136.703    -50.703    496.277   1132.298    496.277    500.576    496.277
 97.070   1177.000   1212.989    -35.989    496.076   1208.496    496.076    500.462    496.076
 97.170   1294.392   1283.773     10.619    495.874   1279.183    495.874    500.360    495.874
 97.270   1308.000   1344.624    -36.624    495.671   1339.929    495.671    500.271    495.671
 97.370   1423.000   1391.237     31.763    495.467   1386.428    495.467    500.195    495.467
 97.470   1456.000   1420.037     35.963    495.263   1415.103    495.263    500.134    495.263
 97.570   1461.193   1428.832     32.361    495.059   1423.759    495.059    500.089    495.059
 97.670   1475.000   1417.254     57.746    494.854   1412.025    494.854    500.061    494.854
 97.770   1436.236   1386.783     49.453    494.648   1381.377    494.648    500.053    494.648
 97.870   1338.000   1340.352     -2.352    494.442   1334.744    494.442    500.068    494.442
 97.970   1313.821   1281.768     32.053    494.235   1275.927    494.235    500.109    494.235
 98.070   1198.049   1215.181    -17.132    494.027   1209.072    494.027    500.181    494.027
 98.170   1161.656   1144.704     16.952    493.820   1138.284    493.820    500.291    493.820
 98.270   1091.113   1074.170     16.943    493.611   1067.386    493.611    500.448    493.611
 98.370   1066.957   1006.980     59.977    493.402    999.769    493.402    500.665    493.402
 98.470   1019.000    946.030     72.970    493.193    938.314    493.193    500.957    493.193
 98.570    860.205    893.694    -33.490    492.983    885.372    492.983    501.347    492.983
 98.670    827.000    851.843    -24.843    492.773    842.787    492.773    501.861    492.773
 98.770    874.501    821.900     52.600    492.562    811.950    492.562    502.536    492.562
 98.870    857.821    804.919     52.902    492.351    793.868    492.351    503.416    492.351
 98.970    823.000    801.655     21.345    492.140    789.243    492.140    504.555    492.140
 99.070    771.000    812.623    -41.623    491.928    798.525    491.928    506.020    491.928
 99.170    812.000    838.175    -26.175    491.716    821.992    491.716    507.885    491.716
 99.270    838.000    878.443    -40.443    491.503    859.688    491.503    510.237    491.503
 99.370    921.000    933.300    -12.300    491.290    911.395    491.290    513.168    491.290
 99.470    991.833   1002.305    -10.472    491.077    976.576    491.077    516.776    491.077
 99.570   1078.000   1084.597     -6.597    490.864   1054.272    490.864    521.157    490.864
 99.670   1219.000   1178.791     40.209    490.650   1143.013    490.650    526.400    490.650
 99.770   1311.000   1282.889     28.111    490.436   1240.725    490.436    532.577    490.436
 99.870   1398.328   1394.207      4.121    490.222   1344.679    490.222    539.738    490.222
 99.970   1484.761   1509.365    -24.604    490.007   1451.479    490.007    547.896    490.007
100.070   1644.000   1624.359     19.641    489.793   1557.149    489.793    557.024    489.793
100.170   1720.211   1734.755    -14.544    489.578   1657.335    489.578    567.041    489.578
100.270   1851.000   1836.024     14.976    489.363   1747.646    489.363    577.809    489.363
100.370   1864.259   1923.952    -59.693    489.148   1824.072    489.148    589.122    489.148
100.470   1977.000   1994.988    -17.988    488.932   1883.341    488.932    600.701    488.932
100.570   2054.770   2046.412      8.358    488.717   1923.083    488.717    612.192    488.717
100.670   2148.281   2076.310     71.971    488.501   1941.815    488.501    623.165    488.501
100.770   2082.000   2083.533     -1.533    488.286   1938.887    488.286    633.120    488.286
100.870   2038.000   2067.788    -29.788    488.070   1914.546    488.070    641.514    488.070
100.970   2054.000   2029.891     24.109    487.854   1870.151    487.854    647.805    487.854
101.070   1966.000   1972.025     -6.025    487.638   1808.350    487.638    651.528    487.638
101.170   1922.000   1897.758     24.242    487.422   1733.019    487.422    652.374    487.422
101.270   1822.507   1811.729     10.778    487.207   1648.886    487.207    650.256    487.207
101.370   1711.465   1719.094     -7.630    486.991   1560.951    486.991    645.329    486.991
101.470   1637.848   1624.930     12.918    486.775   1473.930    486.775    637.955    486.775
101.570   1490.302   1533.746    -43.444    486.559   1391.838    486.559    628.633    486.559
101.670   1439.000   1449.167    -10.167    486.344   1317.750    486.344    617.909    486.344
101.770   1439.088   1373.765     65.323    486.128   1253.706    486.128    606.320    486.128
101.870   1290.410   1309.013    -18.602    485.913   1200.696    485.913    594.347    485.913
101.970   1230.000   1255.314    -25.314    485.698   1158.717    485.698    582.399    485.698
102.070   1182.949   1212.098    -29.149    485.483   1126.867    485.483    570.807    485.483
102.170   1204.000   1177.958     26.042    485.268   1103.484    485.268    559.828    485.268
102.270   1108.000   1150.835    -42.835    485.053   1086.321    485.053    549.648    485.053
102.370   1137.000   1128.244      8.756    484.839   1072.774    484.839    540.388    484.839
102.470   1086.000   1107.554    -21.554    484.624   1060.146    484.624    532.111    484.624
102.570   1100.845   1086.309     14.536    484.410   1045.967    484.410    524.832    484.410
102.670   1031.000   1062.544    -31.544    484.197   1028.296    484.197    518.526    484.197
102.770    987.000   1035.025    -48.025    483.983   1005.955    483.983    513.136    483.983
102.870   1027.333   1003.325     24.008    483.770    978.594    483.770    508.584    483.770
102.970    958.000    967.736     -9.736    483.558    946.598    483.558    504.777    483.558
103.070    969.471    929.071     40.401    483.345    910.876    483.345    501.620    483.345
103.170    911.000    888.434     22.566    483.134    872.629    483.134    499.014    483.134
103.270    794.000    847.038    -53.038    482.922    833.161    482.922    496.870    482.922
103.370    831.836    806.064     25.772    482.711    793.736    482.711    495.104    482.711
103.470    772.000    766.577      5.423    482.501    755.493    482.501    493.643    482.501
103.570    761.455    729.464     31.990    482.290    719.381    482.290    492.426    482.290
103.670    730.000    695.405     34.595    482.081    686.131    482.081    491.399    482.081
103.770    656.000    664.852     -8.852    481.872    656.240    481.872    490.523    481.872
103.870    617.733    638.040    -20.307    481.663    629.972    481.663    489.763    481.663
103.970    632.000    615.004     16.996    481.455    607.391    481.455    489.095    481.455
104.070    572.161    595.614    -23.454    481.248    588.387    481.248    488.497    481.248
104.170    580.000    579.606      0.394    481.042    572.709    481.042    487.955    481.042
104.270    596.000    566.652     29.348    480.835    560.042    480.835    487.458    480.835
104.370    548.000    556.365     -8.365    480.630    550.007    480.630    486.997    480.630
104.470    526.197    548.352    -22.155    480.425    542.218    480.425    486.567    480.425
104.570    582.789    542.241     40.548    480.222    536.305    480.222    486.162    480.222
104.670    551.343    537.698     13.645    480.018    531.940    480.018    485.779    480.018
104.770    495.298    534.438    -39.140    479.816    528.840    479.816    485.415    479.816
104.870    575.378    532.234     43.145    479.614    526.779    479.614    485.069    479.614
104.970    503.293    530.913    -27.619    479.414    525.587    479.414    484.738    479.414
105.070    512.000    530.360    -18.360    479.214    525.149    479.214    484.421    479.214
105.170    581.000    530.509     50.491    479.015    525.401    479.015    484.117    479.015
105.270    533.723    531.342      2.382    478.816    526.326    478.816    483.825    478.816
105.370    544.000    532.880     11.120    478.619    527.946    478.619    483.544    478.619
105.470    540.000    535.181      4.819    478.423    530.319    478.423    483.274    478.423
105.570    548.000    538.330      9.670    478.227    533.531    478.227    483.014    478.227
105.670    552.000    542.430      9.570    478.033    537.685    478.033    482.764    478.033
105.770    554.047    547.588      6.460    477.840    542.888    477.840    482.522    477.840
105.870    540.242    553.900    -13.658    477.647    549.238    477.647    482.289    477.647
105.970    583.000    561.438     21.562    477.456    556.807    477.456    482.065    477.456
106.070    604.000    570.234     33.766    477.266    565.626    477.266    481.848    477.266
106.170    561.000    580.265    -19.265    477.077    575.674    477.077    481.639    477.077
106.270    619.000    591.445     27.555    476.890    586.864    476.890    481.437    476.890
106.370    575.000    603.616    -28.616    476.703    599.040    476.703    481.243    476.703
106.470    567.000    616.550    -49.550    476.518    611.971    476.518    481.056    476.518
106.570    640.000    629.944     10.056    476.333    625.359    476.333    480.875    476.333
106.670    675.432    643.436     31.996    476.151    638.838    476.151    480.702    476.151
106.770    614.000    656.608    -42.608    475.969    651.993    475.969    480.536    475.969
106.870    624.000    669.012    -45.012    475.789    664.376    475.789    480.376    475.789
106.970    677.000    680.195     -3.195    475.610    675.533    475.610    480.223    475.610
107.070    652.847    689.739    -36.891    475.432    685.046    475.432    480.078    475.432
107.170    673.000    697.313    -24.313    475.256    692.585    475.256    479.938    475.256
107.270    665.000    702.730    -37.730    475.082    697.963    475.082    479.806    475.082
107.370    646.000    705.979    -59.979    474.909    701.173    474.909    479.675    474.909
107.470    658.000    707.258    -49.258    474.737    702.403    474.737    479.557    474.737
107.570    740.799    706.913     33.886    474.567    702.003    474.567    479.446    474.567
107.670    741.420    705.400     36.020    474.398    700.430    474.398    479.342    474.398
107.770    700.915    703.209     -2.294    474.231    698.172    474.231    479.246    474.231
107.870    637.000    700.804    -63.804    474.066    695.695    474.066    479.158    474.066
107.970    654.000    698.576    -44.576    473.902    693.387    473.902    479.078    473.902
108.070    723.034    696.807     26.227    473.740    691.532    473.740    479.006    473.740
108.170    696.000    695.657      0.343    473.580    690.290    473.580    478.942    473.580
108.270    667.463    695.151    -27.687    473.421    689.685    473.421    478.886    473.421
108.370    721.000    695.171     25.829    473.264    689.609    473.264    478.829    473.264
108.470    649.716    695.506    -45.790    473.109    689.830    473.109    478.791    473.109
108.570    692.505    695.812     -3.307    472.956    690.013    472.956    478.764    472.956
108.670    716.000    695.681     20.319    472.805    689.751    472.805    478.748    472.805
108.770    663.000    694.683    -31.683    472.656    688.612    472.656    478.742    472.656
108.870    644.299    692.422    -48.123    472.508    686.201    472.508    478.747    472.508
108.970    684.052    688.592     -4.541    472.363    682.211    472.363    478.764    472.363
109.070    678.339    683.032     -4.693    472.219    676.479    472.219    478.794    472.219
109.170    661.478    675.738    -14.260    472.078    669.002    472.078    478.836    472.078
109.270    641.000    666.859    -25.859    471.938    659.928    471.938    478.892    471.938
109.370    633.000    656.658    -23.658    471.801    649.519    471.801    478.963    471.801
109.470    616.000    645.472    -29.472    471.666    638.112    471.666    479.049    471.666
109.570    627.127    633.665     -6.538    471.533    626.068    471.533    479.152    471.533
109.670    620.163    621.581     -1.419    471.402    613.731    471.402    479.272    471.402
109.770    634.688    609.592     25.097    471.273    601.472    471.273    479.411    471.273
109.870    584.000    598.021    -14.021    471.147    589.614    471.147    479.571    471.147
109.970    583.000    587.109     -4.109    471.023    578.394    471.023    479.753    471.023
110.070    615.116    577.059     38.057    470.901    568.014    470.901    479.959    470.901
110.170    569.000    568.023      0.977    470.782    558.622    470.782    480.192    470.782
110.270    544.117    560.096    -15.979    470.665    550.313    470.665    480.455    470.665
110.370    517.653    553.324    -35.671    470.550    543.128    470.550    480.752    470.550
110.470    617.000    547.709     69.291    470.438    537.064    470.438    481.087    470.438
110.570    555.000    543.215     11.785    470.329    532.080    470.329    481.466    470.329
110.670    566.000    539.781     26.219    470.222    528.106    470.222    481.897    470.222
110.770    544.000    537.326      6.674    470.117    525.053    470.117    482.389    470.117
110.870    542.000    535.759      6.241    470.015    522.819    470.015    482.954    470.015
110.970    571.000    534.990     36.010    469.916    521.297    469.916    483.606    469.916
111.070    587.000    534.931     52.069    469.820    520.383    469.820    484.363    469.820
111.170    532.253    535.505     -3.252    469.726    519.978    469.726    485.248    469.726
111.270    548.803    536.650     12.153    469.635    519.990    469.635    486.289    469.635
111.370    564.000    538.318     25.682    469.546    520.338    469.546    487.519    469.546
111.470    541.587    540.480      1.107    469.461    520.954    469.461    488.980    469.461
111.570    547.000    543.126      3.874    469.378    521.777    469.378    490.719    469.378
111.670    591.350    546.265     45.086    469.299    522.761    469.299    492.793    469.299
111.770    517.000    549.926    -32.926    469.222    523.870    469.222    495.269    469.222
111.870    516.000    554.160    -38.160    469.148    525.078    469.148    498.221    469.148
111.970    583.520    559.035     24.485    469.078    526.370    469.078    501.732    469.078
112.070    570.000    564.639      5.361    469.010    527.744    469.010    505.895    469.010
112.170    531.275    571.078    -39.802    468.945    529.204    468.945    510.809    468.945
112.270    594.630    578.469     16.161    468.884    530.765    468.884    516.577    468.884
112.370    604.000    586.940     17.060    468.826    532.451    468.826    523.305    468.826
112.470    626.000    596.628     29.372    468.770    534.291    468.770    531.097    468.770
112.570    579.409    607.667    -28.258    468.719    536.324    468.719    540.051    468.719
112.670    576.967    620.192    -43.226    468.670    538.598    468.670    550.254    468.670
112.770    621.000    634.335    -13.335    468.625    541.173    468.625    561.776    468.625
112.870    649.615    650.219     -0.605    468.583    544.126    468.583    574.664    468.583
112.970    634.196    667.963    -33.767    468.544    547.557    468.544    588.938    468.544
113.070    657.714    687.679    -29.965    468.509    551.596    468.509    604.579    468.509
113.170    755.208    709.483     45.725    468.478    556.416    468.478    621.531    468.478
113.270    737.002    733.498      3.504    468.450    562.244    468.450    639.688    468.450
113.370    812.000    759.867     52.133    468.425    569.380    468.425    658.896    468.425
113.470    805.000    788.771     16.229    468.405    578.214    468.405    678.943    468.405
113.570    859.297    820.449     38.848    468.387    589.254    468.387    699.560    468.387
113.670    856.144    855.216      0.928    468.374    603.148    468.374    720.415    468.374
113.770    899.051    893.499      5.552    468.364    620.715    468.364    741.116    468.364
113.870    933.953    935.858     -1.906    468.358    642.972    468.358    761.206    468.358
113.970    977.000    983.024     -6.024    468.356    671.163    468.356    780.169    468.356
114.070   1031.000   1035.929     -4.929    468.358    706.780    468.358    797.448    468.358
114.170   1146.394   1095.748     50.647    468.363    751.580    468.363    812.459    468.363
114.270   1117.000   1163.933    -46.933    468.373    807.589    468.373    824.628    468.373
114.370   1264.000   1242.249     21.751    468.386    877.084    468.386    833.441    468.386
114.470   1292.000   1332.791    -40.791    468.404    962.567    468.404    838.492    468.404
114.570   1440.000   1437.973      2.027    468.425   1066.695    468.425    839.537    468.425
114.670   1612.927   1560.475     52.452    468.451   1192.200    468.451    836.524    468.451
114.770   1690.000   1703.134    -13.134    468.481   1341.770    468.481    829.602    468.481
114.870   1963.000   1868.772     94.228    468.515   1517.895    468.515    819.103    468.515
114.970   2035.000   2059.980    -24.980    468.553   1722.702    468.553    805.492    468.553
115.070   2340.512   2278.873     61.639    468.596   1957.756    468.596    789.319    468.596
115.170   2577.000   2526.838     50.162    468.643   2223.860    468.643    771.169    468.643
115.270   2850.000   2804.287     45.713    468.694   2520.854    468.694    751.617    468.694
115.370   3137.000   3110.451     26.549    468.750   2847.430    468.750    731.202    468.750
115.470   3505.502   3443.210     62.292    468.810   3200.983    468.810    710.411    468.810
115.570   3773.000   3798.973    -25.973    468.875   3577.500    468.875    689.670    468.875
115.670   4023.000   4172.631   -149.631    468.944   3971.512    468.944    669.341    468.944
115.770   4441.000   4557.568   -116.568    469.018   4376.104    469.018    649.726    469.018
115.870   4841.622   4945.743   -104.121    469.097   4782.998    469.097    631.062    469.097
115.970   5122.000   5327.857   -205.857    469.180   5182.714    469.180    613.535    469.180
116.070   5539.000   5693.582   -154.582    469.268   5564.797    469.268    597.272    469.268
116.170   6004.000   6031.894    -27.894    469.361   5918.144    469.361    582.355    469.361
116.270   6320.000   6331.510    -11.510    469.458   6231.436    469.458    568.822    469.458
116.370   6712.406   6581.453    130.954    469.561   6493.696    469.561    556.669    469.561
116.470   6673.887   6771.757    -97.870    469.668   6694.992    469.668    545.864    469.668
116.570   6843.000   6894.265    -51.265    469.781   6827.223    469.781    536.348    469.781
116.670   7078.000   6943.405    134.595    469.898   6884.893    469.898    528.042    469.898
116.770   6892.000   6916.813    -24.813    470.021   6865.725    470.021    520.852    470.021
116.870   6802.000   6815.625    -13.625    470.148   6770.953    470.148    514.676    470.148
116.970   6808.000   6644.240    163.760    470.281   6605.075    470.281    509.410    470.281
117.070   6515.813   6409.865    105.947    470.419   6375.401    470.419    504.948    470.419
117.170   6241.000   6121.759    119.241    470.562   6091.285    470.562    501.189    470.562
117.270   5652.000   5790.424   -138.424    470.711   5763.323    470.711    498.037    470.711
117.370   5323.000   5426.884   -103.884    470.865   5402.628    470.865    495.404    470.865
117.470   5172.368   5042.088    130.280    471.024   5020.226    471.024    493.212    471.024
117.570   4612.000   4646.444    -34.444    471.189   4626.597    471.189    491.389    471.189
117.670   4248.000   4249.474     -1.474    471.360   4231.324    471.360    489.875    471.360
117.770   3932.282   3859.564     72.718    471.535   3842.848    471.535    488.617    471.535
117.870   3596.000   3483.792    112.208    471.717   3468.294    471.717    487.572    471.717
117.970   3218.000   3127.843     90.157    471.904   3113.384    471.904    486.700    471.904
118.070   2976.000   2795.989    180.011    472.097   2782.424    472.097    485.973    472.097
118.170   2640.000   2491.141    148.859    472.296   2478.351    472.296    485.366    472.296
118.270   2213.442   2214.950     -1.508    472.500   2202.842    472.500    484.857    472.500
118.370   1982.000   1967.959     14.041    472.711   1956.453    472.711    484.432    472.711
118.470   1743.637   1749.765     -6.128    472.927   1738.798    472.927    484.076    472.927
118.570   1513.000   1559.207    -46.207    473.149   1548.727    473.149    483.780    473.149
118.670   1371.493   1394.549    -23.056    473.378   1384.512    473.378    483.535    473.378
118.770   1197.000   1253.656    -56.656    473.612   1244.028    473.612    483.336    473.612
118.870   1096.000   1134.161    -38.161    473.852   1124.911    473.852    483.177    473.852
118.970   1023.000   1033.605    -10.605    474.099   1024.705    474.099    483.054    474.099
119.070    921.039    949.551    -28.512    474.352    940.979    474.352    482.964    474.352
119.170    897.102    879.680     17.422    474.611    871.414    474.611    482.905    474.611
119.270    794.000    821.851    -27.851    474.877    813.872    474.877    482.874    474.877
119.370    789.287    774.139     15.148    475.149    766.428    475.149    482.870    475.149
119.470    777.544    734.852     42.692    475.427    727.393    475.427    482.892    475.427
119.570    676.000    702.537    -26.537    475.712    695.313    475.712    482.940    475.712
119.670    632.820    675.964    -43.143    476.004    668.956    476.004    483.011    476.004
119.770    663.000    654.106      8.894    476.302    647.300    476.302    483.107    476.302
119.870    656.000    636.124     19.876    476.607    629.503    476.607    483.227    476.607
119.970    653.010    621.334     31.676    476.918    614.881    476.918    483.370    476.918
120.070    643.000    609.186     33.814    477.236    602.884    477.236    483.537    477.236
120.170    555.427    599.243    -43.816    477.561    593.075    477.561    483.729    477.561
120.270    588.808    591.157     -2.349    477.893    585.105    477.893    483.945    477.893
120.370    587.000    584.656      2.344    478.232    578.702    478.232    484.187    478.232
120.470    592.028    579.525     12.503    478.578    573.650    478.578    484.455    478.578
120.570    553.000    575.598    -22.598    478.931    569.782    478.931    484.749    478.931
120.670    547.810    572.744    -24.935    479.291    566.967    479.291    485.071    479.291
120.770    552.000    570.863    -18.863    479.659    565.103    479.659    485.422    479.659
120.870    551.000    569.873    -18.873    480.033    564.108    480.033    485.801    480.033
120.970    557.000    569.711    -12.711    480.415    563.919    480.415    486.211    480.415
121.070    584.000    570.322     13.678    480.804    564.481    480.804    486.651    480.804
121.170    585.085    571.660     13.425    481.201    565.746    481.201    487.123    481.201
121.270    596.274    573.679     22.595    481.605    567.667    481.605    487.625    481.605
121.370    614.905    576.332     38.573    482.016    570.200    482.016    488.159    482.016
121.470    616.443    579.569     36.873    482.435    573.293    482.435    488.724    482.435
121.570    584.234    583.333      0.901    482.862    576.891    482.862    489.318    482.862
121.670    590.000    587.559      2.441    483.296    580.930    483.296    489.942    483.296
121.770    580.000    592.173    -12.173    483.739    585.337    483.739    490.594    483.739
121.870    561.000    597.093    -36.093    484.189    590.033    484.189    491.270    484.189
121.970    615.356    602.225     13.130    484.647    594.927    484.647    491.970    484.647
122.070    648.580    607.467     41.113    485.112    599.917    485.112    492.689    485.112
122.170    619.000    612.706      6.294    485.586    604.898    485.586    493.424    485.586
122.270    575.263    617.826    -42.563    486.068    609.757    486.068    494.170    486.068
122.370    636.000    622.706     13.294    486.558    614.376    486.558    494.923    486.558
122.470    617.000    627.224    -10.224    487.056    618.640    487.056    495.678    487.056
122.570    603.000    631.261    -28.261    487.563    622.437    487.563    496.427    487.563
122.670    656.000    634.712     21.288    488.077    625.666    488.077    497.166    488.077
122.770    630.000    637.483     -7.483    488.600    628.241    488.600    497.887    488.600
122.870    675.000    639.506     35.494    489.132    630.101    489.132    498.583    489.132
122.970    691.000    640.739     50.261    489.672    631.209    489.672    499.248    489.672
123.070    637.000    641.169     -4.169    490.220    631.559    490.220    499.877    490.220
123.170    686.071    640.812     45.259    490.778    631.172    490.778    500.465    490.778
123.270    669.000    639.711     29.289    491.343    630.092    491.343    501.008    491.343
123.370    627.000    637.929    -10.929    491.918    628.384    491.918    501.507    491.918
123.470    647.587    635.545     12.042    492.501    626.128    492.501    501.961    492.501
123.570    653.000    632.648     20.352    493.093    623.409    493.093    502.374    493.093
123.670    630.000    629.332      0.668    493.695    620.316    493.695    502.749    493.695
123.770    635.000    625.691      9.309    494.305    616.939    494.305    503.092    494.305
123.870    590.605    621.816    -31.211    494.924    613.363    494.924    503.410    494.924
123.970    566.000    617.791    -51.791    495.552    609.664    495.552    503.709    495.552
124.070    565.861    613.690    -47.829    496.190    605.913    496.190    503.993    496.190
124.170    670.000    609.581     60.419    496.836    602.168    496.836    504.273    496.836
124.270    635.000    605.516     29.484    497.493    598.475    497.493    504.554    497.493
124.370    619.000    601.536     17.464    498.158    594.871    498.158    504.840    498.158
124.470    583.000    597.668    -14.668    498.833    591.378    498.833    505.137    498.833
124.570    582.000    593.930    -11.930    499.517    588.011    499.517    505.449    499.517
124.670    631.494    590.330     41.165    500.211    584.772    500.211    505.779    500.211
124.770    573.170    586.867    -13.697    500.915    581.659    500.915    506.131    500.915
124.870    612.000    583.536     28.464    501.628    578.663    501.628    506.508    501.628
124.970    543.000    580.326    -37.326    502.351    575.772    502.351    506.910    502.351
