neutron_powder_diffraction_0160
R_wp: 3.994
Temperature (K): 1074.000
Counts: 84124.00
Wavelength (Ã…): 2.52098
COMMENTS
Test file for demonstrating the .xyy file format in Reel1.0
END OF HEADER
   tth       Y_obs     Y_calc      Y_res    Background    Phase_1_Nuc    Phase_1_Mag    Phase_2_Nuc    Phase_2_Mag
  9.970    621.000    571.610     49.390    570.915    571.567    570.915    570.958    570.915
 10.070    596.000    571.656     24.344    570.905    571.613    570.905    570.948    570.905
 10.170    567.000    571.706     -4.706    570.890    571.662    570.890    570.934    570.890
 10.270    631.000    571.762     59.238    570.871    571.717    570.871    570.915    570.871
 10.370    542.707    571.827    -29.120    570.848    571.780    570.848    570.894    570.848
 10.470    543.000    571.901    -28.901    570.820    571.853    570.820    570.868    570.820
 10.570    601.000    571.988     29.012    570.787    571.939    570.787    570.835    570.787
 10.670    621.000    572.094     48.906    570.751    572.045    570.751    570.799    570.751
 10.770    593.000    572.225     20.775    570.710    572.176    570.710    570.758    570.710
 10.870    638.000    572.390     65.610    570.665    572.340    570.665    570.714    570.665
 10.970    553.000    572.602    -19.602    570.615    572.551    570.615    570.665    570.615
 11.070    600.000    572.876     27.124    570.562    572.825    570.562    570.612    570.562
 11.170    564.000    573.241     -9.241    570.504    573.189    570.504    570.554    570.504
 11.270    555.440    573.734    -18.294    570.443    573.682    570.443    570.493    570.443
 11.370    533.627    574.422    -40.795    570.377    574.369    570.377    570.427    570.377
 11.470    585.782    575.453     10.329    570.307    575.399    570.307    570.358    570.307
 11.570    529.331    577.241    -47.910    570.234    577.186    570.234    570.284    570.234
 11.670    619.764    580.965     38.799    570.156    580.908    570.156    570.207    570.156
 11.770    657.000    589.374     67.626    570.075    589.312    570.075    570.126    570.075
 11.870    577.150    606.906    -29.756    569.990    606.834    569.990    570.041    569.990
 11.970    641.357    637.009      4.348    569.901    636.920    569.901    569.952    569.901
 12.070    606.000    675.785    -69.785    569.808    675.673    569.808    569.860    569.808
 12.170    735.386    706.262     29.124    569.712    706.133    569.712    569.764    569.712
 12.270    684.000    707.159    -23.159    569.612    707.029    569.612    569.664    569.612
 12.370    697.000    677.580     19.420    569.508    677.466    569.508    569.561    569.508
 12.470    617.000    638.430    -21.430    569.401    638.338    569.401    569.454    569.401
 12.570    579.824    607.441    -27.617    569.290    607.366    569.290    569.344    569.290
 12.670    601.000    589.104     11.896    569.176    589.039    569.176    569.230    569.176
 12.770    578.000    580.155     -2.155    569.059    580.095    569.059    569.112    569.059
 12.870    607.724    576.086     31.637    568.938    576.029    568.938    568.992    568.938
 12.970    600.776    574.047     26.729    568.813    573.989    568.813    568.868    568.813
 13.070    569.000    572.797     -3.797    568.686    572.740    568.686    568.740    568.686
 13.170    595.000    571.904     23.096    568.555    571.846    568.555    568.611    568.555
 13.270    536.000    571.211    -35.211    568.421    571.153    568.421    568.477    568.421
 13.370    561.000    570.649     -9.649    568.283    570.591    568.283    568.340    568.283
 13.470    598.377    570.179     28.198    568.143    570.121    568.143    568.200    568.143
 13.570    541.000    569.775    -28.775    567.999    569.716    567.999    568.056    567.999
 13.670    586.843    569.418     17.425    567.852    569.360    567.852    567.910    567.852
 13.770    528.613    569.097    -40.484    567.702    569.039    567.702    567.760    567.702
 13.870    557.000    568.804    -11.804    567.550    568.745    567.550    567.608    567.550
 13.970    552.000    568.533    -16.533    567.394    568.473    567.394    567.452    567.394
 14.070    525.000    568.275    -43.275    567.235    568.215    567.235    567.294    567.235
 14.170    517.000    568.029    -51.029    567.073    567.970    567.073    567.133    567.073
 14.270    558.000    567.796     -9.796    566.909    567.736    566.909    566.968    566.909
 14.370    603.817    567.568     36.249    566.742    567.508    566.742    566.802    566.742
 14.470    595.000    567.344     27.656    566.572    567.284    566.572    566.632    566.572
 14.570    566.000    567.124     -1.124    566.399    567.064    566.399    566.459    566.399
 14.670    537.000    566.908    -29.908    566.223    566.847    566.223    566.284    566.223
 14.770    537.777    566.694    -28.916    566.045    566.632    566.045    566.106    566.045
 14.870    584.980    566.481     18.499    565.864    566.419    565.864    565.926    565.864
 14.970    544.000    566.269    -22.269    565.681    566.207    565.681    565.743    565.681
 15.070    516.000    566.058    -50.058    565.495    565.996    565.495    565.557    565.495
 15.170    570.000    565.848      4.152    565.306    565.785    565.306    565.369    565.306
 15.270    591.970    565.637     26.334    565.115    565.574    565.115    565.178    565.115
 15.370    541.000    565.425    -24.425    564.922    565.362    564.922    564.985    564.922
 15.470    568.000    565.214      2.786    564.726    565.150    564.726    564.789    564.726
 15.570    581.000    565.001     15.999    564.528    564.937    564.528    564.591    564.528
 15.670    583.000    564.788     18.212    564.327    564.723    564.327    564.391    564.327
 15.770    563.000    564.573     -1.573    564.124    564.508    564.124    564.189    564.124
 15.870    566.528    564.358      2.171    563.919    564.292    563.919    563.984    563.919
 15.970    596.645    564.141     32.504    563.711    564.075    563.711    563.777    563.711
 16.070    571.327    563.927      7.401    563.501    563.857    563.501    563.571    563.501
 16.170    567.000    563.709      3.291    563.290    563.637    563.290    563.361    563.290
 16.270    574.000    563.488     10.512    563.075    563.416    563.075    563.148    563.075
 16.370    585.000    563.266     21.734    562.859    563.194    562.859    562.932    562.859
 16.470    539.000    563.043    -24.043    562.641    562.970    562.641    562.714    562.641
 16.570    562.000    562.819     -0.819    562.421    562.745    562.421    562.494    562.421
 16.670    579.175    562.592     16.583    562.198    562.518    562.198    562.272    562.198
 16.770    542.000    562.365    -20.365    561.974    562.290    561.974    562.048    561.974
 16.870    584.000    562.138     21.862    561.748    562.063    561.748    561.823    561.748
 16.970    572.000    561.908     10.092    561.520    561.832    561.520    561.595    561.520
 17.070    509.000    561.676    -52.676    561.290    561.600    561.290    561.365    561.290
 17.170    605.448    561.442     44.006    561.058    561.366    561.058    561.134    561.058
 17.270    554.000    561.207     -7.207    560.824    561.131    560.824    560.900    560.824
 17.370    591.158    560.971     30.187    560.588    560.894    560.588    560.665    560.588
 17.470    541.000    560.733    -19.733    560.351    560.655    560.351    560.429    560.351
 17.570    515.000    560.494    -45.494    560.112    560.416    560.112    560.190    560.112
 17.670    517.000    560.254    -43.254    559.871    560.175    559.871    559.950    559.871
 17.770    566.000    560.012      5.988    559.629    559.932    559.629    559.708    559.629
 17.870    526.000    559.769    -33.769    559.385    559.689    559.385    559.465    559.385
 17.970    585.000    559.524     25.476    559.139    559.444    559.139    559.219    559.139
 18.070    535.645    559.279    -23.634    558.892    559.198    558.892    558.973    558.892
 18.170    576.736    559.032     17.703    558.643    558.951    558.643    558.725    558.643
 18.270    557.000    558.785     -1.785    558.393    558.703    558.393    558.475    558.393
 18.370    585.000    558.537     26.463    558.141    558.454    558.141    558.224    558.141
 18.470    554.409    558.286     -3.877    557.888    558.203    557.888    557.971    557.888
 18.570    569.000    558.034     10.966    557.633    557.951    557.633    557.717    557.633
 18.670    576.000    557.782     18.218    557.377    557.697    557.377    557.462    557.377
 18.770    545.000    557.528    -12.528    557.120    557.442    557.120    557.205    557.120
 18.870    550.000    557.273     -7.273    556.861    557.187    556.861    556.947    556.861
 18.970    571.000    557.017     13.983    556.601    556.930    556.601    556.687    556.601
 19.070    590.000    556.760     33.240    556.340    556.673    556.340    556.427    556.340
 19.170    540.000    556.502    -16.502    556.077    556.414    556.077    556.165    556.077
 19.270    544.000    556.244    -12.244    555.813    556.156    555.813    555.902    555.813
 19.370    535.000    555.998    -20.998    555.548    555.909    555.548    555.637    555.548
 19.470    557.000    555.748      1.252    555.282    555.658    555.282    555.372    555.282
 19.570    520.000    555.488    -35.488    555.014    555.397    555.014    555.105    555.014
 19.670    529.000    555.226    -26.226    554.746    555.134    554.746    554.838    554.746
 19.770    557.000    554.963      2.037    554.476    554.871    554.476    554.569    554.476
 19.870    513.100    554.700    -41.600    554.206    554.607    554.206    554.299    554.206
 19.970    565.000    554.436     10.564    553.934    554.342    553.934    554.028    553.934
 20.070    554.000    554.172     -0.172    553.662    554.077    553.662    553.756    553.662
 20.170    584.338    553.907     30.432    553.388    553.811    553.388    553.484    553.388
 20.270    548.000    553.641     -5.641    553.113    553.545    553.113    553.210    553.113
 20.370    567.668    553.375     14.293    552.838    553.278    552.838    552.935    552.838
 20.470    530.000    553.109    -23.109    552.562    553.011    552.562    552.660    552.562
 20.570    542.609    552.843    -10.234    552.284    552.744    552.284    552.384    552.284
 20.670    542.307    552.578    -10.271    552.006    552.476    552.006    552.108    552.006
 20.770    536.933    552.312    -15.380    551.727    552.208    551.727    551.831    551.727
 20.870    544.000    552.054     -8.054    551.447    551.949    551.447    551.552    551.447
 20.970    595.039    551.874     43.165    551.167    551.768    551.167    551.273    551.167
 21.070    555.000    551.629      3.371    550.886    551.522    550.886    550.993    550.886
 21.170    520.000    551.365    -31.365    550.604    551.257    550.604    550.712    550.604
 21.270    565.000    551.099     13.901    550.321    550.990    550.321    550.430    550.321
 21.370    521.272    550.834    -29.562    550.038    550.723    550.038    550.148    550.038
 21.470    536.000    550.569    -14.569    549.754    550.457    549.754    549.865    549.754
 21.570    571.928    550.305     21.623    549.469    550.192    549.469    549.582    549.469
 21.670    518.811    550.046    -31.235    549.184    549.932    549.184    549.298    549.184
 21.770    566.000    549.811     16.189    548.898    549.695    548.898    549.014    548.898
 21.870    557.000    549.582      7.418    548.612    549.465    548.612    548.729    548.612
 21.970    573.000    549.326     23.674    548.325    549.208    548.325    548.443    548.325
 22.070    567.450    549.070     18.380    548.038    548.950    548.038    548.157    548.038
 22.170    521.000    548.820    -27.820    547.750    548.699    547.750    547.871    547.750
 22.270    537.000    548.614    -11.614    547.461    548.491    547.461    547.584    547.461
 22.370    569.000    548.384     20.616    547.173    548.260    547.173    547.297    547.173
 22.470    508.666    548.141    -39.475    546.883    548.015    546.883    547.009    546.883
 22.570    554.769    547.901      6.868    546.594    547.774    546.594    546.722    546.594
 22.670    527.000    547.667    -20.667    546.304    547.538    546.304    546.433    546.304
 22.770    560.000    547.439     12.561    546.014    547.308    546.014    546.145    546.014
 22.870    535.000    547.219    -12.219    545.723    547.086    545.723    545.856    545.723
 22.970    543.000    547.008     -4.008    545.432    546.873    545.432    545.568    545.432
 23.070    545.210    546.809     -1.599    545.141    546.672    545.141    545.278    545.141
 23.170    573.692    546.624     27.068    544.850    546.485    544.850    544.989    544.850
 23.270    532.000    546.457    -14.457    544.558    546.316    544.558    544.700    544.558
 23.370    558.000    546.313     11.687    544.266    546.170    544.266    544.410    544.266
 23.470    531.000    546.199    -15.199    543.974    546.053    543.974    544.121    543.974
 23.570    563.000    546.123     16.877    543.682    545.975    543.682    543.831    543.682
 23.670    586.000    546.101     39.899    543.390    545.950    543.390    543.541    543.390
 23.770    504.000    546.151    -42.151    543.097    545.998    543.097    543.251    543.097
 23.870    563.501    546.303     17.198    542.805    546.147    542.805    542.962    542.805
 23.970    558.406    546.615     11.790    542.512    546.457    542.512    542.672    542.512
 24.070    559.000    547.227     11.773    542.219    547.066    542.219    542.383    542.219
 24.170    586.109    548.527     37.583    541.927    548.364    541.927    542.093    541.927
 24.270    588.664    551.526     37.138    541.634    551.363    541.634    541.804    541.634
 24.370    568.489    558.275     10.214    541.341    558.112    541.341    541.515    541.341
 24.470    589.000    571.504     17.496    541.048    571.348    541.048    541.226    541.048
 24.570    599.000    592.433      6.567    540.755    592.287    540.755    540.937    540.755
 24.670    638.000    616.882     21.118    540.463    616.750    540.463    540.648    540.463
 24.770    675.767    632.981     42.785    540.170    632.857    540.170    540.360    540.170
 24.870    662.138    629.074     33.064    539.878    628.942    539.878    540.072    539.878
 24.970    647.541    608.325     39.216    539.585    608.173    539.585    539.785    539.585
 25.070    638.000    583.807     54.193    539.293    583.632    539.293    539.498    539.293
 25.170    579.000    564.854     14.146    539.001    564.660    539.001    539.212    539.001
 25.270    508.000    553.488    -45.488    538.709    553.280    538.709    538.926    538.709
 25.370    545.000    547.705     -2.705    538.417    547.487    538.417    538.640    538.417
 25.470    559.427    544.909     14.518    538.125    544.682    538.125    538.355    538.125
 25.570    543.000    543.416     -0.416    537.834    543.181    537.834    538.071    537.834
 25.670    535.015    542.460     -7.445    537.543    542.217    537.543    537.788    537.543
 25.770    508.000    541.762    -33.762    537.252    541.509    537.252    537.506    537.252
 25.870    539.977    541.221     -1.244    536.961    540.959    536.961    537.224    536.961
 25.970    547.000    540.773      6.227    536.671    540.502    536.671    536.944    536.671
 26.070    553.539    540.429     13.110    536.381    540.147    536.381    536.664    536.381
 26.170    533.561    540.150     -6.588    536.091    539.856    536.091    536.386    536.091
 26.270    510.016    539.908    -29.891    535.802    539.601    535.802    536.109    535.802
 26.370    571.963    539.710     32.254    535.513    539.390    535.513    535.833    535.513
 26.470    523.000    539.562    -16.562    535.225    539.228    535.225    535.559    535.225
 26.570    518.000    539.469    -21.469    534.936    539.118    534.936    535.287    534.936
 26.670    525.000    539.434    -14.434    534.649    539.065    534.649    535.017    534.649
 26.770    544.000    539.467      4.533    534.361    539.079    534.361    534.749    534.361
 26.870    543.000    539.592      3.408    534.074    539.182    534.074    534.483    534.074
 26.970    580.000    539.828     40.172    533.788    539.395    533.788    534.220    533.788
 27.070    523.000    540.167    -17.167    533.502    539.707    533.502    533.960    533.502
 27.170    575.000    540.667     34.333    533.217    540.179    533.217    533.704    533.217
 27.270    549.364    541.389      7.975    532.932    540.868    532.932    533.452    532.932
 27.370    543.000    542.422      0.578    532.647    541.864    532.647    533.205    532.647
 27.470    539.000    543.930     -4.930    532.363    543.329    532.363    532.962    532.363
 27.570    554.000    546.341      7.659    532.080    545.692    532.080    532.727    532.080
 27.670    619.000    551.136     67.864    531.797    550.430    531.797    532.499    531.797
 27.770    577.000    563.111     13.889    531.515    562.339    531.515    532.279    531.515
 27.870    583.420    593.942    -10.522    531.233    593.086    531.233    532.070    531.233
 27.970    695.000    661.028     33.972    530.952    660.064    530.952    531.875    530.952
 28.070    765.000    771.160     -6.160    530.672    770.064    530.672    531.695    530.672
 28.170    916.000    893.152     22.848    530.392    891.908    530.392    531.535    530.392
 28.270    976.000    953.260     22.740    530.113    951.875    530.113    531.399    530.113
 28.370    855.330    902.909    -47.580    529.835    901.384    529.835    531.296    529.835
 28.470    783.000    794.072    -11.072    529.557    792.365    529.557    531.236    529.557
 28.570    685.438    709.546    -24.108    529.280    707.576    529.280    531.236    529.280
 28.670    730.000    692.336     37.664    529.004    689.998    529.004    531.325    529.004
 28.770    691.022    738.012    -46.989    528.729    735.165    528.729    531.554    528.729
 28.870    832.000    806.792     25.208    528.454    803.229    528.454    532.002    528.454
 28.970    802.764    839.121    -36.357    528.180    834.508    528.180    532.793    528.180
 29.070    761.583    799.688    -38.105    527.906    793.517    527.906    534.087    527.906
 29.170    699.574    719.087    -19.513    527.634    710.668    527.634    536.063    527.634
 29.270    617.000    644.682    -27.682    527.362    633.194    527.362    538.857    527.362
 29.370    605.390    598.022      7.368    527.091    582.659    527.091    542.456    527.091
 29.470    588.228    576.667     11.561    526.821    556.990    526.821    546.498    526.821
 29.570    568.000    569.197     -1.197    526.552    545.750    526.552    549.996    526.552
 29.670    579.000    565.911     13.089    526.284    540.746    526.284    551.447    526.284
 29.770    602.999    561.994     41.006    526.016    538.066    526.016    549.941    526.016
 29.870    609.000    556.754     52.246    525.749    536.334    525.749    546.167    525.749
 29.970    522.000    551.253    -29.253    525.484    535.122    525.484    541.613    525.484
 30.070    574.000    546.444     27.556    525.219    534.292    525.219    537.368    525.219
 30.170    595.000    542.758     52.242    524.955    533.819    524.955    533.891    524.955
 30.270    581.000    540.364     40.636    524.692    533.812    524.692    531.240    524.692
 30.370    589.000    539.591     49.409    524.429    534.716    524.429    529.300    524.429
 30.470    516.225    541.428    -25.202    524.168    537.693    524.168    527.896    524.168
 30.570    588.000    547.845     40.155    523.908    544.880    523.908    526.861    523.908
 30.670    597.471    561.018     36.453    523.649    558.579    523.649    526.065    523.649
 30.770    611.000    580.738     30.262    523.390    578.669    523.390    525.421    523.390
 30.870    648.000    601.146     46.854    523.133    599.353    523.133    524.874    523.133
 30.970    615.000    610.462      4.538    522.876    608.891    522.876    524.392    522.876
 31.070    621.029    600.899     20.129    522.621    599.519    522.621    523.956    522.621
 31.170    580.156    579.679      0.477    522.367    578.462    522.367    523.554    522.367
 31.270    563.000    558.580      4.420    522.113    557.499    522.113    523.178    522.113
 31.370    502.715    543.711    -40.996    521.861    542.740    521.861    522.824    521.861
 31.470    533.000    535.404     -2.404    521.610    534.524    521.610    522.486    521.610
 31.570    542.673    531.400     11.274    521.360    530.594    521.360    522.162    521.360
 31.670    564.853    529.508     35.345    521.110    528.766    521.110    521.850    521.110
 31.770    566.886    528.497     38.388    520.862    527.811    520.862    521.548    520.862
 31.870    547.064    527.860     19.204    520.615    527.221    520.615    521.253    520.615
 31.970    488.000    527.422    -39.422    520.370    526.824    520.370    520.966    520.370
 32.070    520.000    527.123     -7.123    520.125    526.562    520.125    520.685    520.125
 32.170    542.163    526.942     15.221    519.881    526.413    519.881    520.409    519.881
 32.270    544.000    526.871     17.129    519.639    526.370    519.639    520.138    519.639
 32.370    549.633    526.909     22.724    519.397    526.434    519.397    519.871    519.397
 32.470    553.374    527.066     26.308    519.157    526.613    519.157    519.609    519.157
 32.570    516.413    527.359    -10.946    518.918    526.926    518.918    519.349    518.918
 32.670    575.000    527.813     47.187    518.680    527.398    518.680    519.093    518.680
 32.770    503.027    528.467    -25.439    518.443    528.069    518.443    518.840    518.443
 32.870    554.000    529.378     24.622    518.207    528.994    518.207    518.589    518.207
 32.970    512.000    530.629    -18.629    517.973    530.258    517.973    518.342    517.973
 33.070    519.000    532.350    -13.350    517.740    531.991    517.740    518.096    517.740
 33.170    560.000    534.779     25.221    517.507    534.431    517.507    517.853    517.507
 33.270    558.212    538.464     19.748    517.277    538.125    517.277    517.612    517.277
 33.370    573.964    544.898     29.067    517.047    544.567    517.047    517.374    517.047
 33.470    536.491    557.974    -21.483    516.819    557.649    516.819    517.137    516.819
 33.570    566.276    586.054    -19.779    516.591    585.732    516.591    516.902    516.591
 33.670    629.000    642.231    -13.231    516.365    641.905    516.365    516.669    516.365
 33.770    727.000    738.188    -11.188    516.141    737.853    516.141    516.438    516.141
 33.870    872.000    869.885      2.115    515.917    869.537    515.917    516.209    515.917
 33.970    981.000   1001.570    -20.570    515.695   1001.217    515.695    515.981    515.695
 34.070   1087.000   1066.001     20.999    515.474   1065.662    515.474    515.755    515.474
 34.170   1032.000   1017.648     14.352    515.254   1017.341    515.254    515.531    515.254
 34.270    937.372    892.174     45.198    515.036    891.895    515.036    515.309    515.036
 34.370    734.000    757.221    -23.221    514.819    756.958    514.819    515.088    514.819
 34.470    641.000    654.156    -13.156    514.603    653.898    514.603    514.869    514.603
 34.570    556.094    591.392    -35.298    514.388    591.135    514.388    514.651    514.388
 34.670    528.000    558.903    -30.903    514.175    558.645    514.175    514.435    514.175
 34.770    536.000    543.357     -7.357    513.963    543.100    513.963    514.220    513.963
 34.870    534.000    535.574     -1.574    513.753    535.319    513.753    514.007    513.753
 34.970    503.873    531.031    -27.158    513.543    530.778    513.543    513.796    513.543
 35.070    519.000    527.929     -8.929    513.335    527.678    513.335    513.586    513.335
 35.170    465.000    525.600    -60.600    513.129    525.351    513.129    513.378    513.129
 35.270    482.000    523.768    -41.768    512.924    523.520    512.924    513.171    512.924
 35.370    496.975    522.286    -25.311    512.720    522.040    512.720    512.966    512.720
 35.470    496.000    521.063    -25.063    512.517    520.818    512.517    512.762    512.517
 35.570    501.000    520.036    -19.036    512.316    519.792    512.316    512.560    512.316
 35.670    539.212    519.160     20.052    512.116    518.917    512.116    512.359    512.116
 35.770    533.000    518.404     14.596    511.917    518.161    511.917    512.159    511.917
 35.870    504.000    517.742    -13.742    511.720    517.500    511.720    511.962    511.720
 35.970    549.000    517.158     31.842    511.525    516.917    511.525    511.765    511.525
 36.070    509.000    516.638     -7.638    511.330    516.397    511.330    511.571    511.330
 36.170    531.000    516.173     14.827    511.137    515.932    511.137    511.377    511.137
 36.270    490.000    515.754    -25.754    510.946    515.514    510.946    511.186    510.946
 36.370    502.000    515.378    -13.378    510.755    515.137    510.755    510.995    510.755
 36.470    544.669    515.039     29.630    510.567    514.799    510.567    510.807    510.567
 36.570    536.000    514.739     21.261    510.379    514.498    510.379    510.619    510.379
 36.670    500.486    514.476    -13.990    510.193    514.236    510.193    510.434    510.193
 36.770    535.899    514.260     21.639    510.009    514.019    510.009    510.249    510.009
 36.870    548.219    514.110     34.109    509.825    513.869    509.825    510.067    509.825
 36.970    500.000    514.081    -14.081    509.644    513.840    509.644    509.885    509.644
 37.070    504.585    514.302     -9.718    509.463    514.060    509.463    509.706    509.463
 37.170    543.049    515.006     28.043    509.284    514.764    509.284    509.527    509.284
 37.270    569.000    516.512     52.488    509.107    516.268    509.107    509.351    509.107
 37.370    540.429    519.064     21.366    508.931    518.820    508.931    509.176    508.931
 37.470    498.073    522.543    -24.470    508.756    522.299    508.756    509.002    508.756
 37.570    511.776    526.157    -14.381    508.583    525.913    508.583    508.830    508.583
 37.670    547.206    528.425     18.781    508.411    528.182    508.411    508.659    508.411
 37.770    530.000    528.127      1.873    508.241    527.884    508.241    508.490    508.241
 37.870    516.000    525.565     -9.565    508.072    525.324    508.072    508.322    508.072
 37.970    528.656    522.069      6.588    507.905    521.828    507.905    508.156    507.905
 38.070    502.000    518.690    -16.690    507.739    518.448    507.739    507.992    507.739
 38.170    533.000    515.879     17.121    507.575    515.634    507.575    507.829    507.575
 38.270    523.000    513.768      9.232    507.412    513.520    507.412    507.667    507.412
 38.370    515.000    512.309      2.691    507.250    512.056    507.250    507.507    507.250
 38.470    475.789    511.346    -35.558    507.090    511.090    507.090    507.349    507.090
 38.570    530.000    510.719     19.281    506.931    510.460    506.931    507.192    506.931
 38.670    496.000    510.295    -14.295    506.774    510.033    506.774    507.037    506.774
 38.770    549.665    509.985     39.681    506.619    509.721    506.619    506.883    506.619
 38.870    531.000    509.736     21.264    506.464    509.470    506.464    506.731    506.464
 38.970    479.333    509.521    -30.188    506.312    509.253    506.312    506.580    506.312
 39.070    518.574    509.328      9.246    506.160    509.057    506.160    506.431    506.160
 39.170    516.000    509.150      6.850    506.011    508.877    506.011    506.284    506.011
 39.270    515.000    508.985      6.015    505.862    508.710    505.862    506.138    505.862
 39.370    491.555    508.831    -17.275    505.716    508.553    505.716    505.993    505.716
 39.470    522.000    508.686     13.314    505.570    508.406    505.570    505.850    505.570
 39.570    465.000    508.550    -43.550    505.426    508.268    505.426    505.709    505.426
 39.670    547.000    508.422     38.578    505.284    508.137    505.284    505.569    505.284
 39.770    537.000    508.302     28.698    505.143    508.015    505.143    505.431    505.143
 39.870    499.031    508.190     -9.159    505.004    507.900    505.004    505.295    505.004
 39.970    503.000    508.087     -5.087    504.866    507.793    504.866    505.160    504.866
 40.070    474.000    507.991    -33.991    504.730    507.695    504.730    505.026    504.730
 40.170    483.000    507.904    -24.904    504.595    507.605    504.595    504.894    504.595
 40.270    502.980    507.827     -4.847    504.461    507.524    504.461    504.764    504.461
 40.370    532.436    507.759     24.677    504.329    507.453    504.329    504.635    504.329
 40.470    547.380    507.703     39.678    504.199    507.393    504.199    504.508    504.199
 40.570    494.000    507.659    -13.659    504.070    507.346    504.070    504.383    504.070
 40.670    497.000    507.629    -10.629    503.942    507.313    503.942    504.259    503.942
 40.770    491.922    507.616    -15.694    503.816    507.296    503.816    504.137    503.816
 40.870    469.000    507.621    -38.621    503.692    507.298    503.692    504.016    503.692
 40.970    538.658    507.650     31.008    503.569    507.322    503.569    503.897    503.569
 41.070    459.000    507.706    -48.706    503.448    507.374    503.448    503.780    503.448
 41.170    518.000    507.796     10.204    503.328    507.460    503.328    503.664    503.328
 41.270    480.847    507.928    -27.081    503.209    507.588    503.209    503.550    503.209
 41.370    482.000    508.114    -26.114    503.092    507.769    503.092    503.438    503.092
 41.470    502.000    508.369     -6.369    502.977    508.020    502.977    503.327    502.977
 41.570    547.871    508.720     39.151    502.863    508.366    502.863    503.218    502.863
 41.670    520.000    509.214     10.786    502.750    508.855    502.750    503.110    502.750
 41.770    499.000    509.957    -10.957    502.639    509.593    502.639    503.005    502.639
 41.870    498.000    511.201    -13.201    502.529    510.833    502.529    502.900    502.529
 41.970    512.000    513.521     -1.521    502.421    513.148    502.421    502.798    502.421
 42.070    447.000    518.040    -71.040    502.315    517.663    502.315    502.697    502.315
 42.170    531.000    526.513      4.487    502.210    526.135    502.210    502.598    502.210
 42.270    521.000    540.907    -19.907    502.106    540.529    502.106    502.500    502.106
 42.370    582.000    562.176     19.824    502.004    561.801    502.004    502.405    502.004
 42.470    631.121    588.502     42.620    501.903    588.134    501.903    502.311    501.903
 42.570    595.376    613.780    -18.404    501.804    613.419    501.804    502.218    501.804
 42.670    617.000    628.198    -11.198    501.706    627.841    501.706    502.128    501.706
 42.770    598.037    624.308    -26.271    501.610    623.944    501.610    502.039    501.610
 42.870    571.000    604.371    -33.371    501.516    603.992    501.516    501.952    501.516
 42.970    558.000    577.699    -19.699    501.422    577.298    501.422    501.867    501.422
 43.070    559.000    552.860      6.140    501.331    552.437    501.331    501.783    501.331
 43.170    558.751    534.168     24.582    501.240    533.725    501.240    501.702    501.240
 43.270    555.000    522.161     32.839    501.151    521.701    501.151    501.622    501.151
 43.370    519.000    515.324      3.676    501.064    514.851    501.064    501.544    501.064
 43.470    514.000    511.699      2.301    500.978    511.213    500.978    501.468    500.978
 43.570    478.000    509.772    -31.772    500.894    509.275    500.894    501.394    500.894
 43.670    518.000    508.658      9.342    500.811    508.150    500.811    501.321    500.811
 43.770    520.000    507.930     12.070    500.729    507.410    500.729    501.251    500.729
 43.870    470.356    507.403    -37.048    500.649    506.871    500.649    501.183    500.649
 43.970    570.000    507.000     63.000    500.571    506.456    500.571    501.116    500.571
 44.070    504.948    506.684     -1.736    500.493    506.127    500.493    501.052    500.493
 44.170    499.000    506.433     -7.433    500.418    505.862    500.418    500.990    500.418
 44.270    514.000    506.234      7.766    500.343    505.649    500.343    500.929    500.343
 44.370    514.000    506.077      7.923    500.271    505.477    500.271    500.871    500.271
 44.470    541.000    505.954     35.046    500.199    505.338    500.199    500.816    500.199
 44.570    510.000    505.860      4.140    500.129    505.228    500.129    500.762    500.129
 44.670    495.000    505.792    -10.792    500.061    505.142    500.061    500.711    500.061
 44.770    513.127    505.746      7.380    499.994    505.078    499.994    500.662    499.994
 44.870    497.000    505.721     -8.721    499.928    505.033    499.928    500.616    499.928
 44.970    556.000    505.714     50.286    499.864    505.007    499.864    500.572    499.864
 45.070    541.819    505.726     36.093    499.801    504.996    499.801    500.531    499.801
 45.170    491.369    505.755    -14.385    499.740    505.002    499.740    500.492    499.740
 45.270    482.846    505.800    -22.955    499.680    505.024    499.680    500.457    499.680
 45.370    541.855    505.864     35.992    499.622    505.061    499.622    500.424    499.622
 45.470    484.000    505.944    -21.944    499.564    505.114    499.564    500.395    499.564
 45.570    510.000    506.043      3.957    499.509    505.183    499.509    500.368    499.509
 45.670    518.000    506.162     11.838    499.454    505.270    499.454    500.346    499.454
 45.770    517.000    506.301     10.699    499.402    505.375    499.402    500.327    499.402
 45.870    531.000    506.462     24.538    499.350    505.500    499.350    500.311    499.350
 45.970    528.000    506.649     21.351    499.300    505.648    499.300    500.300    499.300
 46.070    514.734    506.863      7.871    499.251    505.820    499.251    500.294    499.251
 46.170    471.719    507.108    -35.389    499.204    506.020    499.204    500.292    499.204
 46.270    531.828    507.390     24.438    499.158    506.252    499.158    500.295    499.158
 46.370    475.000    507.714    -32.714    499.113    506.522    499.113    500.304    499.113
 46.470    515.781    508.088      7.693    499.070    506.837    499.070    500.320    499.070
 46.570    483.354    508.522    -25.168    499.028    507.208    499.028    500.342    499.028
 46.670    511.000    509.034      1.966    498.988    507.649    498.988    500.371    498.988
 46.770    541.000    509.652     31.348    498.949    508.190    498.949    500.409    498.949
 46.870    487.543    510.435    -22.891    498.911    508.888    498.911    500.456    498.911
 46.970    503.000    511.515     -8.515    498.875    509.874    498.875    500.513    498.875
 47.070    497.000    513.171    -16.171    498.840    511.424    498.840    500.583    498.840
 47.170    501.515    515.928    -14.413    498.806    514.063    498.806    500.666    498.806
 47.270    541.000    520.615     20.385    498.773    518.616    498.773    500.764    498.773
 47.370    525.000    528.246     -3.246    498.742    526.094    498.742    500.880    498.742
 47.470    535.569    539.600     -4.031    498.713    537.273    498.713    501.017    498.713
 47.570    531.000    554.525    -23.525    498.684    551.997    498.684    501.179    498.684
 47.670    568.070    571.205     -3.135    498.657    568.448    498.657    501.369    498.657
 47.770    591.833    585.770      6.062    498.631    582.753    498.631    501.595    498.631
 47.870    618.000    593.101     24.899    498.607    589.789    498.607    501.862    498.607
 47.970    625.717    590.185     35.533    498.584    586.534    498.584    502.182    498.584
 48.070    565.450    579.072    -13.622    498.562    575.023    498.562    502.568    498.562
 48.170    595.427    564.748     30.679    498.541    560.216    498.541    503.042    498.541
 48.270    580.000    551.587     28.413    498.522    546.450    498.522    503.638    498.522
 48.370    530.000    541.980    -11.980    498.504    536.059    498.504    504.411    498.504
 48.470    554.145    536.567     17.578    498.487    529.592    498.487    505.454    498.487
 48.570    489.000    534.939    -45.939    498.472    526.495    498.472    506.910    498.472
 48.670    562.000    536.383     25.617    498.458    525.839    498.458    508.997    498.458
 48.770    574.979    540.395     34.584    498.445    526.828    498.445    512.007    498.445
 48.870    574.979    546.853     28.126    498.433    528.985    498.433    516.296    498.433
 48.970    582.676    555.970     26.707    498.423    532.166    498.423    522.222    498.423
 49.070    559.457    568.179     -8.721    498.413    536.543    498.413    530.044    498.413
 49.170    589.761    584.167      5.594    498.406    542.794    498.406    539.770    498.406
 49.270    632.012    605.323     26.689    498.399    552.761    498.399    550.951    498.399
 49.370    645.000    635.015      9.985    498.393    570.996    498.393    562.397    498.393
 49.470    655.000    681.054    -26.054    498.389    607.437    498.389    571.979    498.389
 49.570    758.096    759.030     -0.934    498.386    680.348    498.386    577.019    498.386
 49.670    876.385    893.915    -17.530    498.384    816.471    498.384    575.746    498.384
 49.770   1174.000   1113.956     60.044    498.384   1043.551    498.384    568.662    498.384
 49.870   1465.000   1432.533     32.467    498.384   1372.651    498.384    558.098    498.384
 49.970   1899.778   1823.766     76.012    498.386   1775.367    498.386    546.598    498.386
 50.070   2173.000   2207.190    -34.190    498.389   2169.508    498.389    535.915    498.389
 50.170   2435.000   2460.216    -25.216    498.393   2431.621    498.393    526.920    498.393
 50.270   2398.081   2476.593    -78.512    498.398   2455.179    498.398    519.863    498.398
 50.370   2245.000   2245.843     -0.843    498.405   2229.772    498.405    514.619    498.405
 50.470   1798.000   1863.753    -65.753    498.412   1851.466    498.412    510.877    498.412
 50.570   1373.000   1457.457    -84.457    498.421   1447.772    498.421    508.272    498.421
 50.670   1089.340   1118.311    -28.971    498.431   1110.401    498.431    506.471    498.431
 50.770    895.000    882.823     12.177    498.442    876.148    498.442    505.208    498.442
 50.870    701.783    743.695    -41.911    498.454    737.915    498.454    504.297    498.454
 50.970    631.000    672.154    -41.154    498.467    667.053    498.467    503.615    498.467
 51.070    660.461    637.490     22.971    498.482    632.923    498.482    503.088    498.482
 51.170    638.000    617.526     20.474    498.497    613.389    498.497    502.667    498.497
 51.270    611.000    601.077      9.923    498.514    597.294    498.514    502.326    498.514
 51.370    572.000    585.181    -13.181    498.531    581.690    498.531    502.046    498.531
 51.470    547.364    570.521    -23.157    498.550    567.275    498.550    501.813    498.550
 51.570    530.000    558.306    -28.306    498.570    555.268    498.570    501.621    498.570
 51.670    546.000    549.147     -3.147    498.591    546.286    498.591    501.461    498.591
 51.770    551.000    542.953      8.047    498.613    540.243    498.613    501.329    498.613
 51.870    552.420    539.195     13.225    498.636    536.616    498.636    501.220    498.636
 51.970    567.464    537.242     30.222    498.660    534.774    498.660    501.131    498.660
 52.070    534.904    536.583     -1.679    498.685    534.210    498.685    501.060    498.685
 52.170    541.331    536.926      4.405    498.712    534.635    498.712    501.004    498.712
 52.270    566.793    538.222     28.571    498.739    536.001    498.739    500.962    498.739
 52.370    566.000    540.709     25.291    498.767    538.547    498.767    500.931    498.767
 52.470    545.000    545.079     -0.079    498.797    542.965    498.797    500.911    498.797
 52.570    569.000    552.832     16.168    498.827    550.758    498.827    500.901    498.827
 52.670    553.180    566.784    -13.604    498.858    564.742    498.858    500.900    498.858
 52.770    586.000    591.496     -5.496    498.891    589.478    498.891    500.907    498.891
 52.870    623.747    633.122     -9.375    498.924    631.120    498.924    500.922    498.924
 52.970    768.000    698.023     69.977    498.958    696.032    498.958    500.944    498.958
 53.070    892.000    789.842    102.158    498.993    787.857    498.993    500.972    498.993
 53.170    950.000    905.568     44.432    499.030    903.585    499.030    501.007    499.030
 53.270    977.948   1031.869    -53.920    499.067   1029.886    499.067    501.048    499.067
 53.370   1167.000   1143.488     23.512    499.105   1141.504    499.105    501.095    499.105
 53.470   1237.000   1207.805     29.195    499.144   1205.819    499.144    501.148    499.144
 53.570   1201.017   1201.044     -0.027    499.184   1199.051    499.184    501.207    499.184
 53.670   1097.000   1126.188    -29.188    499.225   1124.180    499.225    501.271    499.225
 53.770    952.000   1010.239    -58.239    499.267   1008.203    499.267    501.341    499.267
 53.870    877.000    885.081     -8.081    499.310    883.007    499.310    501.417    499.310
 53.970    773.000    773.786     -0.786    499.353    771.667    499.353    501.498    499.353
 54.070    668.225    687.574    -19.349    499.398    685.404    499.398    501.586    499.398
 54.170    620.000    627.942     -7.942    499.443    625.718    499.443    501.679    499.443
 54.270    610.000    590.493     19.507    499.490    588.211    499.490    501.779    499.490
 54.370    576.976    568.756      8.220    499.537    566.412    499.537    501.885    499.537
 54.470    590.000    556.829     33.171    499.585    554.418    499.585    501.999    499.585
 54.570    595.000    550.489     44.511    499.634    548.005    499.634    502.119    499.634
 54.670    598.000    547.195     50.805    499.684    544.633    499.684    502.247    499.684
 54.770    574.000    545.612     28.388    499.734    542.963    499.734    502.384    499.734
 54.870    531.000    545.108    -14.108    499.786    542.366    499.786    502.529    499.786
 54.970    500.606    545.412    -44.807    499.838    542.568    499.838    502.683    499.838
 55.070    577.729    546.423     31.306    499.891    543.468    499.891    502.847    499.891
 55.170    539.000    548.124     -9.124    499.945    545.047    499.945    503.023    499.945
 55.270    547.000    550.554     -3.554    500.000    547.345    500.000    503.210    500.000
 55.370    552.085    553.805     -1.721    500.055    550.451    500.055    503.410    500.055
 55.470    576.000    558.049     17.951    500.112    554.537    500.112    503.624    500.112
 55.570    526.000    563.617    -37.617    500.169    559.931    500.169    503.854    500.169
 55.670    552.000    571.196    -19.196    500.227    567.320    500.227    504.101    500.227
 55.770    534.884    582.269    -47.386    500.285    578.186    500.285    504.368    500.285
 55.870    627.000    599.954     27.046    500.344    595.640    500.344    504.656    500.344
 55.970    614.000    630.300    -16.300    500.404    625.730    500.404    504.968    500.404
 56.070    699.000    683.768     15.232    500.465    678.914    500.465    505.307    500.465
 56.170    724.000    775.939    -51.939    500.527    770.765    500.527    505.677    500.527
 56.270    891.499    925.788    -34.289    500.589    920.257    500.589    506.082    500.589
 56.370   1113.000   1150.016    -37.016    500.652   1144.087    500.652    506.526    500.652
 56.470   1409.000   1453.439    -44.439    500.716   1447.071    500.716    507.017    500.716
 56.570   1723.000   1818.103    -95.103    500.780   1811.259    500.780    507.560    500.780
 56.670   2112.567   2195.423    -82.856    500.845   2188.064    500.845    508.164    500.845
 56.770   2496.000   2506.453    -10.453    500.910   2498.537    500.910    508.841    500.910
 56.870   2633.000   2661.012    -28.012    500.977   2652.483    500.977    509.602    500.977
 56.970   2630.000   2605.003     24.997    501.044   2595.763    501.044    510.463    501.044
 57.070   2380.577   2360.504     20.073    501.111   2350.404    501.111    511.446    501.111
 57.170   2091.000   2007.274     83.726    501.180   1996.122    501.180    512.577    501.180
 57.270   1697.000   1632.771     64.229    501.248   1620.343    501.248    513.898    501.248
 57.370   1376.000   1300.566     75.434    501.318   1286.596    501.318    515.465    501.318
 57.470   1059.684   1042.620     17.064    501.388   1026.761    501.388    517.374    501.388
 57.570    903.000    863.959     39.041    501.459    845.729    501.459    519.772    501.459
 57.670    759.000    752.807      6.193    501.530    731.494    501.530    522.893    501.530
 57.770    729.000    691.406     37.594    501.602    665.935    501.602    527.099    501.602
 57.870    641.082    663.887    -22.805    501.674    632.659    501.674    532.913    501.674
 57.970    618.000    659.954    -41.954    501.747    620.659    501.747    541.042    501.747
 58.070    627.586    675.196    -47.610    501.821    624.648    501.821    552.359    501.821
 58.170    689.000    709.542    -20.542    501.895    643.602    501.895    567.815    501.895
 58.270    798.620    764.984     33.635    501.970    678.644    501.970    588.277    501.970
 58.370    798.000    843.193    -45.193    502.045    730.909    502.045    614.285    502.045
 58.470    981.000    943.350     37.650    502.120    799.676    502.120    645.741    502.120
 58.570   1027.244   1060.393    -33.148    502.197    880.995    502.197    681.536    502.197
 58.670   1212.741   1184.262     28.479    502.273    967.396    502.273    719.083    502.273
 58.770   1264.000   1301.015    -37.015    502.350   1049.488    502.350    753.830    502.350
 58.870   1442.000   1395.932     46.068    502.428   1118.979    502.428    779.349    502.428
 58.970   1450.000   1455.916     -5.916    502.506   1169.229    502.506    789.179    502.506
 59.070   1555.000   1471.387     83.613    502.585   1193.587    502.585    780.392    502.585
 59.170   1487.000   1440.576     46.424    502.664   1187.580    502.664    755.681    502.664
 59.270   1446.000   1373.347     72.653    502.743   1154.702    502.743    721.414    502.743
 59.370   1372.000   1288.402     83.598    502.823   1107.175    502.823    684.065    502.823
 59.470   1194.510   1205.767    -11.256    502.904   1060.376    502.904    648.286    502.904
 59.570   1203.000   1142.594     60.406    502.984   1028.784    502.984    616.751    502.984
 59.670   1115.659   1113.436      2.223    503.065   1025.781    503.065    590.633    503.065
 59.770   1189.800   1129.274     60.526    503.147   1062.210    503.147    570.071    503.147
 59.870   1268.000   1192.972     75.028    503.229   1141.451    503.229    554.554    503.229
 59.970   1316.000   1294.790     21.210    503.311   1254.628    503.311    543.223    503.311
 60.070   1449.000   1411.043     37.957    503.394   1379.019    503.394    535.128    503.394
 60.170   1584.000   1506.716     77.284    503.477   1480.497    503.477    529.392    503.477
 60.270   1589.059   1544.707     44.353    503.560   1522.687    503.560    525.299    503.560
 60.370   1454.000   1503.446    -49.446    503.644   1484.543    503.644    522.319    503.644
 60.470   1390.622   1390.123      0.499    503.728   1373.602    503.728    520.087    503.728
 60.570   1251.278   1233.729     17.549    503.813   1219.074    503.813    518.366    503.813
 60.670   1061.189   1067.587     -6.398    503.897   1054.420    503.897    517.009    503.897
 60.770    950.721    917.578     33.143    503.982    905.605    503.982    515.930    503.982
 60.870    835.432    798.269     37.164    504.068    787.248    504.068    515.077    504.068
 60.970    714.000    713.776      0.224    504.153    703.503    504.153    514.420    504.153
 61.070    653.000    661.258     -8.258    504.239    651.546    504.239    513.943    504.239
 61.170    634.000    635.284     -1.284    504.325    625.964    504.325    513.632    504.325
 61.270    670.023    631.507     38.516    504.412    622.421    504.412    513.476    504.412
 61.370    611.000    648.693    -37.693    504.498    639.700    504.498    513.458    504.498
 61.470    693.000    688.896      4.104    504.585    679.880    504.585    513.550    504.585
 61.570    715.369    755.928    -40.558    504.672    746.815    504.672    513.710    504.672
 61.670    900.000    852.498     47.502    504.760    843.277    504.760    513.876    504.760
 61.770    974.233    976.719     -2.486    504.847    967.463    504.847    513.965    504.847
 61.870   1021.000   1119.016    -98.016    504.935   1109.888    504.935    513.896    504.935
 61.970   1242.538   1260.571    -18.033    505.023   1251.783    505.023    513.625    505.023
 62.070   1335.000   1374.475    -39.475    505.111   1366.231    505.111    513.169    505.111
 62.170   1377.000   1432.098    -55.098    505.199   1424.540    505.199    512.594    505.199
 62.270   1395.702   1416.051    -20.349    505.288   1409.242    505.288    511.975    505.288
 62.370   1288.000   1331.077    -43.077    505.376   1325.005    505.376    511.373    505.376
 62.470   1266.569   1200.640     65.929    505.465   1195.240    505.465    510.828    505.465
 62.570   1025.000   1053.696    -28.696    505.554   1048.881    505.554    510.358    505.554
 62.670    936.000    914.255     21.745    505.643    909.931    505.643    509.972    505.643
 62.770    780.000    797.292    -17.292    505.732    793.370    505.732    509.665    505.732
 62.870    673.000    708.697    -35.697    505.821    705.098    505.821    509.429    505.821
 62.970    643.000    647.358     -4.358    505.911    644.021    505.911    509.254    505.911
 63.070    604.438    608.190     -3.752    506.000    605.066    506.000    509.126    506.000
 63.170    555.000    584.973    -29.973    506.089    582.026    506.089    509.036    506.089
 63.270    591.000    572.266     18.734    506.179    569.467    506.179    508.974    506.179
 63.370    607.000    566.268     40.732    506.269    563.598    506.269    508.933    506.269
 63.470    568.087    564.940      3.147    506.358    562.382    506.358    508.908    506.358
 63.570    565.000    567.790     -2.790    506.448    565.331    506.448    508.896    506.448
 63.670    573.637    575.600     -1.963    506.538    573.229    506.538    508.895    506.538
 63.770    601.000    590.153     10.847    506.627    587.857    506.627    508.901    506.627
 63.870    647.000    613.851     33.149    506.717    611.622    506.717    508.915    506.717
 63.970    666.000    649.108     16.892    506.807    646.935    506.807    508.935    506.807
 64.070    681.000    697.443    -16.443    506.896    695.315    506.896    508.961    506.896
 64.170    809.511    758.394     51.117    506.986    756.304    506.986    508.992    506.986
 64.270    912.000    828.502     83.498    507.076    826.446    507.076    509.027    507.076
 64.370    899.000    900.659     -1.659    507.166    898.635    507.166    509.067    507.166
 64.470    997.000    964.334     32.666    507.255    962.347    507.255    509.110    507.255
 64.570   1048.089   1007.776     40.312    507.345   1005.834    507.345    509.156    507.345
 64.670   1079.738   1022.561     57.176    507.434   1020.673    507.434    509.206    507.434
 64.770   1003.180   1007.324     -4.144    507.524   1005.496    507.524    509.259    507.524
 64.870    991.000    967.342     23.658    507.613    965.575    507.613    509.315    507.613
 64.970    948.000    911.688     36.312    507.702    909.980    507.702    509.373    507.702
 65.070    876.000    850.255     25.745    507.791    848.600    507.791    509.434    507.791
 65.170    789.000    791.103     -2.103    507.880    789.492    507.880    509.497    507.880
 65.270    735.000    738.938     -3.938    507.969    737.363    507.969    509.562    507.969
 65.370    712.380    695.319     17.061    508.058    693.771    508.058    509.630    508.058
 65.470    685.673    659.945     25.728    508.146    658.417    508.146    509.699    508.146
 65.570    647.000    631.892     15.108    508.235    630.379    508.235    509.770    508.235
 65.670    644.177    610.136     34.042    508.323    608.634    508.323    509.842    508.323
 65.770    573.000    593.659    -20.659    508.411    592.165    508.411    509.917    508.411
 65.870    600.551    581.527     19.024    508.499    580.040    508.499    509.993    508.499
 65.970    614.188    572.947     41.241    508.587    571.467    508.587    510.071    508.587
 66.070    584.000    567.268     16.732    508.674    565.794    508.674    510.150    508.674
 66.170    577.000    563.958     13.042    508.762    562.490    508.762    510.230    508.762
 66.270    607.000    562.589     44.411    508.849    561.125    508.849    510.313    508.849
 66.370    541.875    562.841    -20.966    508.936    561.380    508.936    510.396    508.936
 66.470    513.000    564.543    -51.543    509.023    563.085    509.023    510.481    509.023
 66.570    606.084    567.741     38.343    509.109    566.283    509.109    510.568    509.109
 66.670    578.000    572.815      5.185    509.195    571.355    509.195    510.656    509.195
 66.770    545.829    580.691    -34.862    509.281    579.228    509.281    510.745    509.281
 66.870    622.000    593.185     28.815    509.367    591.716    509.367    510.836    509.367
 66.970    606.000    613.469     -7.469    509.452    611.991    509.452    510.928    509.452
 67.070    648.000    646.562      1.438    509.537    645.073    509.537    511.022    509.537
 67.170    666.379    699.616    -33.237    509.622    698.112    509.622    511.117    509.622
 67.270    825.601    781.607     43.994    509.706    780.085    509.706    511.214    509.706
 67.370    850.139    902.034    -51.895    509.791    900.493    509.791    511.313    509.791
 67.470   1071.480   1068.401      3.079    509.874   1066.841    509.874    511.413    509.874
 67.570   1322.000   1282.737     39.263    509.958   1281.162    509.958    511.515    509.958
 67.670   1552.000   1537.928     14.072    510.041   1536.348    510.041    511.619    510.041
 67.770   1902.000   1814.937     87.063    510.124   1813.364    510.124    511.725    510.124
 67.870   2025.354   2081.930    -56.576    510.206   2080.378    510.206    511.833    510.206
 67.970   2340.000   2296.754     43.246    510.288   2295.236    510.288    511.944    510.288
 68.070   2404.348   2415.789    -11.441    510.370   2414.310    510.370    512.057    510.370
 68.170   2471.000   2410.452     60.548    510.451   2409.003    510.451    512.172    510.451
 68.270   2257.897   2282.202    -24.305    510.532   2280.754    510.532    512.291    510.532
 68.370   2078.000   2061.625     16.375    510.613   2060.144    510.613    512.412    510.613
 68.470   1850.000   1792.702     57.298    510.693   1791.156    510.693    512.537    510.693
 68.570   1577.723   1516.896     60.826    510.772   1515.261    510.772    512.665    510.772
 68.670   1251.000   1264.986    -13.986    510.852   1263.249    510.852    512.797    510.852
 68.770   1032.314   1054.936    -22.622    510.930   1053.092    510.930    512.933    510.930
 68.870    891.000    892.965     -1.965    511.009    891.014    511.009    513.073    511.009
 68.970    797.651    776.443     21.208    511.086    774.388    511.086    513.219    511.086
 69.070    683.000    697.580    -14.580    511.164    695.424    511.164    513.371    511.164
 69.170    618.000    646.848    -28.848    511.241    644.592    511.241    513.529    511.241
 69.270    589.000    615.388    -26.388    511.317    613.032    511.317    513.694    511.317
 69.370    641.000    596.218     44.782    511.393    593.758    511.393    513.867    511.393
 69.470    612.000    584.467     27.533    511.468    581.897    511.468    514.048    511.468
 69.570    574.000    577.059     -3.059    511.543    574.370    511.543    514.239    511.543
 69.670    540.000    572.205    -32.205    511.618    569.386    511.618    514.441    511.618
 69.770    559.000    568.931     -9.931    511.692    565.971    511.692    514.655    511.692
 69.870    597.000    566.734     30.266    511.765    563.618    511.765    514.883    511.765
 69.970    571.000    565.363      5.637    511.838    562.077    511.838    515.126    511.838
 70.070    579.000    564.704     14.296    511.910    561.228    511.910    515.387    511.910
 70.170    561.050    564.720     -3.670    511.982    561.033    511.982    515.668    511.982
 70.270    574.496    565.443      9.053    512.053    561.523    512.053    515.972    512.053
 70.370    523.561    566.993    -43.432    512.123    562.811    512.123    516.302    512.123
 70.470    546.748    569.633    -22.885    512.193    565.158    512.193    516.664    512.193
 70.570    594.000    573.874     20.126    512.262    569.069    512.262    517.062    512.262
 70.670    543.000    580.642    -37.642    512.331    575.462    512.331    517.503    512.331
 70.770    558.402    591.504    -33.102    512.399    585.895    512.399    517.996    512.399
 70.870    648.133    608.928     39.206    512.467    602.823    512.467    518.553    512.467
 70.970    601.000    636.487    -35.487    512.534    629.799    512.534    519.193    512.534
 71.070    631.000    678.875    -47.875    512.600    671.488    512.600    519.944    512.600
 71.170    675.000    741.538    -66.538    512.665    733.290    512.665    520.850    512.665
 71.270    848.000    829.786     18.214    512.730    820.447    512.730    521.981    512.730
 71.370    963.000    947.342     15.658    512.794    936.575    512.794    523.444    512.794
 71.470   1104.724   1094.533     10.191    512.858   1081.843    512.858    525.399    512.858
 71.570   1201.000   1266.533    -65.533    512.921   1251.199    512.921    528.075    512.921
 71.670   1479.000   1452.111     26.889    512.983   1433.110    512.983    531.780    512.983
 71.770   1625.000   1633.317     -8.317    513.045   1609.243    513.045    536.902    513.045
 71.870   1855.000   1786.686     68.314    513.105   1755.689    513.105    543.889    513.105
 71.970   1801.393   1887.249    -85.856    513.166   1847.019    513.166    553.203    513.166
 72.070   1826.000   1916.341    -90.341    513.225   1864.167    513.225    565.241    513.225
 72.170   1892.000   1870.186     21.814    513.284   1803.117    513.284    580.235    513.284
 72.270   1748.000   1762.023    -14.023    513.341   1677.151    513.341    598.133    513.341
 72.370   1615.000   1615.332     -0.332    513.399   1510.204    513.399    618.477    513.399
 72.470   1514.758   1454.538     60.220    513.455   1327.676    513.455    640.291    513.455
 72.570   1322.000   1299.087     22.913    513.511   1150.606    513.511    661.978    513.511
 72.670   1047.000   1161.208   -114.208    513.566    993.472    513.566    681.294    513.566
 72.770    982.000   1045.909    -63.909    513.620    863.988    513.620    695.535    513.620
 72.870    914.000    952.533    -38.533    513.673    764.018    513.673    702.184    513.673
 72.970    798.000    877.372    -79.372    513.726    691.192    513.726    699.900    513.726
 73.070    763.775    816.186    -52.411    513.777    640.773    513.777    689.185    513.777
 73.170    775.980    765.589     10.392    513.828    607.299    513.828    672.113    513.828
 73.270    720.339    723.258     -2.919    513.879    585.742    513.879    651.390    513.879
 73.370    635.000    687.689    -52.689    513.928    572.093    513.928    629.521    513.928
 73.470    629.593    657.939    -28.346    513.976    563.496    513.976    608.418    513.976
 73.570    611.000    633.434    -22.434    514.024    558.108    514.024    589.349    514.024
 73.670    619.367    613.785      5.582    514.071    554.845    514.071    573.014    514.071
 73.770    589.000    598.640     -9.640    514.117    553.115    514.117    559.648    514.117
 73.870    614.852    587.584     27.268    514.162    552.611    514.162    549.144    514.162
 73.970    585.000    580.101      4.899    514.206    553.148    514.206    541.173    514.206
 74.070    574.616    575.581     -0.965    514.250    554.556    514.250    535.293    514.250
 74.170    609.000    573.334     35.666    514.292    556.608    514.292    531.043    514.292
 74.270    608.000    572.625     35.375    514.334    558.986    514.334    528.003    514.334
 74.370    559.977    572.689    -12.712    514.375    561.276    514.375    525.825    514.375
 74.470    660.000    572.778     87.222    514.415    562.993    514.415    524.241    514.415
 74.570    642.000    572.239     69.761    514.454    563.676    514.454    523.061    514.454
 74.670    667.000    570.651     96.349    514.492    563.035    514.492    522.152    514.492
 74.770    604.000    567.942     36.058    514.529    561.084    514.529    521.429    514.529
 74.870    585.000    564.371     20.629    514.565    558.137    514.565    520.837    514.565
 74.970    571.732    560.399     11.333    514.600    554.693    514.600    520.339    514.600
 75.070    578.000    556.550     21.450    514.635    551.297    514.635    519.914    514.635
 75.170    611.000    553.333     57.667    514.668    548.475    514.668    519.545    514.668
 75.270    593.000    551.235     41.765    514.701    546.726    514.701    519.224    514.701
 75.370    523.870    550.739    -26.869    514.732    546.537    514.732    518.941    514.732
 75.470    582.000    552.339     29.661    514.763    548.412    514.763    518.691    514.763
 75.570    558.359    556.556      1.803    514.792    552.874    514.792    518.470    514.792
 75.670    580.669    563.899     16.770    514.821    560.438    514.821    518.272    514.821
 75.770    596.000    574.793     21.207    514.849    571.528    514.849    518.096    514.849
 75.870    584.926    589.436     -4.510    514.875    586.348    514.875    517.938    514.875
 75.970    648.000    607.647     40.353    514.901    604.718    514.901    517.796    514.901
 76.070    627.962    628.707     -0.745    514.926    625.922    514.926    517.668    514.926
 76.170    626.000    651.258    -25.258    514.949    648.604    514.949    517.552    514.949
 76.270    643.000    673.280    -30.280    514.972    670.746    514.972    517.447    514.972
 76.370    696.000    692.186      3.814    514.993    689.764    514.993    517.352    514.993
 76.470    632.000    705.150    -73.150    515.014    702.834    515.014    517.265    515.014
 76.570    665.122    709.808    -44.686    515.034    707.593    515.034    517.185    515.034
 76.670    663.000    705.173    -42.173    515.052    703.055    515.052    517.112    515.052
 76.770    678.605    692.112    -13.508    515.070    690.088    515.070    517.045    515.070
 76.870    621.000    672.918    -51.918    515.086    670.981    515.086    516.983    515.086
 76.970    648.000    650.394     -2.394    515.102    648.539    515.102    516.926    515.102
 77.070    605.000    627.131    -22.131    515.116    625.351    515.116    516.872    515.116
 77.170    586.000    605.160    -19.160    515.129    603.450    515.129    516.823    515.129
 77.270    605.000    585.838     19.162    515.142    584.192    515.142    516.776    515.142
 77.370    539.611    569.856    -30.245    515.153    568.269    515.153    516.733    515.153
 77.470    547.000    557.345    -10.345    515.163    555.811    515.163    516.692    515.163
 77.570    553.675    548.024      5.651    515.172    546.539    515.172    516.653    515.172
 77.670    547.000    541.375      5.625    515.180    539.936    515.180    516.617    515.180
 77.770    504.000    536.802    -32.802    515.186    535.405    515.186    516.582    515.186
 77.870    562.111    533.740     28.372    515.192    532.382    515.192    516.548    515.192
 77.970    567.309    531.718     35.591    515.197    530.398    515.197    516.516    515.197
 78.070    532.000    530.384      1.616    515.200    529.098    515.200    516.485    515.200
 78.170    488.000    529.490    -41.490    515.203    528.236    515.203    516.456    515.203
 78.270    480.000    528.879    -48.879    515.204    527.655    515.204    516.427    515.204
 78.370    533.714    528.455      5.259    515.204    527.259    515.204    516.399    515.204
 78.470    496.000    528.166    -32.166    515.203    526.996    515.203    516.372    515.203
 78.570    537.000    527.986      9.014    515.201    526.841    515.201    516.345    515.201
 78.670    519.228    527.893     -8.666    515.198    526.771    515.198    516.320    515.198
 78.770    492.000    527.908    -35.908    515.193    526.806    515.193    516.295    515.193
 78.870    539.528    528.078     11.451    515.188    526.994    515.188    516.271    515.188
 78.970    539.000    528.401     10.599    515.181    527.333    515.181    516.248    515.181
 79.070    554.576    528.907     25.670    515.173    527.852    515.173    516.226    515.173
 79.170    550.000    529.621     20.379    515.164    528.577    515.164    516.207    515.164
 79.270    539.000    530.573      8.427    515.154    529.535    515.154    516.189    515.154
 79.370    509.223    531.787    -22.563    515.143    530.752    515.143    516.175    515.143
 79.470    551.956    533.292     18.664    515.130    532.254    515.130    516.164    515.130
 79.570    514.000    535.124    -21.124    515.117    534.079    515.117    516.158    515.117
 79.670    568.000    537.342     30.658    515.102    536.283    515.102    516.157    515.102
 79.770    522.000    540.041    -18.041    515.086    538.961    515.086    516.161    515.086
 79.870    573.134    543.372     29.762    515.069    542.264    515.069    516.171    515.069
 79.970    558.000    547.569     10.431    515.050    546.428    515.050    516.186    515.050
 80.070    547.000    552.967     -5.967    515.031    551.788    515.031    516.206    515.031
 80.170    573.000    560.000     13.000    515.010    558.778    515.010    516.228    515.010
 80.270    604.735    569.148     35.587    514.988    567.883    514.988    516.251    514.988
 80.370    583.369    580.850      2.519    514.965    579.544    514.965    516.272    514.965
 80.470    551.000    595.382    -44.382    514.940    594.042    514.940    516.284    514.940
 80.570    577.000    612.755    -35.755    514.914    611.393    514.914    516.285    514.914
 80.670    590.601    632.627    -42.026    514.888    631.259    514.888    516.268    514.888
 80.770    695.000    654.261     40.739    514.860    652.906    514.860    516.232    514.860
 80.870    681.106    676.541      4.564    514.830    675.220    514.830    516.176    514.830
 80.970    709.000    698.096     10.904    514.800    696.824    514.800    516.103    514.800
 81.070    662.000    717.493    -55.493    514.768    716.282    514.768    516.017    514.768
 81.170    717.000    733.430    -16.430    514.735    732.286    514.735    515.924    514.735
 81.270    734.000    744.856    -10.856    514.701    743.781    514.701    515.827    514.701
 81.370    680.000    751.053    -71.053    514.665    750.044    514.665    515.730    514.665
 81.470    778.000    751.720     26.280    514.629    750.774    514.629    515.636    514.629
 81.570    740.000    746.992     -6.992    514.591    746.102    514.591    515.547    514.591
 81.670    702.175    737.383    -35.208    514.552    736.540    514.552    515.462    514.552
 81.770    680.345    723.752    -43.406    514.511    722.948    514.511    515.382    514.511
 81.870    680.703    707.266    -26.563    514.470    706.495    514.470    515.307    514.470
 81.970    685.586    689.240     -3.653    514.427    688.494    514.427    515.237    514.427
 82.070    696.862    670.864     25.998    514.383    670.138    514.383    515.171    514.383
 82.170    637.000    652.994    -15.994    514.337    652.282    514.337    515.107    514.337
 82.270    675.000    636.098     38.902    514.290    635.397    514.290    515.046    514.290
 82.370    637.000    620.374     16.626    514.242    619.679    514.242    514.987    514.242
 82.470    580.616    605.915    -25.299    514.193    605.225    514.193    514.928    514.193
 82.570    572.000    592.847    -20.847    514.143    592.159    514.143    514.870    514.143
 82.670    597.606    581.341     16.265    514.091    580.653    514.091    514.812    514.091
 82.770    544.000    571.583    -27.583    514.038    570.893    514.038    514.753    514.038
 82.870    507.000    563.731    -56.731    513.984    563.039    513.984    514.695    513.984
 82.970    523.000    557.903    -34.903    513.928    557.208    513.928    514.635    513.928
 83.070    536.000    554.160    -18.160    513.872    553.461    513.872    514.575    513.872
 83.170    521.000    552.492    -31.492    513.813    551.788    513.813    514.514    513.813
 83.270    561.000    552.796      8.204    513.754    552.087    513.754    514.452    513.754
 83.370    547.000    554.861     -7.861    513.694    554.146    513.694    514.390    513.694
 83.470    577.732    558.353     19.380    513.632    557.633    513.632    514.326    513.632
 83.570    552.336    562.819    -10.483    513.568    562.094    513.568    514.262    513.568
 83.670    535.000    567.698    -32.698    513.504    566.968    513.504    514.196    513.504
 83.770    591.933    572.345     19.588    513.438    571.611    513.438    514.130    513.438
 83.870    549.802    576.086    -26.283    513.371    575.349    513.371    514.062    513.371
 83.970    564.000    578.301    -14.301    513.303    577.564    513.303    513.994    513.303
 84.070    534.717    578.557    -43.840    513.233    577.821    513.233    513.924    513.233
 84.170    568.000    576.723     -8.723    513.163    575.989    513.163    513.854    513.163
 84.270    528.155    573.002    -44.847    513.090    572.271    513.090    513.782    513.090
 84.370    526.989    567.846    -40.857    513.017    567.119    513.017    513.710    513.017
 84.470    565.155    561.820      3.335    512.942    561.097    512.942    513.636    512.942
 84.570    557.000    555.477      1.523    512.866    554.758    512.866    513.562    512.866
 84.670    542.000    549.290     -7.290    512.789    548.574    512.789    513.486    512.789
 84.770    536.538    543.616     -7.078    512.710    542.902    512.710    513.409    512.710
 84.870    528.387    538.685    -10.298    512.631    537.972    512.631    513.332    512.631
 84.970    519.763    534.608    -14.846    512.550    533.896    512.550    513.253    512.550
 85.070    532.000    531.396      0.604    512.467    530.683    512.467    513.173    512.467
 85.170    515.000    528.986    -13.986    512.383    528.271    512.383    513.092    512.383
 85.270    523.955    527.276     -3.321    512.298    526.559    512.298    513.011    512.298
 85.370    543.000    526.150     16.850    512.212    525.430    512.212    512.928    512.212
 85.470    522.000    525.504     -3.504    512.125    524.780    512.125    512.844    512.125
 85.570    550.947    525.258     25.689    512.036    524.530    512.036    512.759    512.036
 85.670    525.000    525.368     -0.368    511.946    524.635    511.946    512.673    511.946
 85.770    528.180    525.830      2.350    511.854    525.091    511.854    512.586    511.854
 85.870    541.000    526.685     14.315    511.762    525.940    511.762    512.499    511.762
 85.970    531.000    528.014      2.986    511.668    527.263    511.668    512.410    511.668
 86.070    573.462    529.944     43.518    511.573    529.184    511.573    512.320    511.573
 86.170    540.000    532.630      7.370    511.476    531.861    511.476    512.229    511.476
 86.270    526.000    536.253    -10.253    511.378    535.473    511.378    512.137    511.378
 86.370    542.000    540.994      1.006    511.279    540.202    511.279    512.045    511.279
 86.470    543.745    547.009     -3.264    511.179    546.202    511.179    511.951    511.179
 86.570    563.000    554.390      8.610    511.078    553.567    511.078    511.857    511.078
 86.670    596.000    563.132     32.868    510.975    562.291    510.975    511.761    510.975
 86.770    568.000    573.089     -5.089    510.871    572.229    510.871    511.665    510.871
 86.870    558.000    583.948    -25.948    510.765    583.068    510.765    511.568    510.765
 86.970    626.812    595.212     31.600    510.659    594.312    510.659    511.470    510.659
 87.070    632.000    606.207     25.793    510.551    605.287    510.551    511.371    510.551
 87.170    621.000    616.107      4.893    510.442    615.169    510.442    511.271    510.442
 87.270    674.599    624.015     50.584    510.331    623.062    510.331    511.171    510.331
 87.370    633.000    629.100      3.900    510.220    628.134    510.220    511.070    510.220
 87.470    667.000    630.788     36.212    510.107    629.814    510.107    510.968    510.107
 87.570    652.237    628.936     23.301    509.992    627.957    509.992    510.865    509.992
 87.670    615.000    623.862     -8.862    509.877    622.882    509.877    510.762    509.877
 87.770    649.000    616.284     32.716    509.760    615.302    509.760    510.658    509.760
 87.870    649.000    607.106     41.894    509.643    606.124    509.643    510.553    509.643
 87.970    626.562    597.269     29.293    509.523    596.287    509.523    510.448    509.523
 88.070    604.000    587.668     16.332    509.403    586.684    509.403    510.342    509.403
 88.170    618.000    579.079     38.921    509.282    578.092    509.282    510.236    509.282
 88.270    576.000    572.117      3.883    509.159    571.124    509.159    510.130    509.159
 88.370    611.041    567.208     43.834    509.035    566.208    509.035    510.023    509.035
 88.470    623.000    564.583     58.417    508.909    563.574    508.909    509.916    508.909
 88.570    594.000    564.280     29.720    508.783    563.260    508.783    509.808    508.783
 88.670    592.250    566.153     26.098    508.655    565.120    508.655    509.701    508.655
 88.770    559.000    569.888    -10.888    508.526    568.842    508.526    509.593    508.526
 88.870    593.596    575.029     18.567    508.396    573.968    508.396    509.486    508.396
 88.970    582.000    580.992      1.008    508.265    579.915    508.265    509.378    508.265
 89.070    592.000    587.103      4.897    508.133    586.008    508.133    509.271    508.133
 89.170    598.000    592.633      5.367    507.999    591.518    507.999    509.164    507.999
 89.270    607.000    596.858     10.142    507.864    595.720    507.864    509.058    507.864
 89.370    600.000    599.160      0.840    507.728    597.996    507.728    508.952    507.728
 89.470    570.713    599.140    -28.428    507.591    597.947    507.591    508.847    507.591
 89.570    562.058    596.714    -34.657    507.452    595.487    507.452    508.743    507.452
 89.670    615.000    592.119     22.881    507.313    590.853    507.313    508.640    507.313
 89.770    622.597    585.830     36.767    507.172    584.521    507.172    508.538    507.172
 89.870    556.611    578.435    -21.824    507.030    577.079    507.030    508.438    507.030
 89.970    551.261    570.525    -19.264    506.887    569.117    506.887    508.340    506.887
 90.070    566.105    562.625      3.480    506.743    561.162    506.743    508.245    506.743
 90.170    562.000    555.160      6.840    506.597    553.637    506.597    508.152    506.597
 90.270    568.000    548.434     19.566    506.451    546.848    506.451    508.062    506.451
 90.370    516.000    542.635    -26.635    506.303    540.981    506.303    507.977    506.303
 90.470    506.000    537.842    -31.842    506.154    536.116    506.154    507.896    506.154
 90.570    533.000    534.046     -1.046    506.004    532.240    506.004    507.820    506.004
 90.670    552.000    531.174     20.826    505.853    529.283    505.853    507.753    505.853
 90.770    523.849    529.120     -5.271    505.701    527.132    505.701    507.694    505.701
 90.870    499.000    527.763    -28.763    505.548    525.668    505.548    507.647    505.548
 90.970    540.000    526.995     13.005    505.394    524.775    505.394    507.615    505.394
 91.070    529.000    526.728      2.272    505.238    524.363    505.238    507.603    505.238
 91.170    532.000    526.911      5.089    505.082    524.374    505.082    507.617    505.082
 91.270    482.000    527.532    -45.532    504.924    524.788    504.924    507.665    504.924
 91.370    547.000    528.626     18.374    504.765    525.629    504.765    507.759    504.765
 91.470    530.000    530.268     -0.268    504.605    526.959    504.605    507.910    504.605
 91.570    532.527    532.549     -0.022    504.445    528.852    504.445    508.136    504.445
 91.670    543.841    535.707      8.134    504.283    531.528    504.283    508.454    504.283
 91.770    507.000    539.941    -32.941    504.120    535.164    504.120    508.886    504.120
 91.870    546.000    545.470      0.530    503.956    539.958    503.956    509.455    503.956
 91.970    563.000    552.540     10.460    503.791    546.130    503.791    510.184    503.791
 92.070    520.000    561.387    -41.387    503.625    553.894    503.625    511.097    503.625
 92.170    545.133    572.216    -27.083    503.458    563.433    503.458    512.213    503.458
 92.270    577.000    585.153     -8.153    503.290    574.861    503.290    513.548    503.290
 92.370    582.000    600.234    -18.234    503.121    588.205    503.121    515.110    503.121
 92.470    594.000    617.368    -23.368    502.951    603.377    502.951    516.894    502.951
 92.570    632.935    636.319     -3.384    502.780    620.158    502.780    518.885    502.780
 92.670    703.000    656.689     46.311    502.608    638.184    502.608    521.051    502.608
 92.770    696.000    677.919     18.081    502.434    656.945    502.434    523.340    502.434
 92.870    754.000    699.306     54.694    502.261    675.809    502.261    525.683    502.261
 92.970    727.669    720.056      7.613    502.086    694.079    502.086    527.984    502.086
 93.070    831.000    739.388     91.612    501.910    711.090    501.910    530.126    501.910
 93.170    727.719    756.663    -28.944    501.733    726.344    501.733    531.971    501.733
 93.270    801.000    771.503     29.497    501.555    739.607    501.555    533.370    501.555
 93.370    763.000    783.819    -20.819    501.377    750.925    501.377    534.190    501.377
 93.470    851.000    793.778     57.222    501.197    760.563    501.197    534.334    501.197
 93.570    838.042    801.712     36.330    501.016    768.882    501.016    533.770    501.016
 93.670    802.327    808.036     -5.709    500.835    776.256    500.835    532.541    500.835
 93.770    844.455    813.250     31.205    500.653    783.083    500.653    530.749    500.653
 93.870    839.000    817.946     21.054    500.470    789.814    500.470    528.533    500.470
 93.970    878.170    822.793     55.377    500.286    796.972    500.286    526.041    500.286
 94.070    860.173    828.444     31.730    500.101    805.073    500.101    523.407    500.101
 94.170    846.000    835.378     10.622    499.915    814.482    499.915    520.749    499.915
 94.270    816.000    843.731    -27.731    499.729    825.244    499.729    518.155    499.729
 94.370    895.144    853.187     41.958    499.541    836.975    499.541    515.695    499.541
 94.470    914.000    862.954     51.046    499.353    848.836    499.353    513.416    499.353
 94.570    938.000    871.823     66.177    499.164    859.589    499.164    511.347    499.164
 94.670    945.000    878.303     66.697    498.974    867.728    498.974    509.504    498.974
 94.770    829.297    880.837    -51.540    498.784    871.695    498.784    507.888    498.784
 94.870    903.610    878.102     25.508    498.592    870.174    498.592    506.490    498.592
 94.970    924.000    869.317     54.683    498.400    862.401    498.400    505.295    498.400
 95.070    911.938    854.464     57.474    498.208    848.377    498.208    504.282    498.208
 95.170    811.718    834.304    -22.586    498.014    828.885    498.014    503.427    498.014
 95.270    854.000    810.209     43.791    497.820    805.321    497.820    502.708    497.820
 95.370    775.000    783.912     -8.912    497.625    779.439    497.625    502.101    497.625
 95.470    736.526    757.284    -20.758    497.429    753.133    497.429    501.586    497.429
 95.570    799.000    732.181     66.819    497.232    728.275    497.232    501.145    497.232
 95.670    722.000    710.343     11.657    497.035    706.622    497.035    500.762    497.035
 95.770    653.838    693.346    -39.508    496.838    689.760    496.838    500.425    496.838
 95.870    698.000    682.557     15.443    496.639    679.069    496.639    500.124    496.639
 95.970    696.000    679.195     16.805    496.440    675.774    496.440    499.851    496.440
 96.070    720.000    684.244     35.756    496.240    680.865    496.240    499.601    496.240
 96.170    684.875    698.494    -13.619    496.040    695.137    496.040    499.369    496.040
 96.270    733.000    722.525     10.475    495.839    719.174    495.839    499.153    495.839
 96.370    696.000    756.661    -60.661    495.637    753.302    495.637    498.949    495.637
 96.470    827.519    800.896     26.623    495.435    797.517    495.435    498.755    495.435
 96.570    902.960    854.806     48.154    495.233    851.395    495.233    498.572    495.233
 96.670    945.000    917.444     27.556    495.029    913.990    495.029    498.400    495.029
 96.770   1004.000    987.258     16.742    494.826    983.752    494.826    498.238    494.826
 96.870   1124.688   1062.030     62.658    494.621   1058.465    494.621    498.085    494.621
 96.970   1164.000   1138.866     25.134    494.416   1135.235    494.416    497.942    494.416
 97.070   1270.273   1214.232     56.042    494.211   1210.528    494.211    497.808    494.211
 97.170   1215.180   1284.070    -68.890    494.005   1280.287    494.005    497.684    494.005
 97.270   1404.028   1344.040     59.988    493.799   1340.174    493.799    497.571    493.799
 97.370   1310.000   1389.933    -79.933    493.592   1385.975    493.592    497.469    493.592
 97.470   1416.000   1418.257     -2.257    493.385   1414.199    493.385    497.379    493.385
 97.570   1436.315   1426.878      9.436    493.177   1422.711    493.177    497.302    493.177
 97.670   1456.562   1415.442     41.120    492.969   1411.150    492.969    497.239    492.969
 97.770   1365.000   1385.398    -20.398    492.761   1380.965    492.761    497.193    492.761
 97.870   1396.802   1339.622     57.180    492.552   1335.026    492.552    497.166    492.552
 97.970   1294.499   1281.849     12.650    492.342   1277.064    492.342    497.160    492.342
 98.070   1258.000   1216.158     41.842    492.133   1211.154    492.133    497.180    492.133
 98.170   1104.109   1146.596    -42.487    491.923   1141.336    491.923    497.232    491.923
 98.270   1113.481   1076.945     36.536    491.712   1071.385    491.712    497.324    491.712
 98.370   1000.089   1010.569    -10.480    491.502   1004.658    491.502    497.464    491.502
 98.470    960.400    950.346     10.054    491.291    944.017    491.291    497.667    491.291
 98.570    898.090    898.639     -0.549    491.080    891.809    491.080    497.950    491.080
 98.670    848.562    857.318     -8.755    490.868    849.885    490.868    498.334    490.868
 98.770    846.000    827.809     18.191    490.657    819.642    490.657    498.847    490.657
 98.870    822.000    811.162     10.838    490.445    802.096    490.445    499.525    490.445
 98.970    764.276    808.123    -43.847    490.232    797.952    490.232    500.407    490.232
 99.070    799.000    819.192    -20.192    490.020    807.662    490.020    501.545    490.020
 99.170    897.139    844.658     52.481    489.807    831.458    489.807    502.994    489.807
 99.270    869.000    884.591    -15.591    489.595    869.347    489.595    504.818    489.595
 99.370    957.301    938.800     18.501    489.382    921.071    489.382    507.086    489.382
 99.470   1051.000   1006.756     44.244    489.169    986.030    489.169    509.866    489.169
 99.570   1030.931   1087.546    -56.615    488.956   1063.246    488.956    513.227    488.956
 99.670   1215.000   1179.728     35.272    488.742   1151.212    488.742    517.232    488.742
 99.770   1313.262   1281.258     32.004    488.529   1247.836    488.529    521.931    488.529
 99.870   1341.000   1389.445    -48.445    488.316   1350.397    488.316    527.354    488.316
 99.970   1463.000   1500.946    -37.946    488.102   1455.544    488.102    533.509    488.102
100.070   1559.676   1611.832    -52.156    487.889   1559.373    487.889    540.370    487.889
100.170   1754.000   1717.793     36.207    487.675   1657.636    487.675    547.877    487.675
100.270   1901.000   1814.464     86.536    487.462   1746.072    487.462    555.923    487.462
100.370   1960.000   1897.818     62.182    487.248   1820.806    487.248    564.355    487.248
100.470   2024.000   1964.506     59.494    487.035   1878.692    487.035    572.969    487.035
100.570   2099.025   2012.006     87.018    486.821   1917.471    486.821    581.502    486.821
100.670   2007.000   2038.609    -31.609    486.608   1935.747    486.608    589.636    486.608
100.770   2074.000   2043.358     30.642    486.395   1932.934    486.395    597.002    486.395
100.870   2046.571   2026.132     20.440    486.182   1909.311    486.182    603.200    486.182
100.970   2024.513   1987.871     36.643    485.969   1866.215    485.969    607.830    485.969
101.070   1908.356   1930.795    -22.440    485.756   1806.212    485.756    610.549    485.756
101.170   1886.000   1858.408     27.592    485.543   1733.030    485.543    611.128    485.543
101.270   1776.000   1775.181      0.819    485.331   1651.207    485.331    609.505    485.331
101.370   1635.000   1686.029    -51.029    485.119   1565.544    485.119    605.793    485.119
101.470   1506.000   1595.747    -89.747    484.907   1480.571    484.907    600.259    484.907
101.570   1515.000   1508.563      6.437    484.695   1400.150    484.695    593.269    484.695
101.670   1418.000   1427.846     -9.846    484.484   1327.247    484.484    585.227    484.484
101.770   1332.000   1355.967    -23.967    484.273   1263.839    484.273    576.530    484.273
101.870   1225.000   1294.262    -69.262    484.062   1210.905    484.062    567.533    484.062
101.970   1199.000   1243.063    -44.063    483.851   1168.480    483.851    558.538    483.851
102.070   1187.000   1201.795    -14.795    483.641   1135.739    483.641    549.790    483.641
102.170   1164.000   1169.096     -5.096    483.431   1111.135    483.431    541.479    483.431
102.270   1129.000   1142.993    -13.993    483.222   1092.552    483.222    533.743    483.222
102.370   1094.000   1121.109    -27.109    483.013   1077.526    483.013    526.675    483.013
102.470   1118.000   1100.933     17.067    482.805   1063.490    482.805    520.325    482.805
102.570   1105.000   1080.119     24.881    482.596   1048.085    482.596    514.709    482.596
102.670   1081.000   1056.792     24.208    482.389   1029.450    482.389    509.811    482.389
102.770   1029.000   1029.777     -0.777    482.182   1006.446    482.182    505.594    482.182
102.870    991.000    998.672     -7.672    481.975    978.724    481.975    502.005    481.975
102.970    967.000    963.765      3.235    481.769    946.637    481.769    498.978    481.769
103.070    908.057    925.843    -17.787    481.564    911.041    481.564    496.444    481.564
103.170    899.000    885.975     13.025    481.359    873.074    481.359    494.334    481.359
103.270    801.000    845.331    -44.331    481.155    833.975    481.155    492.580    481.155
103.370    822.000    805.054     16.946    480.951    794.948    480.951    491.122    480.951
103.470    804.000    766.178     37.822    480.749    757.080    480.749    489.904    480.749
103.570    702.430    729.565    -27.135    480.546    721.284    480.546    488.879    480.546
103.670    713.000    695.884     17.116    480.345    688.265    480.345    488.008    480.345
103.770    708.000    665.586     42.414    480.144    658.509    480.144    487.259    480.144
103.870    673.015    638.915     34.100    479.944    632.286    479.944    486.604    479.944
103.970    586.134    615.920    -29.786    479.745    609.667    479.745    486.025    479.745
104.070    598.000    596.492      1.508    479.547    590.555    479.547    485.504    479.547
104.170    611.000    580.393     30.607    479.349    574.728    479.349    485.031    479.349
104.270    591.000    567.303     23.697    479.152    561.873    479.152    484.595    479.152
104.370    545.426    556.859    -11.433    478.957    551.636    478.957    484.189    478.957
104.470    519.000    548.687    -29.687    478.762    543.646    478.762    483.809    478.762
104.570    569.000    542.423     26.577    478.568    537.545    478.568    483.450    478.568
104.670    557.000    537.734     19.266    478.375    533.001    478.375    483.110    478.375
104.770    502.000    534.354    -32.354    478.183    529.751    478.183    482.787    478.183
104.870    498.889    532.053    -33.163    477.992    527.566    477.992    482.477    477.992
104.970    513.177    530.657    -17.480    477.802    526.275    477.802    482.181    477.802
105.070    542.000    530.049     11.951    477.613    525.761    477.613    481.897    477.613
105.170    571.158    530.162     40.996    477.425    525.958    477.425    481.624    477.425
105.270    506.278    530.972    -24.694    477.238    526.843    477.238    481.361    477.238
105.370    503.000    532.498    -29.498    477.052    528.435    477.052    481.107    477.052
105.470    523.000    534.791    -11.791    476.868    530.786    476.868    480.863    476.868
105.570    504.000    537.929    -33.929    476.685    533.974    476.685    480.627    476.685
105.670    581.250    542.005     39.245    476.503    538.093    476.503    480.400    476.503
105.770    549.000    547.117      1.883    476.322    543.241    476.322    480.180    476.322
105.870    598.142    553.352     44.790    476.142    549.506    476.142    479.968    476.142
105.970    585.380    560.773     24.606    475.964    556.952    475.964    479.762    475.964
106.070    561.000    569.406     -8.406    475.787    565.602    475.787    479.564    475.787
106.170    603.000    579.223     23.777    475.611    575.433    475.611    479.373    475.611
106.270    601.917    590.140     11.777    475.437    586.357    475.437    479.188    475.437
106.370    601.000    602.004     -1.004    475.264    598.223    475.264    479.009    475.264
106.470    607.000    614.595     -7.595    475.093    610.812    475.093    478.837    475.093
106.570    667.602    627.627     39.975    474.923    623.837    474.923    478.671    474.923
106.670    688.370    640.754     47.616    474.755    636.954    474.755    478.511    474.755
106.770    690.000    653.583     36.417    474.588    649.767    474.588    478.357    474.588
106.870    657.617    665.687     -8.070    474.422    661.853    474.422    478.209    474.422
106.970    602.000    676.635    -74.635    474.259    672.779    474.259    478.067    474.259
107.070    667.000    686.029    -19.029    474.096    682.147    474.096    477.932    474.096
107.170    649.000    693.555    -44.555    473.936    689.644    473.936    477.802    473.936
107.270    707.000    699.030      7.970    473.777    695.086    473.777    477.679    473.777
107.370    650.000    702.444    -52.444    473.620    698.464    473.620    477.562    473.620
107.470    646.000    703.969    -57.969    473.464    699.948    473.464    477.451    473.464
107.570    715.000    703.932     11.068    473.311    699.866    473.311    477.347    473.311
107.670    694.000    702.758     -8.758    473.159    698.642    473.159    477.249    473.159
107.770    675.000    700.907    -25.907    473.009    696.736    473.009    477.158    473.009
107.870    678.000    698.812    -20.812    472.861    694.581    472.861    477.074    472.861
107.970    697.000    696.839      0.161    472.714    692.544    472.714    476.997    472.714
108.070    738.947    695.255     43.691    472.570    690.889    472.570    476.927    472.570
108.170    695.000    694.210      0.790    472.427    689.768    472.427    476.865    472.427
108.270    701.000    693.730      7.270    472.287    689.206    472.287    476.810    472.287
108.370    708.146    693.717     14.430    472.148    689.104    472.148    476.763    472.148
108.470    709.000    693.956     15.044    472.012    689.248    472.012    476.725    472.012
108.570    692.156    694.136     -1.981    471.877    689.327    471.877    476.695    471.877
108.670    688.390    693.879     -5.490    471.745    688.962    471.745    476.674    471.745
108.770    689.000    692.780     -3.780    471.614    687.751    471.614    476.658    471.614
108.870    674.000    690.475    -16.475    471.486    685.322    471.486    476.656    471.486
108.970    692.000    686.677      5.323    471.361    681.392    471.361    476.665    471.361
109.070    685.000    681.234      3.766    471.237    675.807    471.237    476.684    471.237
109.170    633.000    674.141    -41.141    471.115    668.564    471.115    476.715    471.115
109.270    654.000    665.538    -11.538    470.996    659.799    470.996    476.758    470.996
109.370    662.396    655.673      6.723    470.880    649.761    470.880    476.813    470.880
109.470    621.000    644.859    -23.859    470.765    638.764    470.765    476.882    470.765
109.570    618.000    633.441    -15.441    470.653    627.150    470.653    476.964    470.653
109.670    625.000    621.765      3.235    470.544    615.264    470.544    477.063    470.544
109.770    633.000    610.152     22.848    470.436    603.430    470.436    477.176    470.436
109.870    579.230    598.887    -19.657    470.332    591.934    470.332    477.300    470.332
109.970    618.000    588.232     29.768    470.230    581.025    470.230    477.451    470.230
110.070    575.000    578.376     -3.376    470.130    570.895    470.130    477.623    470.130
110.170    530.426    569.444    -39.018    470.033    561.669    470.033    477.818    470.033
110.270    575.955    561.565     14.391    469.939    553.472    469.939    478.039    469.939
110.370    566.981    554.807     12.174    469.847    546.371    469.847    478.289    469.847
110.470    513.612    549.159    -35.548    469.758    540.350    469.758    478.571    469.758
110.570    581.245    544.595     36.650    469.672    535.377    469.672    478.892    469.672
110.670    551.019    541.060      9.959    469.588    531.393    469.588    479.256    469.588
110.770    553.000    538.483     14.517    469.508    528.318    469.508    479.673    469.508
110.870    579.078    536.781     42.297    469.430    526.058    469.430    480.150    469.430
110.970    506.962    535.866    -28.905    469.355    524.517    469.355    480.702    469.355
111.070    536.000    535.655      0.345    469.283    523.593    469.283    481.341    469.283
111.170    566.000    536.070     29.930    469.214    523.191    469.214    482.087    469.214
111.270    522.670    537.043    -14.374    469.148    523.223    469.148    482.962    469.148
111.370    523.154    538.524    -15.369    469.085    523.609    469.085    483.993    469.085
111.470    512.010    540.473    -28.463    469.025    524.279    469.025    485.211    469.025
111.570    543.359    542.870      0.489    468.968    525.175    468.968    486.655    468.968
111.670    558.000    545.710     12.290    468.915    526.247    468.915    488.368    468.915
111.770    523.834    549.006    -25.172    468.864    527.458    468.864    490.402    468.864
111.870    570.000    552.789     17.211    468.817    528.783    468.817    492.812    468.817
111.970    552.000    557.107     -5.107    468.773    530.206    468.773    495.663    468.773
112.070    547.000    562.025    -15.025    468.732    531.722    468.732    499.024    468.732
112.170    533.000    567.622    -34.622    468.695    533.339    468.695    502.966    468.695
112.270    532.534    573.990    -41.456    468.660    535.071    468.660    507.568    468.660
112.370    625.937    581.230     44.708    468.630    536.942    468.630    512.906    468.630
112.470    631.772    589.450     42.322    468.603    538.984    468.603    519.056    468.603
112.570    573.842    598.760    -24.918    468.579    541.241    468.579    526.086    468.579
112.670    635.994    609.275     26.719    468.559    543.762    468.559    534.059    468.559
112.770    636.960    621.107     15.853    468.542    546.614    468.542    543.022    468.542
112.870    663.751    634.372     29.379    468.529    549.880    468.529    553.006    468.529
112.970    686.963    649.187     37.777    468.520    553.670    468.520    564.021    468.520
113.070    675.943    665.676     10.266    468.514    558.124    468.514    576.050    468.514
113.170    649.016    683.980    -34.964    468.512    563.429    468.512    589.045    468.512
113.270    741.000    704.260     36.740    468.514    569.828    468.514    602.926    468.514
113.370    772.000    726.716     45.284    468.520    577.639    468.520    617.574    468.520
113.470    760.000    751.602      8.398    468.529    587.275    468.529    632.831    468.529
113.570    805.000    779.247     25.753    468.543    599.266    468.543    648.494    468.543
113.670    769.000    810.075    -41.075    468.560    614.284    468.560    664.317    468.560
113.770    806.000    844.635    -38.635    468.581    633.173    468.581    680.003    468.581
113.870    869.000    883.623    -14.623    468.606    656.969    468.606    695.212    468.606
113.970    910.000    927.913    -17.913    468.636    686.931    468.636    709.560    468.636
114.070    994.000    978.587     15.413    468.669    724.559    468.669    722.628    468.669
114.170   1048.185   1036.959     11.226    468.707    771.601    468.707    733.980    468.707
114.270   1133.776   1104.601     29.175    468.749    830.061    468.749    743.186    468.749
114.370   1200.000   1183.364     16.636    468.795    902.171    468.795    749.863    468.795
114.470   1212.938   1275.375    -62.437    468.845    990.362    468.845    753.708    468.845
114.570   1373.000   1383.016    -10.016    468.900   1097.198    468.900    754.537    468.900
114.670   1506.799   1508.857     -2.058    468.959   1225.287    468.959    752.312    468.959
114.770   1693.000   1655.548     37.452    469.022   1377.169    469.022    747.145    469.022
114.870   1809.303   1825.658    -16.355    469.090   1555.165    469.090    739.282    469.090
114.970   2094.595   2021.478     73.116    469.162   1761.221    469.162    729.070    469.162
115.070   2429.000   2244.801    184.199    469.239   1996.716    469.239    716.922    469.239
115.170   2583.000   2496.691     86.309    469.321   2262.281    469.321    703.273    469.321
115.270   2886.000   2777.270    108.730    469.407   2557.608    469.407    688.556    469.407
115.370   3144.998   3085.529     59.470    469.497   2881.286    469.497    673.173    469.497
115.470   3360.000   3419.174    -59.174    469.593   3230.660    469.593    657.488    469.593
115.570   3772.000   3774.533     -2.533    469.693   3601.740    469.693    641.819    469.693
115.670   4180.000   4146.502     33.498    469.798   3989.154    469.798    626.439    469.798
115.770   4467.000   4528.569    -61.569    469.908   4386.167    469.908    611.571    469.908
115.870   4761.000   4912.890   -151.890    470.023   4784.757    470.023    597.398    470.023
115.970   5426.914   5290.437    136.477    470.143   5175.760    470.143    584.056    470.143
116.070   5664.000   5651.222     12.778    470.267   5549.090    470.267    571.646    470.267
116.170   5880.775   5984.598   -103.823    470.397   5894.038    470.397    560.231    470.397
116.270   6386.885   6279.675    107.210    470.532   6199.681    470.532    549.844    470.532
116.370   6745.000   6525.859    219.141    470.672   6455.426    470.672    540.487    470.672
116.470   6818.496   6713.535    104.962    470.817   6651.672    470.817    532.140    470.817
116.570   6680.066   6834.831   -154.765    470.968   6780.589    470.968    524.763    470.968
116.670   6850.000   6884.387    -34.387    471.123   6836.865    471.123    518.301    471.123
116.770   6847.000   6859.935    -12.935    471.284   6818.295    471.284    512.690    471.284
116.870   6791.000   6762.562     28.438    471.451   6726.033    471.451    507.854    471.451
116.970   6549.000   6596.559    -47.559    471.622   6564.443    471.622    503.719    471.622
117.070   6200.000   6368.914   -168.914    471.800   6340.584    471.800    500.206    471.800
117.170   6092.000   6088.582      3.418    471.982   6063.484    471.982    497.242    471.982
117.270   5746.000   5765.723    -19.723    472.171   5743.372    472.171    494.755    472.171
117.370   5276.000   5411.030   -135.030    472.365   5391.005    472.365    492.678    472.365
117.470   4963.460   5035.062    -71.602    472.564   5017.004    472.564    490.952    472.564
117.570   4748.127   4647.879    100.248    472.770   4631.481    472.770    489.523    472.770
117.670   4244.000   4258.698    -14.698    472.981   4243.704    472.981    488.343    472.981
117.770   4080.000   3875.659    204.341    473.198   3861.852    473.198    487.372    473.198
117.870   3429.204   3505.665    -76.461    473.420   3492.868    473.420    486.576    473.420
117.970   3223.000   3154.304     68.696    473.649   3142.369    473.649    485.924    473.649
118.070   2772.452   2825.822    -53.370    473.884   2814.629    473.884    485.392    473.884
118.170   2503.000   2523.173    -20.173    474.124   2512.623    474.124    484.960    474.124
118.270   2234.000   2248.107    -14.107    474.371   2238.119    474.371    484.612    474.371
118.370   1983.000   2001.300    -18.300    474.624   1991.810    474.624    484.335    474.624
118.470   1821.037   1782.513     38.524    474.883   1773.466    474.883    484.117    474.883
118.570   1553.459   1590.756    -37.297    475.148   1582.109    475.148    483.951    475.148
118.670   1391.000   1424.460    -33.460    475.420   1416.178    475.420    483.830    475.420
118.770   1270.000   1281.650    -11.650    475.698   1273.702    475.698    483.748    475.698
118.870   1122.000   1160.094    -38.094    475.982   1152.455    475.982    483.700    475.982
118.970   1034.000   1057.446    -23.446    476.273   1050.094    476.273    483.684    476.273
119.070    946.000    971.357    -25.357    476.570    964.273    476.570    483.698    476.570
119.170    893.000    899.570     -6.570    476.873    892.737    476.873    483.737    476.873
119.270    799.000    839.982    -40.982    477.184    833.385    477.184    483.803    477.184
119.370    771.000    790.690    -19.690    477.501    784.313    477.501    483.891    477.501
119.470    759.000    750.008      8.992    477.824    743.837    477.824    484.003    477.824
119.570    710.163    716.475     -6.312    478.155    710.497    478.155    484.137    478.155
119.670    679.000    688.846     -9.846    478.492    683.048    478.492    484.292    478.492
119.770    678.000    666.081     11.919    478.836    660.449    478.836    484.469    478.836
119.870    644.000    647.319     -3.319    479.187    641.840    479.187    484.666    479.187
119.970    658.000    631.857     26.143    479.545    626.517    479.545    484.884    479.545
120.070    570.891    619.129    -48.237    479.910    613.915    479.910    485.124    479.910
120.170    651.012    608.680     42.332    480.282    603.578    480.282    485.384    480.282
120.270    579.760    600.150    -20.390    480.661    595.145    480.661    485.666    480.661
120.370    600.000    593.254      6.746    481.048    588.333    481.048    485.970    481.048
120.470    556.892    587.769    -30.877    481.441    582.915    481.441    486.296    481.441
120.570    619.496    583.518     35.977    481.842    578.718    481.842    486.645    481.842
120.670    614.000    580.366     33.634    482.251    575.601    482.251    487.018    482.251
120.770    562.553    578.203    -15.650    482.666    573.458    482.666    487.414    482.666
120.870    589.247    576.944     12.303    483.089    572.202    483.089    487.835    483.089
120.970    600.000    576.520     23.480    483.520    571.764    483.520    488.281    483.520
121.070    604.000    576.872     27.128    483.959    572.084    483.959    488.753    483.959
121.170    555.000    577.948    -22.948    484.405    573.110    484.405    489.250    484.405
121.270    554.000    579.701    -25.701    484.858    574.795    484.858    489.773    484.858
121.370    557.000    582.080    -25.080    485.320    577.088    485.320    490.322    485.320
121.470    627.471    585.033     42.438    485.789    579.938    485.789    490.897    485.789
121.570    562.000    588.503    -26.503    486.266    583.288    486.266    491.496    486.266
121.670    546.088    592.425    -46.337    486.751    587.074    486.751    492.119    486.751
121.770    567.704    596.727    -29.022    487.245    591.226    487.245    492.765    487.245
121.870    573.000    601.327    -28.327    487.746    595.662    487.746    493.432    487.746
121.970    608.000    606.136      1.864    488.255    600.297    488.255    494.118    488.255
122.070    627.000    611.055     15.945    488.772    605.033    488.772    494.822    488.772
122.170    621.000    615.978      5.022    489.298    609.767    489.298    495.539    489.298
122.270    619.000    620.792     -1.792    489.832    614.390    489.832    496.267    489.832
122.370    660.000    625.383     34.617    490.375    618.791    490.375    497.003    490.375
122.470    608.108    629.635    -21.527    490.925    622.857    490.925    497.741    490.925
122.570    630.000    633.435     -3.435    491.485    626.481    491.485    498.479    491.485
122.670    590.638    636.682    -46.043    492.053    629.566    492.053    499.210    492.053
122.770    641.000    639.288      1.712    492.629    632.030    492.629    499.930    492.629
122.870    728.000    641.187     86.813    493.214    633.812    493.214    500.635    493.214
122.970    595.512    642.340    -46.827    493.808    634.875    493.808    501.318    493.808
123.070    601.942    642.732    -40.790    494.411    635.212    494.411    501.977    494.411
123.170    638.042    642.379     -4.337    495.022    634.840    495.022    502.607    495.022
123.270    652.000    641.320     10.680    495.643    633.801    495.643    503.207    495.643
123.370    601.139    639.614    -38.474    496.272    632.155    496.272    503.775    496.272
123.470    665.000    637.334     27.666    496.910    629.974    496.910    504.313    496.910
123.570    621.000    634.563    -13.563    497.558    627.340    497.558    504.821    497.558
123.670    600.000    631.390    -31.390    498.215    624.337    498.215    505.305    498.215
123.770    602.000    627.901    -25.901    498.881    621.050    498.881    505.767    498.881
123.870    643.000    624.183     18.817    499.556    617.559    499.556    506.212    499.556
123.970    636.344    620.315     16.029    500.240    613.939    500.240    506.646    500.240
124.070    602.447    616.368    -13.922    500.934    610.257    500.934    507.072    500.934
124.170    604.000    612.406     -8.406    501.638    606.570    501.638    507.497    501.638
124.270    625.000    608.478     16.522    502.351    602.926    502.351    507.924    502.351
124.370    640.000    604.626     35.374    503.074    599.360    503.074    508.358    503.074
124.470    585.000    600.878    -15.878    503.806    595.898    503.806    508.802    503.806
124.570    601.000    597.254      3.746    504.548    592.555    504.548    509.260    504.548
124.670    545.277    593.761    -48.484    505.300    589.339    505.300    509.734    505.300
124.770    605.000    590.405     14.595    506.062    586.249    506.062    510.226    506.062
124.870    576.078    587.180    -11.102    506.834    583.282    506.834    510.740    506.834
124.970    610.000    584.083     25.917    507.616    580.429    507.616    511.275    507.616
