neutron_powder_diffraction_0041
R_wp: 3.789
Temperature (K): 597.424
Counts: 83871.00
Wavelength (Ã…): 2.52098
COMMENTS
Test file for demonstrating the .xyy file format in Reel1.0
END OF HEADER
   tth       Y_obs     Y_calc      Y_res    Background    Phase_1_Nuc    Phase_1_Mag    Phase_2_Nuc    Phase_2_Mag
  9.970    730.000    690.062     39.938    688.532    689.577    689.017    688.532    688.532
 10.070    668.595    689.338    -20.743    687.718    688.847    688.208    687.718    687.718
 10.170    690.000    688.627      1.373    686.906    688.132    687.401    686.906    686.906
 10.270    697.616    687.933      9.683    686.097    687.432    686.597    686.097    686.097
 10.370    693.892    687.258      6.634    685.290    686.752    685.796    685.290    685.290
 10.470    643.501    686.606    -43.105    684.485    686.094    684.996    684.485    684.485
 10.570    731.000    685.981     45.019    683.682    685.463    684.199    683.682    683.682
 10.670    655.633    685.390    -29.757    682.881    684.866    683.404    682.881    682.881
 10.770    739.000    684.840     54.160    682.083    684.310    682.611    682.083    682.083
 10.870    685.809    684.341      1.467    681.287    683.806    681.821    681.287    681.287
 10.970    685.721    683.910      1.811    680.493    683.368    681.034    680.493    680.493
 11.070    659.906    683.564    -23.659    679.702    683.016    680.248    679.702    679.702
 11.170    714.000    683.333     30.667    678.913    682.779    679.465    678.913    678.913
 11.270    656.000    683.259    -27.259    678.126    682.698    678.685    678.126    678.126
 11.370    711.000    683.411     27.589    677.341    682.843    677.906    677.341    677.341
 11.470    718.000    683.922     34.078    676.559    683.347    677.131    676.559    676.559
 11.570    681.000    685.082     -4.082    675.779    684.499    676.358    675.779    675.779
 11.670    699.159    687.541     11.617    675.002    686.950    675.587    675.002    675.002
 11.770    765.000    692.596     72.404    674.227    691.995    674.819    674.227    674.227
 11.870    736.966    702.325     34.641    673.454    701.711    674.053    673.454    673.454
 11.970    762.000    719.011     42.989    672.683    718.379    673.289    672.683    672.683
 12.070    730.371    743.370    -12.999    671.915    742.717    672.529    671.915    671.915
 12.170    816.000    771.478     44.522    671.150    770.802    671.770    671.150    671.150
 12.270    800.000    792.065      7.935    670.387    791.370    671.015    670.387    670.387
 12.370    826.000    792.014     33.986    669.626    791.311    670.261    669.626    669.626
 12.470    759.000    770.767    -11.767    668.867    770.067    669.511    668.867    668.867
 12.570    778.000    741.163     36.837    668.111    740.472    668.763    668.111    668.111
 12.670    747.893    714.912     32.981    667.358    714.227    668.017    667.358    667.358
 12.770    613.000    696.292    -83.292    666.607    695.609    667.274    666.607    666.607
 12.870    682.000    684.740     -2.740    665.858    684.054    666.534    665.858    665.858
 12.970    687.000    677.994      9.006    665.112    677.303    665.796    665.112    665.112
 13.070    648.000    673.940    -25.940    664.368    673.242    665.061    664.368    664.368
 13.170    673.000    671.232      1.768    663.627    670.527    664.329    663.627    663.627
 13.270    635.000    669.198    -34.198    662.888    668.484    663.599    662.888    662.888
 13.370    672.000    667.568      4.432    662.152    666.846    662.872    662.152    662.152
 13.470    616.630    666.245    -49.615    661.419    665.514    662.148    661.419    661.419
 13.570    632.000    664.979    -32.979    660.687    664.239    661.426    660.687    660.687
 13.670    668.000    663.819      4.181    659.959    663.069    660.707    659.959    659.959
 13.770    633.602    662.746    -29.144    659.233    661.987    659.991    659.233    659.233
 13.870    648.282    661.742    -13.460    658.509    660.972    659.278    658.509    658.509
 13.970    665.000    660.790      4.210    657.788    660.010    658.567    657.788    657.788
 14.070    635.000    659.881    -24.881    657.070    659.090    657.859    657.070    657.070
 14.170    676.000    659.016     16.984    656.354    658.215    657.154    656.354    656.354
 14.270    636.000    658.188    -22.188    655.640    657.376    656.452    655.640    655.640
 14.370    686.000    657.369     28.631    654.929    656.545    655.752    654.929    654.929
 14.470    680.000    656.565     23.435    654.221    655.730    655.056    654.221    654.221
 14.570    626.444    655.778    -29.334    653.516    654.932    654.362    653.516    653.516
 14.670    646.000    655.006     -9.006    652.813    654.148    653.671    652.813    652.813
 14.770    600.000    654.247    -54.247    652.112    653.376    652.982    652.112    652.112
 14.870    650.504    653.499     -2.996    651.414    652.616    652.297    651.414    651.414
 14.970    604.000    652.762    -48.762    650.719    651.866    651.615    650.719    650.719
 15.070    696.928    652.033     44.895    650.027    651.124    650.935    650.027    650.027
 15.170    645.393    651.313     -5.919    649.337    650.391    650.258    649.337    649.337
 15.270    624.000    650.600    -26.600    648.649    649.664    649.585    648.649    648.649
 15.370    619.000    649.894    -30.894    647.965    648.945    648.914    647.965    647.965
 15.470    636.000    649.195    -13.195    647.283    648.232    648.246    647.283    647.283
 15.570    611.000    648.503    -37.503    646.603    647.524    647.581    646.603    646.603
 15.670    633.000    647.816    -14.816    645.926    646.823    646.919    645.926    645.926
 15.770    610.000    647.137    -37.137    645.252    646.129    646.260    645.252    645.252
 15.870    646.000    646.464     -0.464    644.581    645.440    645.605    644.581    644.581
 15.970    633.000    645.793    -12.793    643.912    644.753    644.952    643.912    643.912
 16.070    692.854    645.126     47.727    643.246    644.070    644.302    643.246    643.246
 16.170    606.123    644.465    -38.342    642.583    643.392    643.655    642.583    642.583
 16.270    603.000    643.808    -40.808    641.922    642.718    643.012    641.922    641.922
 16.370    600.000    643.155    -43.155    641.264    642.048    642.371    641.264    641.264
 16.470    638.685    642.507     -3.822    640.609    641.382    641.734    640.609    640.609
 16.570    658.000    641.863     16.137    639.956    640.720    641.100    639.956    639.956
 16.670    581.000    641.227    -60.227    639.307    640.065    640.469    639.307    639.307
 16.770    621.000    640.596    -19.596    638.659    639.414    639.841    638.659    638.659
 16.870    664.000    639.965     24.035    638.015    638.764    639.216    638.015    638.015
 16.970    602.000    639.338    -37.338    637.373    638.116    638.595    637.373    637.373
 17.070    601.934    638.715    -36.780    636.734    637.472    637.977    636.734    636.734
 17.170    607.000    638.102    -31.102    636.098    636.838    637.362    636.098    636.098
 17.270    639.000    637.553      1.447    635.464    636.265    636.752    635.464    635.464
 17.370    667.000    636.954     30.046    634.834    635.644    636.144    634.834    634.834
 17.470    623.000    636.348    -13.348    634.206    635.015    635.539    634.206    634.206
 17.570    614.000    635.747    -21.747    633.580    634.390    634.937    633.580    633.580
 17.670    645.000    635.161      9.839    632.958    633.779    634.339    632.958    632.958
 17.770    673.000    634.567     38.433    632.338    633.161    633.744    632.338    632.338
 17.870    618.000    633.976    -15.976    631.721    632.544    633.153    631.721    631.721
 17.970    590.000    633.390    -43.390    631.107    631.931    632.565    631.107    631.107
 18.070    595.000    632.819    -37.819    630.495    631.333    631.981    630.495    630.495
 18.170    582.183    632.259    -50.075    629.886    630.745    631.400    629.886    629.886
 18.270    609.000    631.686    -22.686    629.281    630.143    630.823    629.281    629.281
 18.370    641.489    631.115     10.374    628.677    629.543    630.249    628.677    628.677
 18.470    601.997    630.548    -28.551    628.077    628.945    629.679    628.077    628.077
 18.570    618.000    629.985    -11.985    627.479    628.351    629.113    627.479    627.479
 18.670    577.000    629.427    -52.427    626.884    627.761    628.550    626.884    626.884
 18.770    662.834    628.875     33.959    626.292    627.175    627.992    626.292    626.292
 18.870    621.270    628.336     -7.066    625.703    626.602    627.437    625.703    625.703
 18.970    630.000    627.791      2.209    625.117    626.022    626.886    625.117    625.117
 19.070    602.000    627.250    -25.250    624.533    625.444    626.338    624.533    624.533
 19.170    623.000    626.713     -3.713    623.952    624.870    625.795    623.952    623.952
 19.270    618.000    626.183     -8.183    623.374    624.300    625.256    623.374    623.374
 19.370    652.370    625.683     26.687    622.799    623.753    624.728    622.799    622.799
 19.470    571.000    625.205    -54.205    622.226    623.223    624.208    622.226    622.226
 19.570    597.000    624.691    -27.691    621.657    622.665    623.682    621.657    621.657
 19.670    605.000    624.177    -19.177    621.090    622.108    623.159    621.090    621.090
 19.770    665.826    623.669     42.157    620.526    621.554    622.641    620.526    620.526
 19.870    611.000    623.166    -12.166    619.964    621.003    622.127    619.964    619.964
 19.970    660.237    622.675     37.561    619.406    620.464    621.617    619.406    619.406
 20.070    637.000    622.201     14.799    618.850    619.939    621.112    618.850    618.850
 20.170    628.000    621.720      6.280    618.297    619.404    620.613    618.297    618.297
 20.270    649.385    621.271     28.114    617.747    618.888    620.130    617.747    617.747
 20.370    584.301    620.815    -36.515    617.200    618.372    619.643    617.200    617.200
 20.470    613.000    620.393     -7.393    616.656    617.891    619.158    616.656    616.656
 20.570    650.000    619.954     30.046    616.114    617.391    618.677    616.114    616.114
 20.670    632.012    619.523     12.489    615.576    616.897    618.201    615.576    615.576
 20.770    598.000    619.080    -21.080    615.040    616.389    617.731    615.040    615.040
 20.870    617.000    618.652     -1.652    614.507    615.893    617.265    614.507    614.507
 20.970    647.000    618.255     28.745    613.977    615.425    616.806    613.977    613.977
 21.070    596.000    617.829    -21.829    613.449    614.926    616.352    613.449    613.449
 21.170    660.292    617.403     42.890    612.925    614.424    615.903    612.925    612.925
 21.270    665.905    616.985     48.920    612.403    613.927    615.461    612.403    612.403
 21.370    631.000    616.587     14.413    611.884    613.443    615.028    611.884    611.884
 21.470    577.637    616.195    -38.559    611.368    612.965    614.598    611.368    611.368
 21.570    585.345    615.808    -30.464    610.854    612.489    614.174    610.854    610.854
 21.670    608.000    615.426     -7.426    610.344    612.013    613.757    610.344    610.344
 21.770    583.000    615.049    -32.049    609.836    611.539    613.346    609.836    609.836
 21.870    593.000    614.681    -21.681    609.332    611.071    612.943    609.332    609.332
 21.970    636.000    614.325     21.675    608.830    610.608    612.546    608.830    608.830
 22.070    630.293    613.978     16.316    608.331    610.150    612.158    608.331    608.331
 22.170    589.000    613.642    -24.642    607.834    609.699    611.777    607.834    607.834
 22.270    632.000    613.318     18.682    607.341    609.255    611.405    607.341    607.341
 22.370    580.000    613.008    -33.008    606.850    608.817    611.041    606.850    606.850
 22.470    641.462    612.711     28.750    606.362    608.388    610.686    606.362    606.362
 22.570    661.627    612.430     49.196    605.877    607.968    610.340    605.877    605.877
 22.670    608.921    612.167     -3.246    605.395    607.558    610.005    605.395    605.395
 22.770    566.637    611.927    -45.290    604.916    607.162    609.681    604.916    604.916
 22.870    617.000    611.705      5.295    604.439    606.777    609.367    604.439    604.439
 22.970    619.000    611.500      7.500    603.966    606.402    609.064    603.966    603.966
 23.070    610.000    611.321     -1.321    603.495    606.043    608.773    603.495    603.495
 23.170    614.574    611.169      3.405    603.027    605.702    608.494    603.027    603.027
 23.270    578.276    611.050    -32.774    602.562    605.384    608.229    602.562    602.562
 23.370    575.814    610.969    -35.155    602.099    605.091    607.978    602.099    602.099
 23.470    600.000    610.933    -10.933    601.640    604.831    607.742    601.640    601.640
 23.570    630.000    610.949     19.051    601.183    604.611    607.522    601.183    601.183
 23.670    606.698    611.031     -4.332    600.729    604.441    607.319    600.729    600.729
 23.770    604.000    611.193     -7.193    600.278    604.337    607.136    600.278    600.278
 23.870    612.506    611.458      1.047    599.830    604.319    606.971    599.830    599.830
 23.970    600.608    611.860    -11.252    599.384    604.418    606.827    599.384    599.384
 24.070    620.000    612.453      7.547    598.941    604.690    606.706    598.941    598.941
 24.170    580.110    613.347    -33.236    598.502    605.242    606.609    598.502    598.502
 24.270    604.000    614.782    -10.782    598.064    606.312    606.539    598.064    598.064
 24.370    635.000    617.280     17.720    597.630    608.419    606.497    597.630    597.630
 24.470    606.000    621.817    -15.817    597.199    612.537    606.487    597.199    597.199
 24.570    688.000    629.827     58.173    596.770    620.101    606.511    596.770    596.770
 24.670    621.189    642.678    -21.489    596.344    632.475    606.572    596.344    596.344
 24.770    690.000    660.398     29.602    595.921    649.682    606.674    595.921    595.921
 24.870    720.961    679.647     41.315    595.501    668.378    606.820    595.501    595.501
 24.970    738.000    692.353     45.647    595.084    680.480    607.016    595.084    595.084
 25.070    710.000    690.674     19.326    594.669    678.134    607.267    594.669    594.669
 25.170    690.000    676.152     13.848    594.257    662.877    607.579    594.257    594.257
 25.270    676.000    657.463     18.537    593.848    643.385    607.959    593.848    593.848
 25.370    680.403    641.507     38.896    593.442    626.554    608.416    593.442    593.442
 25.470    604.000    630.639    -26.639    593.038    614.732    608.958    593.038    593.038
 25.570    638.457    624.388     14.069    592.637    607.435    609.597    592.637    592.637
 25.670    641.000    621.316     19.684    592.239    603.214    610.346    592.239    592.239
 25.770    665.206    620.109     45.098    591.844    600.735    611.221    591.844    591.844
 25.870    609.000    619.933    -10.933    591.452    599.149    612.238    591.452    591.452
 25.970    616.000    620.378     -4.378    591.062    598.020    613.421    591.062    591.062
 26.070    652.000    621.273     30.727    590.675    597.153    614.796    590.675    590.675
 26.170    636.771    622.561     14.211    590.291    596.458    616.394    590.291    590.291
 26.270    673.354    624.236     49.117    589.910    595.891    618.255    589.910    589.910
 26.370    654.652    626.323     28.329    589.531    595.428    620.426    589.531    589.531
 26.470    636.000    628.870      7.130    589.155    595.055    622.969    589.155    589.155
 26.570    627.000    631.938     -4.938    588.782    594.762    625.956    588.782    588.782
 26.670    610.767    635.619    -24.852    588.412    594.546    629.483    588.412    588.412
 26.770    638.000    640.045     -2.045    588.044    594.414    633.672    588.044    588.044
 26.870    657.000    645.378     11.622    587.679    594.370    638.685    587.679    587.679
 26.970    720.000    651.839     68.161    587.317    594.420    644.733    587.317    587.317
 27.070    686.000    659.736     26.264    586.958    594.586    652.102    586.958    586.958
 27.170    673.000    669.488      3.512    586.601    594.895    661.187    586.601    586.601
 27.270    705.000    681.688     23.312    586.247    595.386    672.541    586.247    586.247
 27.370    730.722    697.195     33.527    585.896    596.116    686.965    585.896    585.896
 27.470    675.038    717.331    -42.293    585.547    597.172    705.694    585.547    585.547
 27.570    720.000    744.473    -24.473    585.201    598.714    730.945    585.201    585.201
 27.670    818.000    784.253     33.747    584.858    601.116    767.972    584.858    584.858
 27.770    815.327    853.073    -37.745    584.518    605.463    832.089    584.518    584.518
 27.870   1016.000    997.109     18.891    584.180    614.803    966.408    584.180    584.180
 27.970   1387.667   1320.817     66.850    583.845    636.027   1268.469    583.845    583.845
 28.070   1872.000   1988.406   -116.406    583.512    679.967   1891.629    583.512    583.512
 28.170   3034.000   3126.183    -92.183    583.183    754.973   2953.874    583.183    583.183
 28.270   4673.267   4605.420     67.847    582.856    852.619   4335.007    582.856    582.856
 28.370   5754.867   5862.524   -107.657    582.531    935.901   5508.589    582.531    582.531
 28.470   6307.000   6140.648    166.352    582.210    955.259   5767.322    582.210    582.210
 28.570   5221.674   5276.953    -55.278    581.891    900.661   4958.152    581.891    581.891
 28.670   3861.659   3986.609   -124.950    581.574    820.556   3747.679    581.574    581.574
 28.770   3004.000   3053.738    -49.738    581.261    768.356   2866.659    581.261    581.261
 28.870   2759.000   2789.641    -30.641    580.950    765.563   2604.988    580.950    580.950
 28.970   3040.000   3056.024    -16.024    580.641    801.190   2835.436    580.641    580.641
 29.070   3603.000   3439.921    163.079    580.336    841.536   3178.774    580.336    580.336
 29.170   3446.648   3485.170    -38.523    580.033    847.716   3217.675    580.033    580.033
 29.270   3062.000   3032.268     29.732    579.732    806.588   2805.663    579.732    579.732
 29.370   2254.184   2330.328    -76.144    579.434    741.917   2168.067    579.434    579.434
 29.470   1577.000   1685.409   -108.409    579.139    682.351   1582.350    579.139    579.139
 29.570   1201.000   1234.260    -33.260    578.846    640.680   1172.514    578.846    578.846
 29.670   1016.000    972.400     43.600    578.556    616.533    934.468    578.556    578.556
 29.770    798.436    837.026    -38.590    578.269    604.103    811.213    578.269    578.269
 29.870    818.909    767.986     50.924    577.984    597.825    748.156    577.984    577.984
 29.970    718.779    729.071    -10.292    577.702    594.355    712.424    577.702    577.702
 30.070    686.284    703.747    -17.463    577.423    592.179    688.994    577.423    577.423
 30.170    734.000    685.525     48.475    577.145    590.722    671.950    577.145    577.145
 30.270    663.000    671.852     -8.852    576.871    589.796    658.928    576.871    576.871
 30.370    699.680    661.643     38.038    576.599    589.399    648.841    576.599    576.599
 30.470    679.000    654.621     24.379    576.330    589.740    641.208    576.330    576.330
 30.570    619.000    651.361    -32.361    576.063    591.372    636.044    576.063    576.063
 30.670    703.000    653.429     49.571    575.799    595.322    633.892    575.799    575.799
 30.770    705.000    663.025     41.975    575.537    602.911    635.628    575.537    575.537
 30.870    692.114    681.518     10.597    575.278    614.979    641.779    575.278    575.278
 30.970    739.521    706.872     32.649    575.022    630.490    651.351    575.022    575.022
 31.070    719.501    730.818    -11.318    574.767    644.999    660.523    574.767    574.767
 31.170    772.000    739.199     32.801    574.516    650.841    662.809    574.516    574.516
 31.270    735.000    723.744     11.256    574.267    643.548    654.408    574.267    574.267
 31.370    724.697    693.423     31.274    574.020    628.028    639.376    574.020    574.020
 31.470    668.862    662.224      6.637    573.776    611.918    624.057    573.776    573.776
 31.570    600.912    637.815    -36.903    573.535    599.409    611.925    573.535    573.535
 31.670    579.142    621.705    -42.562    573.296    591.339    603.652    573.296    573.296
 31.770    694.000    612.151     81.849    573.059    586.773    598.432    573.059    573.059
 31.870    646.000    606.655     39.345    572.825    584.361    595.115    572.825    572.825
 31.970    625.000    603.311     21.689    572.594    583.078    592.824    572.594    572.594
 32.070    609.000    601.061      7.939    572.365    582.354    591.069    572.365    572.365
 32.170    576.067    599.420    -23.352    572.138    581.936    589.619    572.138    572.138
 32.270    657.000    598.188     58.812    571.914    581.722    588.377    571.914    571.914
 32.370    675.000    597.282     77.718    571.692    581.676    587.296    571.692    571.692
 32.470    625.000    596.665     28.335    571.473    581.786    586.349    571.473    571.473
 32.570    609.000    596.323     12.677    571.256    582.055    585.522    571.256    571.256
 32.670    563.000    596.261    -33.261    571.041    582.496    584.805    571.041    571.041
 32.770    629.000    596.501     32.499    570.829    583.134    584.195    570.829    570.829
 32.870    624.176    597.082     27.094    570.620    584.007    583.692    570.620    570.620
 32.970    604.952    598.065      6.886    570.412    585.173    583.303    570.412    570.412
 33.070    642.000    599.547     42.453    570.207    586.711    583.042    570.207    570.207
 33.170    649.000    601.675     47.325    570.005    588.745    582.932    570.005    570.005
 33.270    597.000    604.698     -7.698    569.805    591.482    583.018    569.805    569.805
 33.370    636.000    609.111     26.889    569.607    595.325    583.389    569.607    569.607
 33.470    601.000    615.989    -14.989    569.412    601.152    584.244    569.412    569.412
 33.570    626.000    627.684     -1.684    569.219    610.875    586.021    569.219    569.219
 33.670    685.063    648.799     36.264    569.028    628.238    589.579    569.028    569.028
 33.770    661.000    686.777    -25.777    568.840    659.293    596.307    568.840    568.840
 33.870    744.000    750.615     -6.615    568.654    711.354    607.888    568.654    568.654
 33.970    802.000    846.250    -44.250    568.470    789.250    625.430    568.470    568.470
 34.070    938.864    968.562    -29.699    568.289    888.822    647.976    568.289    568.289
 34.170   1121.000   1091.577     29.423    568.110    988.959    670.668    568.110    568.110
 34.270   1221.000   1166.007     54.993    567.933   1049.598    684.290    567.933    567.933
 34.370   1168.000   1149.903     18.097    567.759   1036.634    680.996    567.759    567.759
 34.470   1038.729   1053.689    -14.960    567.587    958.532    662.733    567.587    567.587
 34.570    959.000    926.471     32.529    567.417    855.207    638.682    567.417    567.417
 34.670    767.000    810.536    -43.536    567.249    761.040    616.749    567.249    567.249
 34.770    722.531    724.359     -1.827    567.084    691.055    600.392    567.084    567.084
 34.870    691.755    668.686     23.069    566.921    645.860    589.749    566.921    566.921
 34.970    654.000    636.007     17.993    566.760    619.352    583.416    566.760    566.760
 35.070    657.000    617.572     39.428    566.601    604.416    579.756    566.601    566.601
 35.170    658.000    606.843     51.157    566.445    595.739    577.548    566.445    566.445
 35.270    646.000    600.020     45.980    566.291    590.230    576.080    566.291    566.291
 35.370    614.000    595.229     18.771    566.139    586.365    575.002    566.139    566.139
 35.470    576.000    591.613    -15.613    565.989    583.448    574.154    565.989    565.989
 35.570    608.911    588.769     20.142    565.842    581.149    573.461    565.842    565.842
 35.670    587.024    586.477      0.547    565.696    579.292    572.881    565.696    565.696
 35.770    610.000    584.603     25.397    565.553    577.764    572.391    565.553    565.553
 35.870    582.000    583.053     -1.053    565.412    576.490    571.975    565.412    565.412
 35.970    607.000    581.761     25.239    565.274    575.415    571.619    565.274    565.274
 36.070    628.966    580.679     48.287    565.137    574.498    571.318    565.137    565.137
 36.170    536.000    579.773    -43.773    565.002    573.710    571.065    565.002    565.002
 36.270    559.000    579.017    -20.017    564.870    573.029    570.858    564.870    564.870
 36.370    606.000    578.393     27.607    564.740    572.436    570.697    564.740    564.740
 36.470    576.925    577.890     -0.965    564.612    571.919    570.582    564.612    564.612
 36.570    566.274    577.500    -11.226    564.486    571.468    570.517    564.486    564.486
 36.670    591.000    577.222     13.778    564.362    571.076    570.507    564.362    564.362
 36.770    589.000    577.061     11.939    564.240    570.741    570.560    564.240    564.240
 36.870    554.740    577.026    -22.286    564.120    570.459    570.687    564.120    564.120
 36.970    610.332    577.137     33.194    564.003    570.235    570.905    564.003    564.003
 37.070    554.969    577.431    -22.463    563.887    570.080    571.238    563.887    563.887
 37.170    591.566    577.976     13.590    563.774    570.023    571.726    563.774    563.774
 37.270    601.874    578.902     22.972    563.662    570.129    572.435    563.662    563.662
 37.370    537.354    580.466    -43.112    563.553    570.514    573.504    563.553    563.553
 37.470    560.000    583.133    -23.133    563.445    571.357    575.220    563.445    563.445
 37.570    572.000    587.680    -15.680    563.340    572.864    578.155    563.340    563.340
 37.670    575.000    595.249    -20.249    563.237    575.166    583.318    563.237    563.237
 37.770    608.000    607.194      0.806    563.135    578.156    592.172    563.135    563.135
 37.870    608.514    624.551    -16.036    563.036    581.284    606.299    563.036    563.036
 37.970    598.000    647.109    -49.109    562.938    583.483    626.560    562.938    562.938
 38.070    717.635    672.645     44.989    562.843    583.718    651.765    562.843    562.843
 38.170    651.000    696.317    -45.317    562.750    581.938    677.122    562.750    562.750
 38.270    722.082    710.217     11.865    562.658    579.029    693.842    562.658    562.658
 38.370    743.813    706.994     36.819    562.569    575.906    693.657    562.569    562.569
 38.470    649.000    687.231    -38.231    562.481    573.120    676.594    562.481    562.481
 38.570    612.000    659.475    -47.475    562.395    570.932    650.942    562.395    562.395
 38.670    589.000    632.531    -43.531    562.312    569.372    625.474    562.312    562.312
 38.770    610.000    611.055     -1.055    562.230    568.326    604.961    562.230    562.230
 38.870    643.091    596.068     47.023    562.150    567.642    590.578    562.150    562.150
 38.970    599.000    586.577     12.423    562.072    567.190    581.460    562.072    562.072
 39.070    574.000    580.905     -6.905    561.996    566.878    576.023    561.996    561.996
 39.170    599.000    577.533     21.467    561.921    566.650    572.805    561.921    561.921
 39.270    594.000    575.424     18.576    561.849    566.474    570.799    561.849    561.849
 39.370    572.000    573.988     -1.988    561.778    566.332    569.435    561.778    561.778
 39.470    584.000    572.929     11.071    561.710    566.215    568.425    561.710    561.710
 39.570    561.386    572.102    -10.717    561.643    566.114    567.631    561.643    561.643
 39.670    560.000    571.437    -11.437    561.578    566.030    566.985    561.578    561.578
 39.770    531.000    570.896    -39.896    561.514    565.964    566.447    561.514    561.514
 39.870    525.393    570.450    -45.057    561.453    565.911    565.992    561.453    561.453
 39.970    566.469    570.079     -3.611    561.393    565.871    565.602    561.393    561.393
 40.070    556.000    569.771    -13.771    561.335    565.843    565.264    561.335    561.335
 40.170    529.800    569.516    -39.716    561.279    565.826    564.969    561.279    561.279
 40.270    530.000    569.305    -39.305    561.225    565.822    564.708    561.225    561.225
 40.370    552.000    569.134    -17.134    561.172    565.831    564.475    561.172    561.172
 40.470    564.000    568.999     -4.999    561.121    565.853    564.267    561.121    561.121
 40.570    548.000    568.896    -20.896    561.072    565.889    564.080    561.072    561.072
 40.670    578.000    568.826      9.174    561.025    565.940    563.911    561.025    561.025
 40.770    628.000    568.786     59.214    560.979    566.008    563.757    560.979    560.979
 40.870    574.000    568.778      5.222    560.935    566.096    563.617    560.935    560.935
 40.970    573.000    568.802      4.198    560.893    566.206    563.490    560.893    560.893
 41.070    550.893    568.861    -17.968    560.852    566.341    563.373    560.852    560.852
 41.170    594.000    568.959     25.041    560.813    566.506    563.267    560.813    560.813
 41.270    559.810    569.100     -9.291    560.776    566.706    563.170    560.776    560.776
 41.370    580.353    569.291     11.062    560.740    566.950    563.083    560.740    560.740
 41.470    573.000    569.543      3.457    560.706    567.246    563.004    560.706    560.706
 41.570    652.000    569.866     82.134    560.674    567.608    562.934    560.674    560.674
 41.670    582.000    570.282     11.718    560.643    568.053    562.873    560.643    560.643
 41.770    569.000    570.817     -1.817    560.614    568.611    562.821    560.614    560.614
 41.870    580.000    571.520      8.480    560.586    569.327    562.781    560.586    560.586
 41.970    566.698    572.483     -5.785    560.560    570.291    562.755    560.560    560.560
 42.070    582.000    573.890      8.110    560.536    571.679    562.750    560.536    560.536
 42.170    573.000    576.101     -3.101    560.513    573.839    562.779    560.513    560.513
 42.270    560.000    579.754    -19.754    560.492    577.384    562.867    560.492    560.492
 42.370    529.000    585.824    -56.824    560.472    583.255    563.049    560.472    560.472
 42.470    574.273    595.521    -21.249    560.454    592.616    563.372    560.454    560.454
 42.570    645.799    609.897     35.903    560.437    606.478    563.874    560.437    560.437
 42.670    598.000    629.137    -31.137    560.422    625.023    564.563    560.422    560.422
 42.770    664.000    651.631     12.369    560.408    646.699    565.377    560.408    560.408
 42.870    638.000    672.994    -34.994    560.396    667.287    566.152    560.396    560.396
 42.970    703.151    686.219     16.933    560.385    680.038    566.623    560.385    560.385
 43.070    600.000    685.388    -85.388    560.376    679.257    566.567    560.376    560.376
 43.170    652.000    670.962    -18.962    560.368    665.384    566.001    560.368    560.368
 43.270    631.135    649.258    -18.123    560.362    644.501    565.163    560.362    560.362
 43.370    644.278    627.051     17.227    560.357    623.132    564.309    560.357    560.357
 43.470    616.000    608.380      7.620    560.354    605.166    563.591    560.354    560.354
 43.570    567.000    594.613    -27.613    560.352    591.920    563.060    560.352    560.352
 43.670    609.000    585.431     23.569    560.351    583.087    562.705    560.351    560.351
 43.770    559.040    579.738    -20.698    560.352    577.613    562.484    560.352    560.352
 43.870    576.000    576.341     -0.341    560.354    574.348    562.351    560.354    560.354
 43.970    605.000    574.301     30.699    560.357    572.389    562.273    560.357    560.357
 44.070    616.000    573.016     42.984    560.362    571.156    562.225    560.362    560.362
 44.170    577.000    572.150      4.850    560.369    570.325    562.196    560.369    560.369
 44.270    550.000    571.532    -21.532    560.376    569.731    562.179    560.376    560.376
 44.370    565.000    571.075     -6.075    560.385    569.292    562.170    560.385    560.385
 44.470    580.000    570.734      9.266    560.395    568.963    562.168    560.395    560.395
 44.570    560.000    570.483    -10.483    560.407    568.719    562.171    560.407    560.407
 44.670    516.000    570.303    -54.303    560.420    568.543    562.180    560.420    560.420
 44.770    567.000    570.181     -3.181    560.434    568.421    562.194    560.434    560.434
 44.870    616.469    570.108     46.361    560.449    568.346    562.212    560.449    560.449
 44.970    609.000    570.078     38.922    560.466    568.309    562.235    560.466    560.466
 45.070    576.000    570.084      5.916    560.484    568.307    562.261    560.484    560.484
 45.170    607.146    570.123     37.023    560.503    568.334    562.292    560.503    560.503
 45.270    563.770    570.193     -6.423    560.523    568.390    562.327    560.523    560.523
 45.370    608.000    570.291     37.709    560.545    568.470    562.365    560.545    560.545
 45.470    566.000    570.416     -4.416    560.567    568.575    562.408    560.567    560.567
 45.570    528.000    570.567    -42.567    560.591    568.703    562.455    560.591    560.591
 45.670    607.000    570.744     36.256    560.617    568.854    562.506    560.617    560.617
 45.770    616.000    570.948     45.052    560.643    569.029    562.562    560.643    560.643
 45.870    567.434    571.179     -3.744    560.670    569.226    562.622    560.670    560.670
 45.970    599.000    571.438     27.562    560.699    569.449    562.687    560.699    560.699
 46.070    575.430    571.728      3.703    560.729    569.698    562.758    560.729    560.729
 46.170    575.000    572.050      2.950    560.760    569.975    562.834    560.760    560.760
 46.270    589.000    572.409     16.591    560.792    570.283    562.917    560.792    560.792
 46.370    615.514    572.808     42.706    560.825    570.625    563.006    560.825    560.825
 46.470    552.374    573.252    -20.878    560.859    571.007    563.103    560.859    560.859
 46.570    588.000    573.748     14.252    560.894    571.433    563.208    560.894    560.894
 46.670    583.000    574.305      8.695    560.931    571.912    563.323    560.931    560.931
 46.770    594.004    574.934     19.070    560.968    572.453    563.448    560.968    560.968
 46.870    540.268    575.650    -35.383    561.007    573.069    563.586    561.007    561.007
 46.970    573.000    576.479     -3.479    561.046    573.784    563.739    561.046    561.046
 47.070    609.817    577.462     32.356    561.087    574.634    563.912    561.087    561.087
 47.170    587.000    578.676      8.324    561.128    575.688    564.113    561.128    561.128
 47.270    601.273    580.266     21.007    561.171    577.077    564.356    561.171    561.171
 47.370    590.541    582.493      8.048    561.215    579.036    564.667    561.215    561.215
 47.470    601.000    585.781     15.219    561.259    581.946    565.087    561.259    561.259
 47.570    609.679    590.730     18.949    561.305    586.347    565.677    561.305    561.305
 47.670    579.000    598.033    -19.033    561.351    592.866    566.502    561.351    561.351
 47.770    647.457    608.260     39.198    561.399    602.015    567.621    561.399    561.399
 47.870    620.000    621.499     -1.499    561.447    613.873    569.042    561.447    561.447
 47.970    648.933    636.920     12.014    561.496    627.688    570.687    561.496    561.496
 48.070    635.000    652.325    -17.325    561.546    641.475    572.346    561.546    561.546
 48.170    671.000    664.047      6.953    561.598    651.921    573.667    561.598    561.598
 48.270    664.000    668.196     -4.196    561.650    655.511    574.278    561.650    561.650
 48.370    651.099    663.511    -12.412    561.702    651.101    574.061    561.702    561.702
 48.470    616.000    652.661    -36.661    561.756    641.098    573.277    561.756    561.756
 48.570    610.000    639.872    -29.872    561.811    629.309    572.341    561.811    561.811
 48.670    604.000    628.363    -24.363    561.866    618.636    571.570    561.866    561.866
 48.770    622.000    619.804      2.196    561.922    610.575    571.135    561.922    561.922
 48.870    599.000    614.681    -15.681    561.980    605.555    571.094    561.980    561.980
 48.970    623.956    612.772     11.185    562.037    603.359    571.442    562.037    562.037
 49.070    649.000    613.567     35.433    562.096    603.507    572.149    562.096    562.096
 49.170    603.000    616.606    -13.606    562.156    605.552    573.203    562.156    562.156
 49.270    617.000    621.713     -4.713    562.216    609.286    574.636    562.216    562.216
 49.370    604.000    629.226    -25.226    562.277    614.914    576.582    562.277    562.277
 49.470    611.142    640.468    -29.326    562.339    623.409    579.390    562.339    562.339
 49.570    675.775    658.763     17.012    562.401    637.273    583.879    562.401    562.401
 49.670    690.422    691.308     -0.886    562.464    661.952    591.800    562.464    562.464
 49.770    715.000    751.633    -36.633    562.528    707.690    606.433    562.528    562.528
 49.870    793.000    861.177    -68.177    562.593    790.730    632.974    562.593    562.593
 49.970   1022.808   1046.998    -24.190    562.658    931.574    677.976    562.658    562.658
 50.070   1338.234   1332.418      5.816    562.724   1147.897    747.091    562.724    562.724
 50.170   1700.000   1720.486    -20.486    562.791   1442.028    841.054    562.791    562.791
 50.270   2080.000   2175.547    -95.547    562.859   1787.007    951.192    562.859    562.859
 50.370   2515.949   2612.599    -96.650    562.927   2118.436   1056.921    562.927    562.927
 50.470   2836.000   2908.176    -72.176    562.995   2342.665   1128.435    562.995    562.995
 50.570   3048.000   2952.081     95.919    563.065   2376.258   1138.941    563.065    563.065
 50.670   2624.158   2725.465   -101.307    563.134   2204.942   1083.812    563.134    563.134
 50.770   2379.006   2318.538     60.467    563.205   1897.117    984.825    563.205    563.205
 50.870   1875.136   1860.414     14.722    563.276   1550.717    873.165    563.276    563.276
 50.970   1526.687   1451.250     75.437    563.348   1241.761    772.993    563.348    563.348
 51.070   1154.000   1141.278     12.722    563.420   1008.411    696.401    563.420    563.420
 51.170    921.647    937.139    -15.491    563.493    855.714    644.996    563.493    563.493
 51.270    806.000    818.891    -12.891    563.566    768.414    614.099    563.566    563.566
 51.370    774.000    757.759     16.241    563.640    724.338    597.104    563.640    563.640
 51.470    752.000    727.838     24.162    563.714    703.231    588.359    563.714    563.714
 51.570    747.802    710.855     36.947    563.789    690.514    584.165    563.789    563.789
 51.670    733.000    697.037     35.963    563.865    678.376    582.555    563.865    563.865
 51.770    709.000    683.648     25.352    563.941    664.971    582.641    563.941    563.941
 51.870    656.000    671.455    -15.455    564.017    651.495    583.993    564.017    564.017
 51.970    655.560    661.637     -6.076    564.094    639.511    586.228    564.094    564.094
 52.070    704.000    654.567     49.433    564.171    629.969    588.772    564.171    564.171
 52.170    660.000    649.694     10.306    564.249    623.156    590.785    564.249    564.249
 52.270    685.511    645.908     39.603    564.327    618.898    591.333    564.327    564.327
 52.370    677.311    642.317     34.994    564.406    616.789    589.929    564.406    564.406
 52.470    668.242    638.870     29.372    564.485    616.419    586.932    564.485    564.485
 52.570    646.873    636.164     10.710    564.564    617.526    583.200    564.564    564.564
 52.670    655.471    634.990     20.481    564.644    620.096    579.536    564.644    564.644
 52.770    665.193    636.207     28.986    564.724    624.477    576.454    564.724    564.724
 52.870    679.000    640.900     38.100    564.805    631.528    574.176    564.805    564.805
 52.970    656.589    650.697      5.892    564.885    642.867    572.714    564.885    564.885
 53.070    725.000    668.108     56.892    564.967    661.094    571.978    564.967    564.967
 53.170    716.000    696.666     19.334    565.048    689.848    571.862    565.048    565.048
 53.270    769.000    740.607     28.393    565.130    733.430    572.300    565.130    565.130
 53.370    758.862    803.806    -44.944    565.212    795.747    573.262    565.212    565.212
 53.470    944.386    888.010     56.375    565.295    878.575    574.719    565.295    565.295
 53.570   1000.000    990.575      9.425    565.377    979.358    576.583    565.377    565.377
 53.670   1176.000   1102.055     73.945    565.460   1088.881    578.623    565.460    565.460
 53.770   1176.000   1204.377    -28.377    565.544   1189.440    580.475    565.544    565.544
 53.870   1315.170   1272.417     42.753    565.627   1256.307    581.742    565.627    565.627
 53.970   1268.000   1283.673    -15.673    565.711   1267.474    581.925    565.711    565.711
 54.070   1255.701   1233.865     21.836    565.795   1218.750    580.932    565.795    565.795
 54.170   1108.906   1140.706    -31.800    565.879   1127.504    579.107    565.879    565.879
 54.270    986.000   1030.424    -44.424    565.963   1019.453    576.958    565.963    565.963
 54.370    879.306    924.144    -44.837    566.048    915.317    574.895    566.048    566.048
 54.470    792.000    834.033    -42.033    566.133    827.027    573.155    566.133    566.133
 54.570    765.000    764.691      0.309    566.218    759.094    571.826    566.218    566.218
 54.670    733.987    715.509     18.478    566.303    710.925    570.895    566.303    566.303
 54.770    703.000    682.993     20.007    566.388    679.092    570.293    566.388    566.388
 54.870    649.000    662.723    -13.723    566.473    659.265    569.935    566.473    566.473
 54.970    670.000    650.683     19.317    566.559    647.503    569.741    566.559    566.559
 55.070    640.000    643.853     -3.853    566.645    640.847    569.652    566.645    566.645
 55.170    682.698    640.266     42.431    566.730    637.369    569.628    566.730    566.730
 55.270    618.000    638.784    -20.784    566.816    635.952    569.648    566.816    566.816
 55.370    642.000    638.812      3.188    566.902    636.015    569.700    566.902    566.902
 55.470    646.000    640.084      5.916    566.988    637.296    569.776    566.988    566.988
 55.570    653.852    642.523     11.329    567.074    639.721    569.876    567.074    567.074
 55.670    661.000    646.178     14.822    567.160    643.339    569.999    567.160    567.160
 55.770    679.806    651.231     28.575    567.246    648.329    570.148    567.246    567.246
 55.870    685.000    658.057     26.943    567.332    655.062    570.327    567.332    567.332
 55.970    718.000    667.400     50.600    567.419    664.269    570.548    567.419    567.419
 56.070    700.680    680.700     19.980    567.505    677.371    570.832    567.505    567.505
 56.170    682.000    700.637    -18.637    567.591    697.006    571.217    567.591    567.591
 56.270    716.760    731.866    -15.106    567.677    727.762    571.774    567.677    567.677
 56.370    784.000    781.753      2.247    567.763    776.894    572.609    567.763    567.763
 56.470    818.000    860.626    -42.626    567.849    854.579    573.875    567.849    567.849
 56.570    975.000    980.849     -5.849    567.935    972.998    575.754    567.935    567.935
 56.670   1170.581   1154.076     16.504    568.021   1143.633    578.418    568.021    568.021
 56.770   1404.000   1386.625     17.375    568.107   1372.712    581.960    568.107    568.107
 56.870   1604.299   1673.748    -69.449    568.193   1655.562    586.311    568.193    568.193
 56.970   2012.000   1994.066     17.934    568.278   1971.119    591.159    568.278    568.278
 57.070   2288.097   2305.298    -17.201    568.364   2277.732    595.883    568.364    568.364
 57.170   2564.000   2544.713     19.287    568.449   2513.593    599.563    568.449    568.449
 57.270   2664.935   2645.278     19.657    568.535   2612.652    601.217    568.535    568.535
 57.370   2670.184   2573.303     96.882    568.620   2541.695    600.352    568.620    568.620
 57.470   2286.364   2354.406    -68.041    568.705   2325.935    597.348    568.705    568.705
 57.570   1987.751   2052.874    -65.123    568.790   2028.699    593.154    568.790    568.790
 57.670   1742.486   1733.432      9.054    568.875   1713.755    588.731    568.875    568.875
 57.770   1396.000   1441.916    -45.916    568.959   1426.256    584.772    568.959    568.959
 57.870   1204.421   1203.072      1.349    569.043   1190.556    581.679    569.043    569.043
 57.970   1028.001   1024.378      3.623    569.128   1013.955    579.638    569.128    569.128
 58.070    927.751    901.618     26.133    569.212    892.151    578.736    569.212    569.212
 58.170    879.332    824.854     54.478    569.295    815.098    579.087    569.295    569.295
 58.270    757.000    783.496    -26.496    569.379    771.959    580.932    569.379    569.379
 58.370    772.000    769.417      2.583    569.462    754.201    584.681    569.462    569.462
 58.470    749.000    777.965    -28.965    569.545    756.670    590.830    569.545    569.545
 58.570    833.000    807.228     25.772    569.628    777.088    599.745    569.628    569.628
 58.670    811.848    856.389    -44.541    569.710    814.700    611.366    569.710    569.710
 58.770    895.934    923.783    -27.849    569.792    868.630    624.903    569.792    569.792
 58.870    961.000   1005.174    -44.174    569.874    936.342    638.658    569.874    569.874
 58.970   1006.000   1092.738    -86.738    569.956   1012.546    650.101    569.956    569.956
 59.070   1180.000   1175.830      4.170    570.037   1089.376    656.455    570.037    570.037
 59.170   1223.000   1244.472    -21.472    570.118   1158.599    655.972    570.118    570.118
 59.270   1287.037   1292.689     -5.652    570.198   1213.858    649.031    570.198    570.198
 59.370   1257.000   1317.555    -60.555    570.278   1250.056    637.799    570.278    570.278
 59.470   1253.446   1317.119    -63.673    570.358   1262.587    624.928    570.358    570.358
 59.570   1292.000   1292.918     -0.918    570.438   1250.809    612.592    570.438    570.438
 59.670   1347.000   1253.781     93.219    570.517   1222.173    602.165    570.517    570.517
 59.770   1221.529   1213.783      7.747    570.595   1190.189    594.209    570.595    570.595
 59.870   1198.000   1186.291     11.709    570.674   1168.313    588.638    570.674    570.674
 59.970   1217.094   1180.306     36.789    570.752   1166.029    584.974    570.752    570.752
 60.070   1199.059   1200.570     -1.511    570.829   1188.667    582.630    570.829    570.829
 60.170   1289.000   1248.877     40.123    570.906   1238.517    581.114    570.906    570.906
 60.270   1359.000   1323.351     35.649    570.983   1314.024    580.108    570.983    570.983
 60.370   1449.000   1415.464     33.536    571.059   1406.842    579.435    571.059    571.059
 60.470   1522.357   1507.739     14.618    571.135   1499.594    579.003    571.135    571.135
 60.570   1690.000   1574.809    115.191    571.210   1566.974    578.761    571.210    571.210
 60.670   1610.000   1590.623     19.377    571.284   1582.970    578.676    571.284    571.284
 60.770   1477.080   1542.139    -65.059    571.359   1534.551    578.730    571.359    571.359
 60.870   1392.000   1438.078    -46.078    571.432   1430.434    578.916    571.432    571.432
 60.970   1306.319   1301.944      4.375    571.506   1294.102    579.238    571.506    571.506
 61.070   1195.000   1158.777     36.223    571.578   1150.570    579.717    571.578    571.578
 61.170    968.824   1027.681    -58.857    571.651   1018.895    580.395    571.651    571.651
 61.270    952.000    920.186     31.814    571.722    910.523    581.361    571.722    571.722
 61.370    805.000    841.147    -36.147    571.793    830.145    582.776    571.793    571.793
 61.470    808.950    790.777     18.173    571.864    777.696    584.924    571.864    571.864
 61.570    764.000    767.178     -3.178    571.934    750.826    588.258    571.934    571.934
 61.670    784.000    768.618     15.382    572.003    747.147    593.434    572.003    572.003
 61.770    776.000    794.878    -18.878    572.072    765.599    601.293    572.072    572.072
 61.870    823.000    847.316    -24.316    572.140    806.624    612.752    572.140    572.140
 61.970    910.000    927.694    -17.694    572.208    871.211    628.580    572.208    572.208
 62.070   1014.000   1036.118    -22.118    572.275    959.177    649.071    572.275    572.275
 62.170   1168.378   1168.692     -0.314    572.341   1067.172    673.681    572.341    572.341
 62.270   1267.556   1315.458    -47.902    572.407   1186.946    700.706    572.407    572.407
 62.370   1423.000   1459.125    -36.125    572.472   1304.276    727.086    572.472    572.472
 62.470   1543.000   1575.582    -32.582    572.536   1399.362    748.519    572.536    572.536
 62.570   1610.000   1638.793    -28.793    572.600   1450.832    760.345    572.600    572.600
 62.670   1567.000   1631.632    -64.632    572.663   1444.619    759.499    572.663    572.663
 62.770   1549.979   1555.927     -5.947    572.725   1382.206    746.316    572.725    572.725
 62.870   1498.543   1431.163     67.381    572.787   1279.562    724.301    572.787    572.787
 62.970   1252.000   1283.473    -31.473    572.848   1158.115    698.153    572.848    572.848
 63.070   1104.000   1135.786    -31.786    572.908   1036.667    671.997    572.908    572.908
 63.170   1046.301   1003.842     42.459    572.968    928.130    648.665    572.968    572.968
 63.270    916.459    895.973     20.486    573.027    839.332    629.659    573.027    573.027
 63.370    837.000    814.334     22.666    573.085    772.040    615.373    573.085    573.085
 63.470    765.000    756.784      8.216    573.142    724.492    605.427    573.142    573.142
 63.570    740.000    718.934     21.066    573.199    693.085    599.038    573.199    573.199
 63.670    690.000    695.927     -5.927    573.254    673.830    595.340    573.254    573.254
 63.770    685.111    683.639      1.472    573.309    663.332    593.603    573.309    573.309
 63.870    711.000    679.337     31.663    573.364    659.323    593.360    573.364    573.364
 63.970    712.000    681.789     30.211    573.417    660.734    594.451    573.417    573.417
 64.070    654.000    691.186    -37.186    573.470    667.589    597.039    573.470    573.470
 64.170    751.000    708.940     42.060    573.522    680.798    601.627    573.522    573.522
 64.270    749.000    737.345     11.655    573.573    701.821    609.047    573.573    573.573
 64.370    810.000    779.079     30.921    573.623    732.230    620.406    573.623    573.623
 64.470    786.636    836.486    -49.850    573.672    773.140    636.932    573.672    573.672
 64.570    903.019    910.633     -7.615    573.721    824.549    659.693    573.721    573.721
 64.670   1006.144   1000.243      5.901    573.769    884.668    689.205    573.769    573.769
 64.770   1069.487   1100.636    -31.148    573.815    949.313    724.976    573.815    573.815
 64.870   1274.000   1202.957     71.043    573.861   1011.550    765.087    573.861    573.861
 64.970   1294.000   1294.353     -0.353    573.906   1062.160    805.911    573.906    573.906
 65.070   1318.860   1360.171    -41.311    573.951   1091.869    842.070    573.951    573.951
 65.170   1427.000   1388.315     38.685    573.994   1095.121    867.023    573.994    573.994
 65.270   1394.752   1373.669     21.084    574.036   1072.621    874.949    574.036    574.036
 65.370   1386.000   1320.203     65.797    574.078   1030.534    863.644    574.078    574.078
 65.470   1186.245   1239.586    -53.342    574.118    977.632    836.002    574.118    574.118
 65.570   1231.000   1146.472     84.528    574.158    922.362    798.226    574.158    574.158
 65.670   1105.000   1053.552     51.448    574.197    870.878    756.851    574.197    574.197
 65.770   1006.006    969.165     36.841    574.235    826.391    717.008    574.235    574.235
 65.870    906.000    897.232      8.768    574.271    789.512    682.002    574.271    574.271
 65.970    833.424    838.396     -4.972    574.307    759.266    653.453    574.307    574.307
 66.070    752.000    791.575    -39.575    574.342    734.309    631.626    574.342    574.342
 66.170    733.000    755.163    -22.163    574.376    713.706    615.850    574.376    574.376
 66.270    702.000    727.507    -25.507    574.409    696.958    604.970    574.409    574.409
 66.370    759.842    707.010     52.832    574.441    683.738    597.722    574.441    574.441
 66.470    703.662    692.246     11.415    574.472    673.744    592.979    574.472    574.472
 66.570    640.000    682.060    -42.060    574.502    666.697    589.867    574.502    574.502
 66.670    715.000    675.595     39.405    574.531    662.351    587.774    574.531    574.531
 66.770    646.000    672.260    -26.260    574.559    660.507    586.310    574.559    574.559
 66.870    639.000    671.708    -32.708    574.585    661.051    585.240    574.585    574.585
 66.970    661.000    673.853    -12.853    574.611    664.027    584.436    574.611    574.611
 67.070    625.000    678.969    -53.969    574.636    669.773    583.831    574.636    574.636
 67.170    638.000    687.857    -49.857    574.660    679.115    583.399    574.660    574.660
 67.270    672.000    702.078    -30.078    574.683    693.611    583.147    574.683    574.683
 67.370    775.673    724.224     51.448    574.704    715.819    583.105    574.704    574.704
 67.470    720.000    758.156    -38.156    574.725    749.542    583.333    574.725    574.725
 67.570    792.000    809.074    -17.074    574.744    799.893    583.916    574.744    574.744
 67.670    889.000    883.246      5.754    574.763    873.034    584.961    574.763    574.763
 67.770    933.228    987.223    -53.995    574.780    975.405    586.580    574.780    574.780
 67.870   1129.000   1126.451      2.549    574.796   1112.359    588.868    574.796    574.796
 67.970   1308.207   1303.396      4.810    574.811   1286.321    591.865    574.811    574.811
 68.070   1527.333   1515.457     11.876    574.825   1494.745    595.522    574.825    574.825
 68.170   1707.432   1753.043    -45.611    574.838   1728.219    599.661    574.838    574.838
 68.270   2008.323   1998.101     10.222    574.850   1969.023    603.952    574.850    574.850
 68.370   2143.798   2223.554    -79.756    574.860   2190.573    607.902    574.860    574.860
 68.470   2482.804   2395.289     87.515    574.870   2359.378    610.892    574.870    574.870
 68.570   2619.000   2479.900    139.100    574.878   2442.631    612.314    574.878    574.878
 68.670   2360.843   2458.213    -97.369    574.885   2421.498    611.818    574.885    574.885
 68.770   2297.000   2335.507    -38.507    574.891   2301.152    609.500    574.891    574.891
 68.870   2126.000   2138.350    -12.350    574.896   2107.672    605.839    574.896    574.896
 68.970   1895.000   1901.593     -6.593    574.899   1875.280    601.467    574.899    574.899
 69.070   1635.277   1656.938    -21.661    574.902   1635.110    596.957    574.902    574.902
 69.170   1432.000   1427.887      4.113    574.903   1410.247    592.737    574.903    574.903
 69.270   1260.000   1229.009     30.991    574.903   1214.999    589.069    574.903    574.903
 69.370   1091.178   1066.926     24.252    574.902   1055.875    586.073    574.902    574.902
 69.470   1000.000    941.988     58.012    574.900    933.221    583.755    574.900    574.900
 69.570    887.126    850.308     36.818    574.896    843.222    582.045    574.896    574.896
 69.670    855.000    785.799     69.201    574.891    779.903    580.831    574.891    574.891
 69.770    743.000    741.879      1.121    574.885    736.800    579.994    574.885    574.885
 69.870    720.588    712.610      7.977    574.878    708.082    579.426    574.878    574.878
 69.970    667.142    693.250    -26.109    574.869    689.094    579.039    574.869    574.869
 70.070    688.000    680.367      7.633    574.860    676.463    578.772    574.860    574.860
 70.170    718.000    671.661     46.339    574.849    667.928    578.587    574.849    574.849
 70.270    657.000    665.689     -8.689    574.836    662.074    578.455    574.836    574.836
 70.370    669.000    661.600      7.400    574.823    658.064    578.360    574.823    574.823
 70.470    715.000    658.922     56.078    574.808    655.435    578.295    574.808    574.808
 70.570    620.108    657.416    -37.308    574.792    653.951    578.255    574.792    574.792
 70.670    667.000    657.001      9.999    574.775    653.534    578.240    574.775    574.775
 70.770    643.000    657.727    -14.727    574.756    654.229    578.250    574.756    574.756
 70.870    743.000    659.788     83.212    574.736    656.226    578.293    574.736    574.736
 70.970    674.883    663.581     11.301    574.715    659.912    578.377    574.715    574.715
 71.070    676.000    669.806      6.194    574.693    665.967    578.520    574.693    574.693
 71.170    635.378    679.592    -44.214    574.669    675.494    578.751    574.669    574.669
 71.270    723.000    694.650     28.350    574.644    690.162    579.111    574.644    574.644
 71.370    730.000    717.397     12.603    574.617    712.324    579.661    574.617    574.617
 71.470    749.000    750.985     -1.985    574.589    745.056    580.479    574.589    574.589
 71.570    788.000    799.161    -11.161    574.560    792.009    581.656    574.560    574.560
 71.670    826.777    865.867    -39.090    574.530    857.028    583.291    574.530    574.530
 71.770    920.000    954.540    -34.540    574.498    943.467    585.468    574.498    574.498
 71.870   1035.000   1067.171    -32.171    574.465   1053.263    588.238    574.465    574.465
 71.970   1198.000   1203.211     -5.211    574.431   1185.884    591.587    574.431    574.431
 72.070   1317.000   1358.547    -41.547    574.395   1337.317    595.417    574.395    574.395
 72.170   1522.271   1524.641     -2.370    574.358   1499.237    599.519    574.358    574.358
 72.270   1615.000   1687.982    -72.982    574.319   1658.470    603.563    574.319    574.319
 72.370   1824.000   1830.189     -6.189    574.279   1797.085    607.099    574.279    574.279
 72.470   1869.000   1929.983    -60.983    574.238   1894.333    609.607    574.238    574.238
 72.570   1951.883   1968.680    -16.797    574.196   1931.987    610.631    574.196    574.196
 72.670   1962.723   1938.043     24.680    574.152   1902.007    609.969    574.152    574.152
 72.770   1880.859   1844.608     36.251    574.106   1810.759    607.783    574.106    574.106
 72.870   1696.000   1706.147    -10.147    574.060   1675.570    604.509    574.060    574.060
 72.970   1511.000   1543.910    -32.910    574.012   1517.168    600.665    574.012    574.012
 73.070   1447.863   1376.758     71.105    573.962   1353.956    596.706    573.962    573.962
 73.170   1248.000   1218.815     29.185    573.911   1199.724    592.967    573.911    573.911
 73.270   1009.000   1079.198    -70.198    573.859   1063.381    589.656    573.859    573.859
 73.370    957.282    962.512     -5.230    573.805    949.435    586.872    573.805    573.805
 73.470    858.000    869.689    -11.689    573.750    858.804    584.629    573.750    573.750
 73.570    837.000    799.014     37.986    573.693    789.815    582.889    573.693    573.693
 73.670    729.000    747.222    -18.222    573.635    739.264    581.590    573.635    573.635
 73.770    709.000    710.455     -1.455    573.576    703.365    580.663    573.576    573.576
 73.870    743.000    684.989     58.011    573.515    678.455    580.046    573.515    573.515
 73.970    646.000    667.662    -21.662    573.453    661.421    579.691    573.453    573.453
 74.070    679.000    656.048     22.952    573.389    649.865    579.571    573.389    573.389
 74.170    651.000    648.431      2.569    573.324    642.084    579.671    573.324    573.324
 74.270    635.000    643.684     -8.684    573.258    636.952    579.992    573.258    573.258
 74.370    619.163    641.106    -21.943    573.190    633.762    580.539    573.190    573.190
 74.470    671.623    640.255     31.368    573.120    632.072    581.312    573.120    573.120
 74.570    588.000    640.821    -52.821    573.049    631.582    582.302    573.049    573.049
 74.670    635.000    642.525     -7.525    572.977    632.042    583.479    572.977    572.977
 74.770    665.000    645.047     19.953    572.903    633.188    584.786    572.903    572.903
 74.870    732.000    647.984     84.016    572.828    634.705    586.138    572.828    572.828
 74.970    664.000    650.834     13.166    572.752    636.203    587.418    572.752    572.752
 75.070    701.684    653.020     48.664    572.673    637.243    588.490    572.673    572.673
 75.170    692.000    653.995     38.005    572.594    637.408    589.223    572.594    572.594
 75.270    719.000    653.429     65.571    572.513    636.439    589.545    572.513    572.513
 75.370    709.000    651.366     57.634    572.430    634.353    589.484    572.430    572.430
 75.470    687.444    648.242     39.202    572.346    631.449    589.176    572.346    572.346
 75.570    706.000    644.750     61.250    572.261    628.211    588.831    572.261    572.261
 75.670    670.000    641.684     28.316    572.174    625.182    588.700    572.174    572.174
 75.770    640.356    639.858      0.497    572.085    622.902    589.059    572.085    572.085
 75.870    681.000    640.087     40.913    571.995    621.891    590.200    571.995    571.995
 75.970    618.879    643.192    -24.313    571.904    622.652    592.444    571.904    571.904
 76.070    623.000    649.993    -26.993    571.811    625.670    596.126    571.811    571.811
 76.170    610.000    661.261    -51.261    571.717    631.386    601.573    571.717    571.717
 76.270    659.000    677.634    -18.634    571.621    640.156    609.070    571.621    571.621
 76.370    664.243    699.488    -35.246    571.524    652.180    618.791    571.524    571.524
 76.470    759.257    726.782     32.475    571.425    667.414    630.740    571.425    571.425
 76.570    739.000    758.898    -19.898    571.324    685.485    644.672    571.324    571.324
 76.670    745.000    794.497    -49.497    571.223    705.608    660.033    571.223    571.223
 76.770    877.000    831.414     45.586    571.119    726.527    675.917    571.119    571.119
 76.870    869.000    866.596      2.404    571.015    746.477    691.036    571.015    571.015
 76.970    876.000    896.203    -20.203    570.908    763.243    703.765    570.908    570.908
 77.070    887.000    916.078    -29.078    570.800    774.434    712.342    570.800    570.800
 77.170    957.264    922.807     34.457    570.691    778.082    715.317    570.691    570.691
 77.270    869.914    915.041    -45.127    570.580    773.410    712.121    570.580    570.580
 77.370    921.180    894.142     27.038    570.468    761.198    703.333    570.468    570.468
 77.470    860.000    863.527     -3.527    570.354    743.409    690.406    570.354    570.354
 77.570    814.000    827.331    -13.331    570.239    722.415    675.099    570.239    570.239
 77.670    745.000    789.344    -44.344    570.122    700.397    659.025    570.122    570.122
 77.770    736.000    752.553    -16.553    570.004    679.069    643.453    570.004    570.004
 77.870    766.344    719.039     47.305    569.884    659.628    629.269    569.884    569.884
 77.970    685.000    690.040     -5.040    569.763    642.783    617.000    569.763    569.763
 78.070    704.986    666.061     38.925    569.640    628.825    606.861    569.640    569.640
 78.170    661.000    647.029     13.971    569.515    617.710    598.822    569.515    569.515
 78.270    662.997    632.470     30.527    569.389    609.167    592.683    569.389    569.389
 78.370    557.000    621.688    -64.688    569.262    602.793    588.149    569.262    569.262
 78.470    608.000    613.914     -5.914    569.133    598.148    584.893    569.133    569.133
 78.570    650.939    608.425     42.515    569.003    594.813    582.610    569.003    569.003
 78.670    635.480    604.600     30.880    568.871    592.431    581.035    568.871    568.871
 78.770    605.589    601.954      3.635    568.737    590.723    579.965    568.737    568.737
 78.870    635.000    600.131     34.869    568.603    589.482    579.248    568.603    568.603
 78.970    629.000    598.886     30.114    568.466    588.567    578.781    568.466    568.466
 79.070    595.091    598.062     -2.971    568.328    587.886    578.500    568.328    568.328
 79.170    589.000    597.568     -8.568    568.189    587.387    578.367    568.189    568.189
 79.270    600.000    597.359      2.641    568.048    587.040    578.364    568.048    568.048
 79.370    552.000    597.426    -45.426    567.905    586.837    578.491    567.905    567.905
 79.470    642.334    597.788     44.546    567.761    586.784    578.761    567.761    567.761
 79.570    620.000    598.493     21.507    567.616    586.899    579.205    567.616    567.616
 79.670    568.000    599.621    -31.621    567.469    587.210    579.876    567.469    567.469
 79.770    628.000    601.299     26.701    567.321    587.756    580.859    567.321    567.321
 79.870    579.000    603.710    -24.710    567.171    588.588    582.287    567.171    567.171
 79.970    602.000    607.123     -5.123    567.019    589.772    584.363    567.019    567.019
 80.070    596.000    611.921    -15.921    566.866    591.396    587.382    566.866    566.866
 80.170    579.727    618.631    -38.904    566.712    593.571    591.759    566.712    566.712
 80.270    630.419    627.949      2.471    566.556    596.445    598.045    566.556    566.556
 80.370    684.000    640.748     43.252    566.398    600.198    606.929    566.398    566.398
 80.470    694.144    658.046     36.099    566.239    605.050    619.211    566.239    566.239
 80.570    728.678    680.931     47.746    566.079    611.247    635.733    566.079    566.079
 80.670    711.492    710.442      1.050    565.917    619.054    657.269    565.917    565.917
 80.770    774.000    747.399     26.601    565.753    628.736    684.376    565.753    565.753
 80.870    833.000    792.218     40.782    565.589    640.542    717.218    565.589    565.589
 80.970    868.238    844.675     23.564    565.422    654.652    755.394    565.422    565.422
 81.070    896.000    903.667     -7.667    565.254    671.101    797.767    565.254    565.254
 81.170   1015.995    967.024     48.971    565.085    689.688    842.368    565.085    565.085
 81.270   1028.000   1031.430     -3.430    564.914    709.910    886.384    564.914    564.914
 81.370   1119.634   1092.558     27.076    564.742    730.952    926.306    564.742    564.742
 81.470   1152.542   1145.536      7.006    564.568    751.735    958.338    564.568    564.568
 81.570   1188.000   1185.783      2.217    564.393    771.068    979.092    564.393    564.393
 81.670   1224.000   1209.970     14.030    564.216    787.815    986.370    564.216    564.216
 81.770   1241.000   1216.660     24.340    564.038    801.086    979.627    564.038    564.038
 81.870   1147.711   1206.323    -58.613    563.858    810.315    959.898    563.858    563.858
 81.970   1294.000   1180.868    113.132    563.677    815.188    929.403    563.677    563.677
 82.070   1159.000   1143.371     15.629    563.494    815.729    891.195    563.494    563.494
 82.170   1101.000   1097.504      3.496    563.310    812.168    848.714    563.310    563.310
 82.270   1102.000   1046.888     55.112    563.125    804.806    805.281    563.125    563.125
 82.370    938.619    994.646    -56.026    562.938    793.998    763.663    562.938    562.938
 82.470    984.898    943.284     41.613    562.750    780.264    725.848    562.750    562.750
 82.570    862.000    894.727    -32.727    562.560    764.361    693.002    562.560    562.560
 82.670    826.000    850.293    -24.293    562.369    747.170    665.565    562.369    562.369
 82.770    823.000    810.648     12.352    562.176    729.488    643.404    562.176    562.176
 82.870    768.092    775.862     -7.770    561.982    711.907    625.999    561.982    561.982
 82.970    745.000    745.631     -0.631    561.786    694.849    612.626    561.786    561.786
 83.070    669.000    719.536    -50.536    561.589    678.663    602.512    561.589    561.589
 83.170    675.283    697.224    -21.941    561.391    663.707    594.950    561.391    561.391
 83.270    641.000    678.460    -37.460    561.191    650.338    589.348    561.191    561.191
 83.370    576.000    663.098    -87.098    560.990    638.866    585.248    560.990    560.990
 83.470    613.950    651.027    -37.078    560.787    629.518    582.314    560.787    560.787
 83.570    619.000    642.145    -23.145    560.583    622.424    580.314    560.583    560.583
 83.670    601.000    636.321    -35.321    560.378    617.613    579.087    560.378    560.378
 83.770    583.000    633.375    -50.375    560.171    615.018    578.521    560.171    560.171
 83.870    591.000    633.049    -42.049    559.963    614.471    578.525    559.963    559.963
 83.970    611.000    634.985    -23.985    559.753    615.709    579.005    559.753    559.753
 84.070    675.101    638.713     36.388    559.542    618.369    579.855    559.542    559.542
 84.170    664.000    643.646     20.354    559.330    621.994    580.944    559.330    559.330
 84.270    634.154    649.092    -14.938    559.116    626.048    582.115    559.116    559.116
 84.370    632.000    654.269    -22.269    558.901    629.930    583.191    558.901    558.901
 84.470    638.000    658.362    -20.362    558.685    633.015    583.980    558.685    558.685
 84.570    570.000    660.620    -90.620    558.467    634.729    584.304    558.467    558.467
 84.670    642.000    660.504    -18.504    558.248    634.661    584.039    558.248    558.248
 84.770    626.701    657.830    -31.129    558.028    632.665    583.144    558.028    558.028
 84.870    627.267    652.809    -25.542    557.806    628.894    581.676    557.806    557.806
 84.970    667.000    645.957     21.043    557.583    623.729    579.770    557.583    557.583
 85.070    598.994    637.941    -38.947    557.358    617.665    577.599    557.358    557.358
 85.170    614.513    629.424    -14.911    557.132    611.189    575.337    557.132    557.132
 85.270    621.000    620.995      0.005    556.905    604.728    573.146    556.905    556.905
 85.370    594.000    613.128    -19.128    556.677    598.621    571.163    556.677    556.677
 85.470    640.959    606.177     34.782    556.447    593.107    569.500    556.447    556.447
 85.570    619.841    600.379     19.463    556.216    588.332    568.248    556.216    556.216
 85.670    601.000    595.863      5.137    555.984    584.357    567.477    555.984    555.984
 85.770    632.423    592.677     39.746    555.751    581.176    567.238    555.751    555.751
 85.870    557.000    590.804    -33.804    555.516    578.736    567.571    555.516    555.516
 85.970    598.000    590.185      7.815    555.280    576.957    568.494    555.280    555.280
 86.070    566.000    590.736    -24.736    555.042    575.750    570.012    555.042    555.042
 86.170    598.000    592.357      5.643    554.804    575.040    572.104    554.804    554.804
 86.270    607.000    594.940     12.060    554.564    574.766    574.717    554.564    554.564
 86.370    582.867    598.364    -15.497    554.323    574.901    577.763    554.323    554.323
 86.470    633.000    602.499     30.501    554.080    575.446    581.107    554.080    554.080
 86.570    576.000    607.200    -31.200    553.837    576.438    584.569    553.837    553.837
 86.670    608.218    612.308     -4.090    553.592    577.947    587.920    553.592    553.592
 86.770    633.252    617.652     15.600    553.346    580.071    590.889    553.346    553.346
 86.870    591.000    623.063    -32.063    553.099    582.932    593.187    553.099    553.099
 86.970    645.000    628.406     16.594    552.851    586.661    594.547    552.851    552.851
 87.070    658.000    633.622     24.378    552.601    591.388    594.780    552.601    552.601
 87.170    601.480    638.769    -37.289    552.350    597.224    593.833    552.350    552.350
 87.270    639.000    644.004     -5.004    552.098    604.233    591.801    552.098    552.098
 87.370    692.000    649.532     42.468    551.845    612.409    588.891    551.845    551.845
 87.470    636.000    655.510    -19.510    551.591    621.649    585.364    551.591    551.591
 87.570    663.848    661.981      1.868    551.336    631.735    581.484    551.336    551.336
 87.670    724.000    668.822     55.178    551.079    642.311    577.482    551.079    551.079
 87.770    661.000    675.728    -14.728    550.822    652.881    573.551    550.822    550.822
 87.870    719.386    682.212     37.174    550.563    662.808    569.841    550.563    550.563
 87.970    730.000    687.638     42.362    550.303    671.352    566.456    550.303    550.303
 88.070    646.233    691.312    -45.079    550.042    677.759    563.460    550.042    550.042
 88.170    701.253    692.636      8.617    549.780    681.408    560.874    549.780    549.780
 88.270    705.529    691.287     14.242    549.517    681.985    558.691    549.517    549.517
 88.370    705.050    687.326     17.724    549.253    679.580    556.880    549.253    549.253
 88.470    703.000    681.170     21.830    548.987    674.654    555.398    548.987    548.987
 88.570    632.000    673.474    -41.474    548.721    667.906    554.198    548.721    548.721
 88.670    723.000    664.980     58.020    548.454    660.126    553.232    548.454    548.454
 88.770    709.000    656.429     52.571    548.185    652.095    552.458    548.185    548.185
 88.870    673.000    648.495     24.505    547.916    644.524    551.841    547.916    547.916
 88.970    687.018    641.757     45.261    547.645    638.018    551.352    547.645    547.645
 89.070    616.000    636.653    -20.653    547.374    633.040    550.967    547.374    547.374
 89.170    594.040    633.460    -39.420    547.102    629.884    550.668    547.102    547.102
 89.270    648.000    632.280     15.720    546.828    628.670    550.440    546.828    546.828
 89.370    622.597    633.040    -10.443    546.554    629.337    550.268    546.554    546.554
 89.470    646.063    635.499     10.564    546.278    631.660    550.138    546.278    546.278
 89.570    589.472    639.266    -49.794    546.002    635.264    550.034    546.002    546.002
 89.670    595.950    643.821    -47.871    545.725    639.645    549.940    545.725    545.725
 89.770    679.000    648.542     30.458    545.446    644.199    549.835    545.446    545.446
 89.870    624.000    652.743    -28.743    545.167    648.263    549.701    545.167    545.167
 89.970    658.824    655.744      3.081    544.887    651.173    549.517    544.887    544.887
 90.070    646.218    656.965    -10.748    544.606    652.368    549.267    544.606    544.606
 90.170    663.000    656.042      6.958    544.324    651.492    548.941    544.324    544.324
 90.270    667.000    652.902     14.098    544.042    648.472    548.537    544.042    544.042
 90.370    643.000    647.761     -4.761    543.758    643.518    548.065    543.758    543.758
 90.470    591.178    641.045    -49.868    543.474    637.039    547.540    543.474    543.474
 90.570    627.000    633.279     -6.279    543.188    629.543    546.979    543.188    543.188
 90.670    602.000    624.986    -22.986    542.902    621.537    546.401    542.902    542.902
 90.770    645.000    616.635     28.365    542.615    613.472    545.821    542.615    542.615
 90.870    629.000    608.610     20.390    542.328    605.722    545.252    542.328    542.328
 90.970    615.000    601.201     13.799    542.039    598.566    544.703    542.039    542.039
 91.070    623.511    594.606     28.905    541.750    592.197    544.182    541.750    541.750
 91.170    548.000    588.937    -40.937    541.460    586.723    543.692    541.460    541.460
 91.270    591.000    584.232      6.768    541.169    582.180    543.235    541.169    541.169
 91.370    573.000    580.472     -7.472    540.877    578.551    542.809    540.877    540.877
 91.470    605.000    577.598     27.402    540.585    575.777    542.412    540.585    540.585
 91.570    574.000    575.529     -1.529    540.292    573.782    542.043    540.292    540.292
 91.670    617.000    574.185     42.815    539.998    572.486    541.698    539.998    539.998
 91.770    523.297    573.493    -50.196    539.704    571.821    541.376    539.704    539.704
 91.870    542.555    573.407    -30.852    539.409    571.741    541.074    539.409    539.409
 91.970    550.611    573.911    -23.300    539.113    572.229    540.792    539.113    539.113
 92.070    547.660    575.025    -27.365    538.816    573.306    540.530    538.816    538.816
 92.170    608.000    576.806     31.194    538.519    575.027    540.292    538.519    538.519
 92.270    587.000    579.349      7.651    538.222    577.482    540.080    538.222    538.222
 92.370    612.745    582.781     29.964    537.923    580.796    539.897    537.923    537.923
 92.470    584.000    587.255     -3.255    537.624    585.116    539.749    537.624    537.624
 92.570    636.051    592.937     43.114    537.325    590.604    539.640    537.325    537.325
 92.670    601.298    599.998      1.301    537.025    597.425    539.575    537.025    537.025
 92.770    617.000    608.591      8.409    536.724    605.731    539.558    536.724    536.724
 92.870    614.077    618.842     -4.765    536.423    615.643    539.589    536.423    536.423
 92.970    648.000    630.825     17.175    536.122    627.237    539.670    536.122    536.122
 93.070    652.000    644.551      7.449    535.819    640.527    539.797    535.819    535.819
 93.170    684.000    659.950     24.050    535.517    655.447    539.966    535.517    535.517
 93.270    673.000    676.861     -3.861    535.214    671.845    540.168    535.214    535.214
 93.370    653.000    695.022    -42.022    534.910    689.469    540.394    534.910    534.910
 93.470    746.266    714.067     32.199    534.606    707.962    540.634    534.606    534.606
 93.570    709.000    733.533    -24.533    534.301    726.874    540.877    534.301    534.301
 93.670    712.386    752.890    -40.504    533.996    745.681    541.117    533.996    533.996
 93.770    746.000    771.637    -25.637    533.691    763.881    541.355    533.691    533.691
 93.870    783.000    789.423     -6.423    533.385    781.110    541.602    533.385    533.385
 93.970    774.212    806.086    -31.874    533.079    797.178    541.890    533.079    533.079
 94.070    787.592    821.750    -34.158    532.773    812.162    542.264    532.773    532.773
 94.170    846.773    836.750     10.023    532.466    826.332    542.786    532.466    532.466
 94.270    833.000    851.489    -18.489    532.159    840.026    543.525    532.159    532.159
 94.370    828.000    866.304    -38.304    531.851    853.511    544.547    531.851    531.851
 94.470    875.335    881.366     -6.031    531.544    866.903    545.911    531.544    531.544
 94.570    907.000    896.677     10.323    531.236    880.166    547.652    531.236    531.236
 94.670    834.000    912.126    -78.126    530.928    893.176    549.785    530.928    530.928
 94.770    894.000    927.570    -33.570    530.619    905.810    552.288    530.619    530.619
 94.870    883.196    942.859    -59.663    530.310    917.976    555.105    530.310    530.310
 94.970    974.000    957.787     16.213    530.001    929.562    558.142    530.001    530.001
 95.070    932.012    971.977    -39.966    529.692    940.324    561.265    529.692    529.692
 95.170   1019.000    984.781     34.219    529.383    949.782    564.306    529.383    529.383
 95.270   1036.566    995.247     41.318    529.074    957.181    567.070    529.074    529.074
 95.370   1006.831   1002.189      4.642    528.764    961.544    569.347    528.764    528.764
 95.470    971.000   1004.347    -33.347    528.454    961.817    570.932    528.454    528.454
 95.570   1074.000   1000.666     73.334    528.144    957.106    571.662    528.144    528.144
 95.670   1023.675    990.560     33.115    527.835    946.923    571.438    527.835    527.835
 95.770    961.000    974.125    -13.125    527.525    931.371    570.255    527.525    527.525
 95.870    957.357    952.182      5.175    527.215    911.183    568.198    527.215    527.215
 95.970    974.666    926.130     48.536    526.905    887.601    565.425    526.905    526.905
 96.070    925.000    897.714     27.286    526.595    862.170    562.134    526.595    526.595
 96.170    889.000    868.802     20.198    526.285    836.550    558.536    526.285    526.285
 96.270    868.000    841.233     26.767    525.975    812.379    554.829    525.975    525.975
 96.370    819.568    816.725      2.843    525.665    791.200    551.188    525.665    525.665
 96.470    782.000    796.829    -14.829    525.355    774.420    547.758    525.355    525.355
 96.570    855.000    782.899     72.101    525.045    763.289    544.646    525.045    525.045
 96.670    782.974    776.089      6.885    524.735    758.883    541.925    524.735    524.735
 96.770    864.000    777.338     86.662    524.426    762.105    539.635    524.426    524.426
 96.870    758.041    787.370    -29.330    524.116    773.666    537.787    524.116    524.116
 96.970    866.000    806.686     59.314    523.807    794.079    536.370    523.807    523.807
 97.070    784.747    835.548    -50.801    523.498    823.633    535.358    523.498    523.498
 97.170    914.000    873.953     40.047    523.189    862.361    534.714    523.189    523.189
 97.270    893.671    921.591    -27.920    522.880    909.997    534.395    522.880    522.880
 97.370    985.000    977.754      7.246    522.572    965.877    534.357    522.572    522.572
 97.470   1092.000   1041.494     50.506    522.264   1029.101    534.554    522.264    522.264
 97.570   1193.000   1111.247     81.753    521.956   1098.155    534.936    521.956    521.956
 97.670   1185.275   1185.001      0.274    521.648   1171.082    535.447    521.648    521.648
 97.770   1297.000   1260.218     36.782    521.341   1245.403    536.031    521.341    521.341
 97.870   1336.000   1333.838      2.162    521.034   1318.122    536.623    521.034    521.034
 97.970   1450.000   1402.348     47.652    520.728   1385.797    537.154    520.728    520.728
 98.070   1517.776   1461.944     55.832    520.421   1444.693    537.554    520.421    520.421
 98.170   1494.000   1508.846    -14.846    520.116   1491.103    537.753    520.116    520.116
 98.270   1514.000   1539.791    -25.791    519.810   1521.817    537.693    519.810    519.810
 98.370   1521.148   1552.589    -31.442    519.505   1534.687    537.336    519.505    519.505
 98.470   1602.000   1546.579     55.421    519.201   1529.059    536.669    519.201    519.201
 98.570   1587.756   1522.747     65.009    518.897   1505.899    535.713    518.897    518.897
 98.670   1558.161   1483.485     74.675    518.594   1467.556    534.509    518.594    518.594
 98.770   1417.851   1432.116    -14.264    518.291   1417.291    533.116    518.291    518.291
 98.870   1356.000   1372.378    -16.378    517.989   1358.781    531.598    517.989    517.989
 98.970   1397.000   1308.038     88.962    517.687   1295.728    530.016    517.687    517.687
 99.070   1298.000   1242.630     55.370    517.386   1231.612    528.429    517.386    517.386
 99.170   1217.000   1179.319     37.681    517.085   1169.547    526.883    517.085    517.085
 99.270   1137.000   1120.834     16.166    516.786   1112.226    525.418    516.786    516.786
 99.370   1001.000   1069.463    -68.463    516.487   1061.904    524.065    516.487    516.487
 99.470    989.000   1027.074    -38.074    516.188   1020.430    522.846    516.188    516.188
 99.570    911.000    995.153    -84.153    515.890    989.277    521.775    515.890    515.890
 99.670    981.843    974.842      7.001    515.593    969.580    520.856    515.593    515.593
 99.770    992.816    966.961     25.855    515.297    962.162    520.089    515.297    515.297
 99.870    952.000    972.028    -20.028    515.002    967.545    519.470    515.002    515.002
 99.970   1004.796    990.264     14.532    514.707    985.963    518.987    514.707    514.707
100.070   1070.000   1021.599     48.401    514.414   1017.358    518.629    514.414    514.414
100.170   1008.905   1065.675    -56.770    514.121   1061.387    518.379    514.121    514.121
100.270   1166.000   1121.829     44.171    513.829   1117.405    518.220    513.829    513.829
100.370   1219.000   1189.075     29.925    513.538   1184.446    518.135    513.538    513.538
100.470   1271.155   1266.074      5.082    513.248   1261.187    518.104    513.248    513.248
100.570   1284.000   1351.094    -67.094    512.958   1345.920    518.107    512.958    512.958
100.670   1472.000   1441.985     30.015    512.670   1436.513    518.125    512.670    512.670
100.770   1564.777   1536.156     28.621    512.383   1530.397    518.138    512.383    512.383
100.870   1669.000   1630.720     38.280    512.097   1624.702    518.125    512.097    512.097
100.970   1776.000   1722.511     53.489    511.812   1716.281    518.069    511.812    511.812
101.070   1784.000   1808.407    -24.407    511.528   1802.026    517.957    511.528    511.528
101.170   1942.707   1885.614     57.092    511.245   1879.148    517.780    511.245    511.245
101.270   1984.000   1951.892     32.108    510.963   1945.406    517.538    510.963    510.963
101.370   2013.000   2005.615      7.385    510.683   1999.168    517.238    510.683    510.683
101.470   2043.000   2045.647     -2.647    510.403   2039.285    516.893    510.403    510.403
101.570   2068.000   2071.117     -3.117    510.125   2064.865    516.520    510.125    510.125
101.670   2013.236   2081.263    -68.027    509.848   2075.132    516.138    509.848    509.848
101.770   2048.173   2075.482    -27.309    509.573   2069.462    515.763    509.573    509.573
101.870   2086.000   2053.587     32.413    509.298   2047.652    515.411    509.298    509.298
101.970   1973.000   2016.175    -43.175    509.025   2010.289    515.094    509.025    509.025
102.070   1980.000   1964.901     15.099    508.754   1959.019    514.821    508.754    508.754
102.170   1828.233   1902.484    -74.251    508.484   1896.556    514.596    508.484    508.484
102.270   1898.651   1832.407     66.244    508.215   1826.382    514.418    508.215    508.215
102.370   1675.071   1758.441    -83.370    507.947   1752.277    514.283    507.947    507.947
102.470   1626.000   1684.173    -58.173    507.681   1677.833    514.181    507.681    507.681
102.570   1600.357   1612.646    -12.289    507.417   1606.111    514.102    507.417    507.417
102.670   1463.000   1546.179    -83.179    507.154   1539.441    514.030    507.154    507.154
102.770   1467.000   1486.290    -19.290    506.892   1479.360    513.950    506.892    506.892
102.870   1507.337   1433.714     73.623    506.633   1426.615    513.848    506.633    506.633
102.970   1369.842   1388.442    -18.601    506.374   1381.211    513.713    506.374    506.374
103.070   1357.212   1349.800      7.412    506.118   1342.483    513.535    506.118    506.118
103.170   1239.000   1316.541    -77.541    505.863   1309.191    513.307    505.863    505.863
103.270   1352.334   1286.988     65.346    505.609   1279.666    513.023    505.609    505.609
103.370   1217.000   1259.224    -42.224    505.358   1251.995    512.676    505.358    505.358
103.470   1183.000   1231.351    -48.351    505.108   1224.284    512.263    505.108    505.108
103.570   1108.000   1201.762    -93.762    504.860   1194.926    511.784    504.860    504.860
103.670   1193.000   1169.359     23.641    504.614   1162.821    511.240    504.614    504.614
103.770   1099.000   1133.678    -34.678    504.369   1127.495    510.640    504.369    504.369
103.870   1042.000   1094.853    -52.853    504.127   1089.070    509.996    504.127    504.127
103.970   1045.000   1053.470     -8.470    503.886   1048.119    509.320    503.886    503.886
104.070   1037.818   1010.389     27.429    503.647   1005.487    508.629    503.647    503.647
104.170    946.120    966.572    -20.452    503.411    962.123    507.935    503.411    503.411
104.270    931.000    922.977      8.023    503.176    918.971    507.251    503.176    503.176
104.370    870.000    880.481    -10.481    502.943    876.903    506.586    502.943    502.943
104.470    918.000    839.849     78.151    502.712    836.671    505.948    502.712    502.712
104.570    832.993    801.706     31.287    502.484    798.898    505.343    502.484    502.484
104.670    732.390    766.529    -34.139    502.257    764.057    504.775    502.257    502.257
104.770    750.564    734.643     15.921    502.033    732.470    504.245    502.033    502.033
104.870    748.000    706.223     41.777    501.810    704.313    503.754    501.810    501.810
104.970    703.000    681.293     21.707    501.590    679.613    503.299    501.590    501.590
105.070    650.000    659.798     -9.798    501.372    658.314    502.881    501.372    501.372
105.170    683.061    641.578     41.484    501.157    640.254    502.499    501.157    501.157
105.270    617.000    626.380     -9.380    500.944    625.189    502.150    500.944    500.944
105.370    669.000    613.925     55.075    500.733    612.841    501.829    500.733    500.733
105.470    616.066    603.917     12.150    500.524    602.916    501.533    500.524    500.524
105.570    635.000    596.062     38.938    500.318    595.125    501.260    500.318    500.318
105.670    617.365    590.090     27.274    500.114    589.200    501.007    500.114    500.114
105.770    646.000    585.762     60.238    499.913    584.904    500.772    499.913    499.913
105.870    592.353    582.879      9.474    499.714    582.038    500.553    499.714    499.714
105.970    576.000    581.283     -5.283    499.518    580.448    500.349    499.518    499.518
106.070    632.000    580.860     51.140    499.324    580.019    500.159    499.324    499.324
106.170    609.653    581.536     28.116    499.133    580.678    499.983    499.133    499.133
106.270    572.000    583.270    -11.270    498.944    582.383    499.821    498.944    498.944
106.370    616.751    586.047     30.704    498.758    585.121    499.672    498.758    498.758
106.470    552.920    589.877    -36.957    498.575    588.899    499.537    498.575    498.575
106.570    599.000    594.777      4.223    498.394    593.737    499.417    498.394    498.394
106.670    636.000    600.774     35.226    498.217    599.658    499.311    498.217    498.217
106.770    611.000    607.887      3.113    498.042    606.683    499.221    498.042    498.042
106.870    632.000    616.123     15.877    497.869    614.818    499.146    497.869    497.869
106.970    589.543    625.466    -35.923    497.700    624.048    499.086    497.700    497.700
107.070    587.000    635.862    -48.862    497.534    634.320    499.041    497.534    497.534
107.170    686.868    647.220     39.648    497.370    645.542    499.009    497.370    497.370
107.270    669.000    659.395      9.605    497.210    657.574    498.988    497.210    497.210
107.370    704.000    672.194     31.806    497.052    670.224    498.976    497.052    497.052
107.470    689.000    685.367      3.633    496.898    683.246    498.969    496.898    496.898
107.570    675.514    698.616    -23.102    496.746    696.346    498.965    496.746    496.746
107.670    759.980    711.597     48.383    496.598    709.184    498.957    496.598    496.598
107.770    755.000    723.929     31.071    496.453    721.385    498.942    496.453    496.453
107.870    745.000    735.217      9.783    496.311    732.558    498.913    496.311    496.311
107.970    752.567    745.077      7.491    496.172    742.327    498.866    496.172    496.172
108.070    730.000    753.179    -23.179    496.037    750.365    498.796    496.037    496.037
108.170    764.000    759.296      4.704    495.904    756.449    498.700    495.904    495.904
108.270    782.000    763.343     18.657    495.775    760.494    498.576    495.775    495.775
108.370    770.000    765.401      4.599    495.650    762.582    498.424    495.650    495.650
108.470    770.000    765.713      4.287    495.528    762.953    498.246    495.528    495.528
108.570    767.296    764.647      2.648    495.409    761.973    498.047    495.409    495.409
108.670    797.000    762.645     34.355    495.294    760.076    497.830    495.294    495.294
108.770    730.000    760.167    -30.167    495.182    757.718    497.603    495.182    495.182
108.870    749.000    757.640     -8.640    495.074    755.321    497.370    495.074    495.074
108.970    730.000    755.429    -25.429    494.969    753.243    497.135    494.969    494.969
109.070    724.000    753.810    -29.810    494.868    751.757    496.905    494.868    494.868
109.170    753.000    752.955      0.045    494.771    751.032    496.681    494.771    494.771
109.270    719.000    752.930    -33.930    494.677    751.131    496.468    494.677    494.677
109.370    801.071    753.690     47.381    494.587    752.006    496.266    494.587    494.587
109.470    758.024    755.080      2.944    494.501    753.501    496.078    494.501    494.501
109.570    718.402    756.845    -38.442    494.419    755.361    495.904    494.419    494.419
109.670    792.435    758.640     33.794    494.340    757.242    495.743    494.340    494.340
109.770    757.000    760.060     -3.060    494.266    758.738    495.596    494.266    494.266
109.870    721.000    760.664    -39.664    494.195    759.411    495.459    494.195    494.195
109.970    713.858    760.035    -46.177    494.128    758.843    495.333    494.128    494.128
110.070    720.000    757.819    -37.819    494.066    756.685    495.215    494.066    494.066
110.170    728.000    753.785    -25.785    494.007    752.705    495.105    494.007    494.007
110.270    733.000    747.849    -14.849    493.952    746.821    495.000    493.952    493.952
110.370    708.000    740.071    -32.071    493.902    739.102    494.892    493.902    493.902
110.470    722.000    730.682     -8.682    493.856    729.761    494.798    493.856    493.856
110.570    731.000    719.968     11.032    493.814    719.093    494.710    493.814    493.814
110.670    655.000    708.279    -53.279    493.776    707.448    494.628    493.776    493.776
110.770    668.155    695.979    -27.824    493.743    695.190    494.551    493.743    493.743
110.870    639.000    683.419    -44.419    493.713    682.670    494.481    493.713    493.713
110.970    723.228    670.920     52.307    493.689    670.209    494.417    493.689    493.689
111.070    696.141    658.767     37.374    493.668    658.090    494.361    493.668    493.668
111.170    679.000    647.197     31.803    493.652    646.551    494.311    493.652    493.652
111.270    638.400    636.401      1.999    493.641    635.783    494.270    493.641    493.641
111.370    623.143    626.520     -3.377    493.634    625.927    494.236    493.634    493.634
111.470    618.570    617.675      0.895    493.632    617.103    494.211    493.632    493.632
111.570    581.155    609.917    -28.761    493.634    609.362    494.194    493.634    493.634
111.670    613.000    603.265      9.735    493.641    602.725    494.184    493.641    493.641
111.770    607.000    597.707      9.293    493.653    597.178    494.184    493.653    493.653
111.870    572.000    593.204    -21.204    493.670    592.682    494.190    493.670    493.670
111.970    593.649    589.695      3.954    493.691    589.179    494.205    493.691    493.691
112.070    597.000    587.104      9.896    493.717    586.590    494.227    493.717    493.717
112.170    577.319    585.344     -8.025    493.748    584.830    494.257    493.748    493.748
112.270    607.000    584.324     22.676    493.784    583.809    494.293    493.784    493.784
112.370    556.729    583.955    -27.226    493.825    583.437    494.336    493.825    493.825
112.470    610.000    584.151     25.849    493.871    583.629    494.385    493.871    493.871
112.570    551.000    584.832    -33.832    493.922    584.305    494.440    493.922    493.922
112.670    540.000    585.927    -45.927    493.978    585.395    494.500    493.978    493.978
112.770    616.000    587.379     28.621    494.039    586.841    494.567    494.039    494.039
112.870    544.082    589.139    -45.056    494.106    588.595    494.638    494.106    494.106
112.970    597.000    591.174      5.826    494.177    590.624    494.715    494.177    494.177
113.070    622.000    593.465     28.535    494.254    592.910    494.798    494.254    494.254
113.170    555.849    596.009    -40.160    494.337    595.448    494.885    494.337    494.337
113.270    599.000    598.816      0.184    494.424    598.248    494.979    494.424    494.424
113.370    631.691    601.912     29.779    494.517    601.337    495.079    494.517    494.517
113.470    609.633    605.340      4.293    494.616    604.757    495.186    494.616    494.616
113.570    628.000    609.157     18.843    494.720    608.564    495.299    494.720    494.720
113.670    643.916    613.444     30.473    494.830    612.838    495.421    494.830    494.830
113.770    619.140    618.303      0.837    494.945    617.682    495.550    494.945    494.945
113.870    625.000    623.868      1.132    495.066    623.228    495.690    495.066    495.066
113.970    643.000    630.312     12.688    495.192    629.647    495.839    495.192    495.192
114.070    673.415    637.854     35.561    495.325    637.160    495.999    495.325    495.325
114.170    674.000    646.777     27.223    495.463    646.046    496.172    495.463    495.463
114.270    654.000    657.435     -3.435    495.607    656.659    496.358    495.607    495.607
114.370    651.000    670.276    -19.276    495.756    669.445    496.558    495.756    495.756
114.470    697.787    685.854     11.933    495.912    684.958    496.774    495.912    495.912
114.570    630.000    704.853    -74.853    496.074    703.880    497.008    496.074    496.074
114.670    719.000    728.105     -9.105    496.242    727.039    497.260    496.242    496.242
114.770    717.117    756.604    -39.487    496.416    755.430    497.533    496.416    496.416
114.870    797.000    791.529      5.471    496.595    790.229    497.827    496.595    496.595
114.970    889.997    834.250     55.747    496.782    832.804    498.144    496.782    496.782
115.070    869.936    886.334    -16.398    496.974    884.721    498.486    496.974    496.974
115.170    887.000    949.540    -62.540    497.173    947.739    498.853    497.173    497.173
115.270   1009.000   1025.805    -16.805    497.377   1023.791    499.247    497.377    497.377
115.370   1105.000   1117.210    -12.210    497.589   1114.958    499.668    497.589    497.589
115.470   1199.000   1225.932    -26.932    497.806   1223.417    500.118    497.806    497.806
115.570   1326.000   1354.183    -28.183    498.031   1351.379    500.595    498.031    498.031
115.670   1443.166   1504.122    -60.956    498.261   1501.005    501.100    498.261    498.261
115.770   1680.000   1677.757      2.243    498.499   1674.302    501.632    498.499    498.499
115.870   1898.000   1876.827     21.173    498.742   1873.011    502.190    498.742    498.742
115.970   2112.000   2102.671      9.329    498.993   2098.475    502.772    498.993    498.993
116.070   2344.000   2356.096    -12.096    499.250   2351.504    503.376    499.250    499.250
116.170   2564.000   2637.240    -73.240    499.514   2632.239    503.999    499.514    499.514
116.270   2867.000   2945.441    -78.441    499.785   2940.023    504.637    499.785    499.785
116.370   3329.564   3279.128     50.437    500.063   3273.292    505.286    500.063    500.063
116.470   3715.000   3635.725     79.275    500.348   3629.475    505.941    500.348    500.348
116.570   4040.000   4011.595     28.405    500.639   4004.941    506.599    500.639    500.639
116.670   4286.482   4401.999   -115.517    500.938   4394.959    507.256    500.938    500.938
116.770   4708.355   4801.083    -92.729    501.243   4793.679    507.906    501.243    501.243
116.870   5168.000   5202.047    -34.047    501.556   5194.305    508.548    501.556    501.556
116.970   5524.000   5597.069    -73.069    501.876   5589.020    509.180    501.876    501.876
117.070   6096.191   5977.485    118.707    502.204   5969.163    509.799    502.204    502.204
117.170   6413.000   6334.013     78.987    502.538   6325.457    510.403    502.538    502.538
117.270   6635.000   6657.015    -22.015    502.880   6648.263    510.990    502.880    502.880
117.370   6963.995   6936.869     27.125    503.229   6927.964    511.558    503.229    503.229
117.470   7147.000   7164.481    -17.481    503.586   7155.467    512.103    503.586    503.586
117.570   7220.162   7331.890   -111.729    503.950   7322.812    512.624    503.950    503.950
117.670   7281.562   7432.938   -151.376    504.322   7423.839    513.117    504.322    504.322
117.770   7415.151   7463.868    -48.717    504.701   7454.790    513.580    504.701    504.701
117.870   7470.512   7423.736     46.776    505.088   7414.718    514.012    505.088    505.088
117.970   7414.000   7314.513     99.487    505.483   7305.591    514.412    505.483    505.483
118.070   6982.696   7140.859   -158.163    505.886   7132.065    514.779    505.886    505.886
118.170   6797.000   6909.620   -112.620    506.296   6900.982    515.115    506.296    506.296
118.270   6618.000   6629.184    -11.184    506.714   6620.729    515.419    506.714    506.714
118.370   6423.623   6308.822    114.800    507.140   6300.575    515.694    507.140    507.140
118.470   5923.000   5958.108    -35.108    507.574   5950.091    515.939    507.574    507.574
118.570   5622.000   5586.461     35.539    508.016   5578.695    516.157    508.016    508.016
118.670   5242.000   5202.804     39.196    508.467   5195.310    516.351    508.467    508.467
118.770   4897.000   4815.331     81.669    508.925   4808.126    516.523    508.925    508.925
118.870   4563.925   4431.336    132.589    509.392   4424.434    516.679    509.392    509.392
118.970   4164.295   4057.105    107.190    509.867   4050.518    516.823    509.867    509.867
119.070   3709.000   3697.855     11.145    510.350   3691.590    516.961    510.350    510.350
119.170   3283.615   3357.715    -74.099    510.841   3351.774    517.100    510.841    510.841
119.270   3078.000   3039.743     38.257    511.341   3034.125    517.245    511.341    511.341
119.370   2802.000   2745.992     56.008    511.850   2740.691    517.402    511.850    511.850
119.470   2547.287   2477.593     69.695    512.367   2472.598    517.578    512.367    512.367
119.570   2221.000   2234.872    -13.872    512.893   2230.170    517.777    512.893    512.893
119.670   1926.137   2017.479    -91.342    513.427   2013.052    518.003    513.427    513.427
119.770   1918.000   1824.513     93.487    513.970   1820.341    518.261    513.970    513.970
119.870   1697.290   1654.654     42.636    514.522   1650.714    518.555    514.522    514.522
119.970   1602.000   1506.280     95.720    515.082   1502.546    518.886    515.082    515.082
120.070   1501.000   1377.576    123.424    515.652   1374.019    519.257    515.652    515.652
120.170   1310.000   1266.623     43.377    516.230   1263.214    519.671    516.230    516.230
120.270   1194.603   1171.487     23.116    516.818   1168.194    520.128    516.818    516.818
120.370   1129.000   1090.279     38.721    517.415   1087.069    520.631    517.415    517.415
120.470    985.994   1021.209    -35.215    518.020   1018.048    521.180    518.020    518.020
120.570    971.482    962.622      8.860    518.635    959.474    521.775    518.635    518.635
120.670    890.076    913.022    -22.946    519.259    909.851    522.418    519.259    519.259
120.770    848.000    871.082    -23.082    519.893    867.851    523.110    519.893    519.893
120.870    860.000    835.645     24.355    520.536    832.317    523.849    520.536    520.536
120.970    815.000    805.720      9.280    521.188    802.254    524.638    521.188    521.188
121.070    764.000    780.465    -16.465    521.850    776.822    525.478    521.850    521.850
121.170    753.546    759.176     -5.630    522.521    755.316    526.368    522.521    522.521
121.270    737.933    741.269     -3.337    523.202    737.149    527.310    523.202    523.202
121.370    716.744    726.264     -9.520    523.892    721.840    528.306    523.892    523.892
121.470    685.000    713.766    -28.766    524.593    708.994    529.357    524.593    524.593
121.570    680.000    703.452    -23.452    525.303    698.285    530.463    525.303    525.303
121.670    743.000    695.059     47.941    526.023    689.450    531.628    526.023    526.023
121.770    689.000    688.372      0.628    526.753    682.270    532.851    526.753    526.753
121.870    692.000    683.210      8.790    527.492    676.566    534.136    527.492    527.492
121.970    654.000    679.426    -25.426    528.242    672.186    535.483    528.242    528.242
122.070    706.000    676.892     29.108    529.002    669.002    536.894    529.002    529.002
122.170    680.000    675.500      4.500    529.773    666.904    538.371    529.773    529.773
122.270    671.000    675.151     -4.151    530.553    665.794    539.915    530.553    530.553
122.370    698.898    675.758     23.141    531.344    665.581    541.527    531.344    531.344
122.470    648.618    677.235    -28.617    532.145    666.181    543.207    532.145    532.145
122.570    672.000    679.501     -7.501    532.956    667.513    544.953    532.956    532.956
122.670    663.910    682.473    -18.563    533.778    669.498    546.765    533.778    533.778
122.770    661.000    686.065    -25.065    534.611    672.052    548.637    534.611    534.611
122.870    617.000    690.187    -73.187    535.454    675.093    550.564    535.454    535.454
122.970    649.000    694.744    -45.744    536.307    678.532    552.538    536.307    536.307
123.070    709.000    699.633      9.367    537.172    682.277    554.549    537.172    537.172
123.170    684.000    704.745    -20.745    538.047    686.229    556.586    538.047    538.047
123.270    750.000    709.963     40.037    538.933    690.288    558.634    538.933    538.933
123.370    703.403    715.163    -11.761    539.830    694.346    560.677    539.830    539.830
123.470    707.000    720.218    -13.218    540.739    698.291    562.698    540.739    540.739
123.570    723.922    724.994     -1.072    541.658    702.010    564.677    541.658    541.658
123.670    713.000    729.358    -16.358    542.588    705.391    566.593    542.588    542.588
123.770    774.610    733.181     41.430    543.529    708.323    568.427    543.529    543.529
123.870    741.000    736.341      4.659    544.482    710.707    570.160    544.482    544.482
123.970    691.000    738.735    -47.735    545.446    712.455    571.773    545.446    545.446
124.070    739.888    740.279     -0.391    546.422    713.497    573.251    546.422    546.422
124.170    743.000    740.910      2.090    547.409    713.785    574.583    547.409    547.409
124.270    674.000    740.568    -66.568    548.407    713.264    575.761    548.407    548.407
124.370    773.000    739.328     33.672    549.417    712.011    576.785    549.417    549.417
124.470    730.000    737.192     -7.192    550.439    710.028    577.654    550.439    550.439
124.570    710.585    734.210    -23.625    551.472    707.358    578.375    551.472    551.472
124.670    700.556    730.454    -29.897    552.517    704.067    578.954    552.517    552.517
124.770    723.086    726.011     -2.925    553.575    700.231    579.403    553.575    553.575
124.870    731.000    720.978     10.022    554.644    695.935    579.734    554.644    554.644
124.970    672.448    715.454    -43.006    555.725    691.264    579.960    555.725    555.725
